timestamp,value,norm_ts
1619090850.71777,-43.17474,3.302300214767456
1619090850.7334,-49.06793,3.317930221557617
1619090850.74902,-55.43494,3.333550214767456
1619090850.76465,-61.97943,3.349180221557617
1619090850.78027,-68.24469,3.364800214767456
1619090850.7959,-73.78363,3.380430221557617
1619090850.81153,-78.44135,3.3960602283477783
1619090850.82715,-82.48468,3.411680221557617
1619090850.84278,-86.72375,3.4273102283477783
1619090850.8584,-92.30957,3.442930221557617
1619090850.87403,-100.4599,3.4585602283477783
1619090850.88965,-111.8986,3.474180221557617
1619090850.90528,-126.4394,3.4898102283477783
1619090850.92091,-142.6703,3.5054399967193604
1619090850.93653,-157.902,3.5210602283477783
1619090850.95216,-168.6133,3.5366899967193604
1619090850.96778,-171.2303,3.5523102283477783
1619090850.98341,-163.2415,3.5679399967193604
1619090850.99903,-144.1271,3.5835602283477783
1619090851.01466,-115.7664,3.5991899967193604
1619090851.03029,-82.03784,3.6148200035095215
1619090851.04591,-47.7312,3.6304399967193604
1619090851.06154,-17.13806,3.6460700035095215
1619090851.07716,7.120483,3.6616899967193604
1619090851.09279,24.55035,3.6773200035095215
1619090851.10841,36.47772,3.6929399967193604
1619090851.12404,45.06189,3.7085700035095215
1619090851.13967,52.29779,3.7242000102996826
1619090851.15529,59.26111,3.7398200035095215
1619090851.17092,66.01074,3.7554500102996826
1619090851.18654,71.91718,3.7710700035095215
1619090851.20217,76.26068,3.7867000102996826
1619090851.21779,78.66656,3.8023200035095215
1619090851.23342,79.27472,3.8179500102996826
1619090851.24905,78.61011,3.8335800170898438
1619090851.26467,77.30872,3.8492000102996826
1619090851.2803,75.87878,3.8648300170898438
1619090851.29592,74.58691,3.8804500102996826
1619090851.31155,73.44092,3.8960800170898438
1619090851.32717,72.31573,3.9117000102996826
1619090851.3428,71.0578,3.9273300170898438
1619090851.35843,69.56335,3.942960023880005
1619090851.37405,67.77081,3.9585800170898438
1619090851.38968,65.67822,3.974210023880005
1619090851.4053,63.26947,3.9898300170898438
1619090851.42093,60.51984,4.005460023880005
1619090851.43655,57.36987,4.021080017089844
1619090851.45218,53.78674,4.036710023880005
1619090851.46781,49.7865,4.052340030670166
1619090851.48343,45.52289,4.067960023880005
1619090851.49906,41.20618,4.083590030670166
1619090851.51468,36.99017,4.099210023880005
1619090851.53031,32.87939,4.114840030670166
1619090851.54593,28.66504,4.130460023880005
1619090851.56156,24.07837,4.146090030670166
1619090851.57719,18.98199,4.161720037460327
1619090851.59281,13.56189,4.177340030670166
1619090851.60844,8.263611,4.192970037460327
1619090851.62406,3.584412,4.208590030670166
1619090851.63969,-0.2878418,4.224220037460327
1619090851.65531,-3.645264,4.239840030670166
1619090851.67094,-7.149902,4.255470037460327
1619090851.68657,-11.54407,4.271100044250488
1619090851.70219,-17.23022,4.286720037460327
1619090851.71782,-24.04114,4.302350044250488
1619090851.73344,-31.38055,4.317970037460327
1619090851.74907,-38.58386,4.333600044250488
1619090851.76469,-45.33038,4.349220037460327
1619090851.78032,-51.84753,4.364850044250488
1619090851.79595,-58.86896,4.380480051040649
1619090851.81157,-67.297,4.396100044250488
1619090851.8272,-77.92365,4.411730051040649
1619090851.84282,-91.04266,4.427350044250488
1619090851.85845,-106.1138,4.442980051040649
1619090851.87407,-121.6375,4.458600044250488
1619090851.8897,-135.1536,4.474230051040649
1619090851.90533,-143.6469,4.4898600578308105
1619090851.92095,-144.3732,4.505480051040649
1619090851.93658,-135.7027,4.5211100578308105
1619090851.9522,-117.877,4.536730051040649
1619090851.96783,-93.13446,4.5523600578308105
1619090851.98345,-65.09143,4.567980051040649
1619090851.99908,-37.61774,4.5836100578308105
1619090852.01471,-13.74408,4.599240064620972
1619090852.03033,5.070557,4.6148600578308105
1619090852.04596,18.97632,4.630490064620972
1619090852.06158,29.19366,4.6461100578308105
1619090852.07721,37.26825,4.661740064620972
1619090852.09283,44.43793,4.6773600578308105
1619090852.10846,51.28845,4.692990064620972
1619090852.12409,57.8244,4.708620071411133
1619090852.13971,63.63422,4.724240064620972
1619090852.15534,68.19116,4.739870071411133
1619090852.17096,71.14294,4.755490064620972
1619090852.18659,72.4649,4.771120071411133
1619090852.20221,72.4165,4.786740064620972
1619090852.21784,71.4563,4.802370071411133
1619090852.23347,70.0816,4.818000078201294
1619090852.24909,68.68353,4.833620071411133
1619090852.26472,67.53699,4.849250078201294
1619090852.28034,66.81909,4.864870071411133
1619090852.29597,66.59491,4.880500078201294
1619090852.31159,66.85614,4.896120071411133
1619090852.32722,67.42383,4.911750078201294
1619090852.34285,67.89929,4.927380084991455
1619090852.35847,67.76105,4.943000078201294
1619090852.3741,66.48541,4.958630084991455
1619090852.38972,63.77417,4.974250078201294
1619090852.40535,59.7265,4.989880084991455
1619090852.42097,54.78351,5.005500078201294
1619090852.4366,49.60742,5.021130084991455
1619090852.45223,44.79114,5.036760091781616
1619090852.46785,40.69092,5.052380084991455
1619090852.48348,37.28217,5.068010091781616
1619090852.4991,34.24243,5.083630084991455
1619090852.51473,31.13705,5.099260091781616
1619090852.53035,27.55286,5.114880084991455
1619090852.54598,23.22382,5.130510091781616
1619090852.56161,18.02826,5.146140098571777
1619090852.57723,12.02188,5.161760091781616
1619090852.59286,5.418121,5.177390098571777
1619090852.60848,-1.446228,5.193010091781616
1619090852.62411,-8.130859,5.208640098571777
1619090852.63973,-14.26212,5.224260091781616
1619090852.65536,-19.67166,5.239890098571777
1619090852.67099,-24.56976,5.2555201053619385
1619090852.68661,-29.50446,5.271140098571777
1619090852.70224,-35.21069,5.2867701053619385
1619090852.71786,-42.22073,5.302390098571777
1619090852.73349,-50.61011,5.3180201053619385
1619090852.74911,-59.89456,5.333640098571777
1619090852.76474,-69.21851,5.3492701053619385
1619090852.78037,-77.72983,5.3649001121521
1619090852.79599,-84.93256,5.3805201053619385
1619090852.81162,-90.96469,5.3961501121521
1619090852.82724,-96.51913,5.4117701053619385
1619090852.84287,-102.6831,5.4274001121521
1619090852.8585,-110.5678,5.443030118942261
1619090852.87412,-120.9712,5.4586501121521
1619090852.88975,-133.9319,5.474280118942261
1619090852.90537,-148.3801,5.4899001121521
1619090852.921,-162.037,5.505530118942261
1619090852.93662,-171.7054,5.5211501121521
1619090852.95225,-174.0763,5.536780118942261
1619090852.96788,-166.771,5.552410125732422
1619090852.9835,-149.3241,5.568030118942261
1619090852.99913,-123.5083,5.583660125732422
1619090853.01475,-92.85172,5.599280118942261
1619090853.03038,-61.46335,5.614910125732422
1619090853.046,-32.79349,5.630530118942261
1619090853.06163,-8.776245,5.646160125732422
1619090853.07726,10.34259,5.661790132522583
1619090853.09288,25.46259,5.677410125732422
1619090853.10851,37.91174,5.693040132522583
1619090853.12413,48.84869,5.708660125732422
1619090853.13976,58.99063,5.724290132522583
1619090853.15538,68.65714,5.739910125732422
1619090853.17101,77.90952,5.755540132522583
1619090853.18664,86.58688,5.771170139312744
1619090853.20226,94.32117,5.786790132522583
1619090853.21789,100.6337,5.802420139312744
1619090853.23351,105.0273,5.818040132522583
1619090853.24914,107.221,5.833670139312744
1619090853.26476,107.3137,5.849290132522583
1619090853.28039,105.8334,5.864920139312744
1619090853.29602,103.5555,5.880550146102905
1619090853.31164,101.2884,5.896170139312744
1619090853.32727,99.62234,5.911800146102905
1619090853.34289,98.79044,5.927420139312744
1619090853.35852,98.69299,5.943050146102905
1619090853.37414,98.94986,5.958670139312744
1619090853.38977,99.01517,5.974300146102905
1619090853.4054,98.3161,5.989930152893066
1619090853.42102,96.37161,6.005550146102905
1619090853.43665,92.9202,6.021180152893066
1619090853.45227,88.02002,6.036800146102905
1619090853.4679,82.11124,6.052430152893066
1619090853.48352,75.85214,6.068050146102905
1619090853.49915,69.97485,6.083680152893066
1619090853.51478,65.00864,6.0993101596832275
1619090853.5304,61.07928,6.114930152893066
1619090853.54603,57.89282,6.1305601596832275
1619090853.56165,54.82675,6.146180152893066
1619090853.57728,51.22049,6.1618101596832275
1619090853.5929,46.6402,6.177430152893066
1619090853.60853,41.02225,6.1930601596832275
1619090853.62416,34.62,6.208690166473389
1619090853.63978,27.87494,6.2243101596832275
1619090853.65541,21.12619,6.239940166473389
1619090853.67103,14.52188,6.2555601596832275
1619090853.68666,8.012604,6.271190166473389
1619090853.70228,1.441284,6.2868101596832275
1619090853.71791,-5.258514,6.302440166473389
1619090853.73354,-11.94281,6.31807017326355
1619090853.74916,-18.30164,6.333690166473389
1619090853.76479,-24.04413,6.34932017326355
1619090853.78041,-29.09961,6.364940166473389
1619090853.79604,-33.78427,6.38057017326355
1619090853.81166,-38.68381,6.396190166473389
1619090853.82729,-44.3631,6.41182017326355
1619090853.84292,-51.02872,6.427450180053711
1619090853.85854,-58.35757,6.44307017326355
1619090853.87417,-65.55649,6.458700180053711
1619090853.88979,-71.73782,6.47432017326355
1619090853.90542,-76.32089,6.489950180053711
1619090853.92104,-79.29745,6.50557017326355
1619090853.93667,-81.2576,6.521200180053711
1619090853.9523,-83.14185,6.536830186843872
1619090853.96792,-85.95627,6.552450180053711
1619090853.98355,-90.60083,6.568080186843872
1619090853.99917,-97.79129,6.583700180053711
1619090854.0148,-107.9005,6.599330186843872
1619090854.03042,-120.6457,6.614950180053711
1619090854.04605,-134.6861,6.630580186843872
1619090854.06168,-147.4024,6.646210193634033
1619090854.0773,-155.3329,6.661830186843872
1619090854.09293,-155.0855,6.677460193634033
1619090854.10855,-144.6189,6.693080186843872
1619090854.12418,-124.2498,6.708710193634033
1619090854.1398,-96.72516,6.724330186843872
1619090854.15543,-66.38611,6.739960193634033
1619090854.17106,-37.66104,6.755590200424194
1619090854.18668,-13.67172,6.771210193634033
1619090854.20231,4.464142,6.786840200424194
1619090854.21793,17.4072,6.802460193634033
1619090854.23356,26.76685,6.818090200424194
1619090854.24918,34.18552,6.833710193634033
1619090854.26481,40.77652,6.849340200424194
1619090854.28044,47.04218,6.8649702072143555
1619090854.29606,53.1171,6.880590200424194
1619090854.31169,58.96835,6.8962202072143555
1619090854.32731,64.44067,6.911840200424194
1619090854.34294,69.22379,6.9274702072143555
1619090854.35856,72.80362,6.943090200424194
1619090854.37419,74.61325,6.9587202072143555
1619090854.38982,74.28574,6.974350214004517
1619090854.40544,71.89383,6.9899702072143555
1619090854.42107,68.0621,7.005600214004517
1619090854.43669,63.81805,7.0212202072143555
1619090854.45232,60.26633,7.036850214004517
1619090854.46794,58.20697,7.0524702072143555
1619090854.48357,57.94141,7.068100214004517
1619090854.4992,59.20105,7.083730220794678
1619090854.51482,61.23282,7.099350214004517
1619090854.53045,63.1279,7.114980220794678
1619090854.54607,63.98291,7.130600214004517
1619090854.5617,63.24219,7.146230220794678
1619090854.57732,60.77322,7.161850214004517
1619090854.59295,56.91653,7.177480220794678
1619090854.60858,52.32758,7.193110227584839
1619090854.6242,47.7453,7.208730220794678
1619090854.63983,43.76511,7.224360227584839
1619090854.65545,40.64052,7.239980220794678
1619090854.67108,38.27606,7.255610227584839
1619090854.6867,36.32025,7.271230220794678
1619090854.70233,34.37798,7.286860227584839
1619090854.71796,32.16733,7.302489995956421
1619090854.73358,29.65759,7.318110227584839
1619090854.74921,27.05254,7.333739995956421
1619090854.76483,24.68425,7.349360227584839
1619090854.78046,22.75729,7.364989995956421
1619090854.79608,21.16336,7.380610227584839
1619090854.81171,19.47054,7.396239995956421
1619090854.82734,17.02673,7.411870002746582
1619090854.84296,13.33461,7.427489995956421
1619090854.85859,8.277145,7.443120002746582
1619090854.87421,2.298187,7.458739995956421
1619090854.88984,-3.768585,7.474370002746582
1619090854.90546,-9.109909,7.489989995956421
1619090854.92109,-13.32076,7.505620002746582
1619090854.93672,-16.66312,7.521250009536743
1619090854.95234,-19.87343,7.536870002746582
1619090854.96797,-23.86937,7.552500009536743
1619090854.98359,-29.28757,7.568120002746582
1619090854.99922,-36.25067,7.583750009536743
1619090855.01485,-44.37247,7.599380016326904
1619090855.03047,-52.92212,7.615000009536743
1619090855.0461,-61.15508,7.630630016326904
1619090855.06172,-68.53722,7.646250009536743
1619090855.07735,-74.94414,7.661880016326904
1619090855.09297,-80.66116,7.677500009536743
1619090855.1086,-86.40601,7.693130016326904
1619090855.12423,-93.09412,7.708760023117065
1619090855.13985,-101.5472,7.724380016326904
1619090855.15548,-111.9534,7.740010023117065
1619090855.1711,-123.4479,7.755630016326904
1619090855.18673,-133.9187,7.771260023117065
1619090855.20235,-140.3957,7.786880016326904
1619090855.21798,-139.8994,7.802510023117065
1619090855.23361,-130.4964,7.818140029907227
1619090855.24923,-112.1588,7.833760023117065
1619090855.26486,-86.87371,7.849390029907227
1619090855.28048,-58.15292,7.865010023117065
1619090855.29611,-29.93026,7.880640029907227
1619090855.31173,-5.424622,7.896260023117065
1619090855.32736,13.68056,7.911890029907227
1619090855.34299,27.39925,7.927520036697388
1619090855.35861,37.01036,7.943140029907227
1619090855.37424,44.36798,7.958770036697388
1619090855.38986,51.1122,7.974390029907227
1619090855.40549,58.24988,7.990020036697388
1619090855.42111,65.99471,8.005640029907227
1619090855.43674,73.89903,8.021270036697388
1619090855.45237,81.1515,8.036900043487549
1619090855.46799,86.88609,8.052520036697388
1619090855.48362,90.47184,8.068150043487549
1619090855.49924,91.65148,8.083770036697388
1619090855.51487,90.60933,8.099400043487549
1619090855.53049,87.89471,8.115020036697388
1619090855.54612,84.32252,8.130650043487549
1619090855.56175,80.81618,8.14628005027771
1619090855.57737,78.15295,8.161900043487549
1619090855.593,76.70885,8.17753005027771
1619090855.60862,76.29092,8.193150043487549
1619090855.62425,76.18342,8.20878005027771
1619090855.63987,75.4026,8.224400043487549
1619090855.6555,73.14571,8.24003005027771
1619090855.67113,69.11856,8.255660057067871
1619090855.68675,63.70916,8.27128005027771
1619090855.70238,57.70962,8.286910057067871
1619090855.718,52.0386,8.30253005027771
1619090855.73363,47.26579,8.318160057067871
1619090855.74925,43.46649,8.33378005027771
1619090855.76488,40.28176,8.349410057067871
1619090855.78051,37.21331,8.365040063858032
1619090855.79613,33.94165,8.380660057067871
1619090855.81176,30.44567,8.396290063858032
1619090855.82738,26.92192,8.411910057067871
1619090855.84301,23.56948,8.427540063858032
1619090855.85863,20.47096,8.443160057067871
1619090855.87426,17.46491,8.458790063858032
1619090855.88989,14.28482,8.474420070648193
1619090855.90551,10.67418,8.490040063858032
1619090855.92114,6.528895,8.505670070648193
1619090855.93676,1.883554,8.521290063858032
1619090855.95239,-3.054203,8.536920070648193
1619090855.96801,-8.011251,8.552540063858032
1619090855.98364,-12.72096,8.568170070648193
1619090855.99927,-17.04066,8.583800077438354
1619090856.01489,-21.13018,8.599420070648193
1619090856.03052,-25.42964,8.615050077438354
1619090856.04614,-30.61398,8.630670070648193
1619090856.06177,-37.34303,8.646300077438354
1619090856.07739,-45.95084,8.661920070648193
1619090856.09302,-56.15436,8.677550077438354
1619090856.10865,-67.04141,8.693180084228516
1619090856.12427,-77.3272,8.708800077438354
1619090856.1399,-85.81638,8.724430084228516
1619090856.15552,-91.89771,8.740050077438354
1619090856.17115,-95.7586,8.755680084228516
1619090856.18677,-98.33641,8.771300077438354
1619090856.2024,-101.0259,8.786930084228516
1619090856.21803,-105.134,8.802560091018677
1619090856.23365,-111.3608,8.818180084228516
1619090856.24928,-119.3102,8.833810091018677
1619090856.2649,-127.3752,8.849430084228516
1619090856.28053,-132.9638,8.865060091018677
1619090856.29615,-133.2546,8.880680084228516
1619090856.31178,-126.0979,8.896310091018677
1619090856.32741,-110.8587,8.911940097808838
1619090856.34303,-88.79919,8.927560091018677
1619090856.35866,-62.64934,8.943190097808838
1619090856.37428,-35.77911,8.958810091018677
1619090856.38991,-11.11852,8.974440097808838
1619090856.40553,9.507401,8.990060091018677
1619090856.42116,25.66119,9.005690097808838
1619090856.43679,37.82014,9.021320104598999
1619090856.45241,46.83603,9.036940097808838
1619090856.46804,53.45131,9.052570104598999
1619090856.48366,58.06335,9.068190097808838
1619090856.49929,60.91808,9.083820104598999
1619090856.51491,62.26688,9.099440097808838
1619090856.53054,62.52124,9.115070104598999
1619090856.54617,62.20084,9.13070011138916
1619090856.56179,61.80855,9.146320104598999
1619090856.57742,61.58908,9.16195011138916
1619090856.59304,61.47801,9.177570104598999
1619090856.60867,61.22723,9.19320011138916
1619090856.62429,60.60114,9.208820104598999
1619090856.63992,59.63347,9.22445011138916
1619090856.65555,58.59685,9.240080118179321
1619090856.67117,57.85393,9.25570011138916
1619090856.6868,57.58063,9.271330118179321
1619090856.70242,57.57246,9.28695011138916
1619090856.71805,57.24341,9.302580118179321
1619090856.73367,55.90295,9.31820011138916
1619090856.7493,53.08435,9.333830118179321
1619090856.76493,48.76241,9.349460124969482
1619090856.78055,43.31844,9.365080118179321
1619090856.79618,37.3244,9.380710124969482
1619090856.8118,31.24916,9.396330118179321
1619090856.82743,25.31726,9.411960124969482
1619090856.84305,19.51848,9.427580118179321
1619090856.85868,13.70448,9.443210124969482
1619090856.87431,7.713943,9.458840131759644
1619090856.88993,1.457596,9.474460124969482
1619090856.90556,-5.096039,9.490090131759644
1619090856.92118,-11.85373,9.505710124969482
1619090856.93681,-18.61255,9.521340131759644
1619090856.95243,-25.07274,9.536960124969482
1619090856.96806,-30.98264,9.552590131759644
1619090856.98369,-36.2301,9.568220138549805
1619090856.99931,-40.97752,9.583840131759644
1619090857.01494,-45.61391,9.599470138549805
1619090857.03056,-50.65317,9.615090131759644
1619090857.04619,-56.52008,9.630720138549805
1619090857.06181,-63.45862,9.646340131759644
1619090857.07744,-71.46082,9.661970138549805
1619090857.09307,-80.35963,9.677600145339966
1619090857.10869,-89.99396,9.693220138549805
1619090857.12432,-100.3406,9.708850145339966
1619090857.13994,-111.586,9.724470138549805
1619090857.15557,-123.8612,9.740100145339966
1619090857.17119,-136.9298,9.755720138549805
1619090857.18682,-149.6987,9.771350145339966
1619090857.20245,-160.023,9.786980152130127
1619090857.21807,-165.0805,9.802600145339966
1619090857.2337,-162.2019,9.818230152130127
1619090857.24932,-150.0298,9.833850145339966
1619090857.26495,-129.1495,9.849480152130127
1619090857.28058,-102.0874,9.865110158920288
1619090857.2962,-72.37123,9.880730152130127
1619090857.31183,-43.30188,9.896360158920288
1619090857.32745,-17.02797,9.911980152130127
1619090857.34308,5.718414,9.927610158920288
1619090857.3587,25.10422,9.943230152130127
1619090857.37433,41.61954,9.958860158920288
1619090857.38996,55.59135,9.97449016571045
1619090857.40558,67.19765,9.990110158920288
1619090857.42121,76.62265,10.00574016571045
1619090857.43683,84.16058,10.021360158920288
1619090857.45246,90.20392,10.03699016571045
1619090857.46808,95.06807,10.052610158920288
1619090857.48371,98.90059,10.06824016571045
1619090857.49934,101.7682,10.08387017250061
1619090857.51496,103.752,10.09949016571045
1619090857.53059,104.9387,10.11512017250061
1619090857.54621,105.3495,10.13074016571045
1619090857.56184,104.8239,10.14637017250061
1619090857.57746,102.9863,10.16199016571045
1619090857.59309,99.44357,10.17762017250061
1619090857.60872,93.9838,10.193250179290771
1619090857.62434,86.75792,10.20887017250061
1619090857.63997,78.15289,10.224500179290771
1619090857.65559,68.64253,10.24012017250061
1619090857.67122,58.51524,10.255750179290771
1619090857.68684,47.92427,10.27137017250061
1619090857.70247,37.03952,10.287000179290771
1619090857.7181,26.25252,10.302630186080933
1619090857.73372,16.29958,10.318250179290771
1619090857.74935,8.050446,10.333880186080933
1619090857.76497,2.154892,10.349500179290771
1619090857.7806,-1.339111,10.365130186080933
1619090857.79622,-3.161697,10.380750179290771
1619090857.81185,-4.565445,10.396380186080933
1619090857.82748,-6.79184,10.412010192871094
1619090857.8431,-10.37607,10.427630186080933
1619090857.85873,-14.86873,10.443260192871094
1619090857.87435,-18.95316,10.458880186080933
1619090857.88998,-21.17261,10.474510192871094
1619090857.9056,-20.76811,10.490130186080933
1619090857.92123,-18.19408,10.505760192871094
1619090857.93686,-15.04944,10.521390199661255
1619090857.95248,-13.36122,10.537010192871094
1619090857.96811,-14.7209,10.552640199661255
1619090857.98373,-19.63274,10.568260192871094
1619090857.99936,-27.43803,10.583890199661255
1619090858.01498,-36.81902,10.599510192871094
1619090858.03061,-46.46408,10.615140199661255
1619090858.04624,-55.66835,10.630770206451416
1619090858.06186,-64.38057,10.646390199661255
1619090858.07749,-73.00156,10.662020206451416
1619090858.09311,-82.03099,10.677640199661255
1619090858.10874,-91.79927,10.693270206451416
1619090858.12436,-102.437,10.708890199661255
1619090858.13999,-113.8252,10.724520206451416
1619090858.15562,-125.3718,10.740150213241577
1619090858.17124,-135.8733,10.755770206451416
1619090858.18687,-143.4387,10.771400213241577
1619090858.20249,-145.8126,10.787020206451416
1619090858.21812,-141.1753,10.802650213241577
1619090858.23374,-128.9262,10.818270206451416
1619090858.24937,-110.2163,10.833900213241577
1619090858.265,-87.74094,10.849530220031738
1619090858.28062,-64.89796,10.865150213241577
1619090858.29625,-44.57205,10.880780220031738
1619090858.31187,-28.25252,10.896400213241577
1619090858.3275,-15.77646,10.912030220031738
1619090858.34312,-5.706879,10.927650213241577
1619090858.35875,3.693527,10.943280220031738
1619090858.37438,13.69142,10.9589102268219
1619090858.39,24.59709,10.974530220031738
1619090858.40563,35.87497,10.9901602268219
1619090858.42125,46.48003,11.005780220031738
1619090858.43688,55.4417,11.0214102268219
1619090858.4525,62.2012,11.037030220031738
1619090858.46813,66.72771,11.0526602268219
1619090858.48376,69.42557,11.06829023361206
1619090858.49938,70.90973,11.0839102268219
1619090858.51501,71.83369,11.09954023361206
1619090858.53063,72.79329,11.1151602268219
1619090858.54626,74.29187,11.13079023361206
1619090858.56188,76.64795,11.1464102268219
1619090858.57751,79.96811,11.16204023361206
1619090858.59314,84.0208,11.177670001983643
1619090858.60876,88.26563,11.19329023361206
1619090858.62439,91.99648,11.208920001983643
1619090858.64001,94.52301,11.22454023361206
1619090858.65564,95.39153,11.240170001983643
1619090858.67126,94.49197,11.25579023361206
1619090858.68689,92.01624,11.271420001983643
1619090858.70252,88.35576,11.287050008773804
1619090858.71814,83.98108,11.302670001983643
1619090858.73377,79.24477,11.318300008773804
1619090858.74939,74.35315,11.333920001983643
1619090858.76502,69.3309,11.349550008773804
1619090858.78064,64.12071,11.365170001983643
1619090858.79627,58.73094,11.380800008773804
1619090858.8119,53.26463,11.396430015563965
1619090858.82752,47.85823,11.412050008773804
1619090858.84315,42.58315,11.427680015563965
1619090858.85877,37.24043,11.443300008773804
1619090858.8744,31.33842,11.458930015563965
1619090858.89002,24.2021,11.474550008773804
1619090858.90565,15.2402,11.490180015563965
1619090858.92128,4.269882,11.505810022354126
1619090858.9369,-8.338593,11.521430015563965
1619090858.95253,-21.78987,11.537060022354126
1619090858.96815,-35.14078,11.552680015563965
1619090858.98378,-47.64424,11.568310022354126
1619090858.9994,-58.94734,11.583930015563965
1619090859.01503,-69.13368,11.599560022354126
1619090859.03066,-78.51778,11.615190029144287
1619090859.04628,-87.41129,11.630810022354126
1619090859.06191,-95.93594,11.646440029144287
1619090859.07753,-104.0259,11.662060022354126
1619090859.09316,-111.4308,11.677690029144287
1619090859.10878,-117.9105,11.693310022354126
1619090859.12441,-123.439,11.708940029144287
1619090859.14004,-128.3401,11.724570035934448
1619090859.15566,-133.3788,11.740190029144287
1619090859.17129,-139.5657,11.755820035934448
1619090859.18691,-147.8254,11.771440029144287
1619090859.20254,-158.4482,11.787070035934448
1619090859.21816,-170.541,11.802690029144287
1619090859.23379,-181.8407,11.818320035934448
1619090859.24942,-189.095,11.83395004272461
1619090859.26504,-188.9753,11.849570035934448
1619090859.28067,-179.2539,11.86520004272461
1619090859.29629,-159.7193,11.880820035934448
1619090859.31192,-132.3479,11.89645004272461
1619090859.32754,-100.7079,11.912070035934448
1619090859.34317,-68.80161,11.92770004272461
1619090859.3588,-39.86395,11.94333004951477
1619090859.37442,-15.60018,11.95895004272461
1619090859.39005,3.826874,11.97458004951477
1619090859.40567,19.33995,11.99020004272461
1619090859.4213,32.23479,12.00583004951477
1619090859.43692,43.59073,12.02145004272461
1619090859.45255,54.02803,12.03708004951477
1619090859.46818,63.77612,12.052710056304932
1619090859.4838,72.76753,12.06833004951477
1619090859.49943,80.85294,12.083960056304932
1619090859.51505,87.90222,12.09958004951477
1619090859.53068,93.80203,12.115210056304932
1619090859.5463,98.5266,12.13083004951477
1619090859.56193,102.1521,12.146460056304932
1619090859.57756,104.7871,12.162090063095093
1619090859.59318,106.6664,12.177710056304932
1619090859.60881,108.1017,12.193340063095093
1619090859.62443,109.4508,12.208960056304932
1619090859.64006,110.9592,12.224590063095093
1619090859.65568,112.6641,12.240210056304932
1619090859.67131,114.2815,12.255840063095093
1619090859.68694,115.2442,12.271470069885254
1619090859.70256,114.8234,12.287090063095093
1619090859.71819,112.4386,12.302720069885254
1619090859.73381,107.8792,12.318340063095093
1619090859.74944,101.4196,12.333970069885254
1619090859.76506,93.7789,12.349590063095093
1619090859.78069,85.89143,12.365220069885254
1619090859.79632,78.56904,12.380850076675415
1619090859.81194,72.27839,12.396470069885254
1619090859.82757,67.07101,12.412100076675415
1619090859.84319,62.61733,12.427720069885254
1619090859.85882,58.38015,12.443350076675415
1619090859.87445,53.85861,12.458980083465576
1619090859.89007,48.717,12.474600076675415
1619090859.9057,42.87755,12.490230083465576
1619090859.92132,36.58259,12.505850076675415
1619090859.93695,30.23215,12.521480083465576
1619090859.95257,24.26503,12.537100076675415
1619090859.9682,18.94598,12.552730083465576
1619090859.98383,14.18119,12.568360090255737
1619090859.99945,9.45715,12.583980083465576
1619090860.01508,3.987104,12.599610090255737
1619090860.0307,-3.004992,12.615230083465576
1619090860.04633,-11.91754,12.630860090255737
1619090860.06195,-22.43164,12.646480083465576
1619090860.07758,-33.60532,12.662110090255737
1619090860.09321,-44.06915,12.677740097045898
1619090860.10883,-52.59946,12.693360090255737
1619090860.12446,-58.58881,12.708990097045898
1619090860.14008,-62.34292,12.724610090255737
1619090860.15571,-65.076,12.740240097045898
1619090860.17133,-68.51376,12.755860090255737
1619090860.18696,-74.30206,12.771490097045898
1619090860.20259,-83.34354,12.78712010383606
1619090860.21821,-95.3156,12.802740097045898
1619090860.23384,-108.4381,12.81837010383606
1619090860.24946,-119.8666,12.833990097045898
1619090860.26509,-126.3884,12.84962010383606
1619090860.28071,-125.3385,12.865240097045898
1619090860.29634,-115.4843,12.88087010383606
1619090860.31197,-97.414,12.89650011062622
1619090860.32759,-73.45485,12.91212010383606
1619090860.34322,-46.8713,12.92775011062622
1619090860.35884,-20.97061,12.94337010383606
1619090860.37447,1.770359,12.95900011062622
1619090860.39009,20.14314,12.97462010383606
1619090860.40572,34.10824,12.99025011062622
1619090860.42135,44.4141,13.005880117416382
1619090860.43697,51.99773,13.02150011062622
1619090860.4526,57.68317,13.037130117416382
1619090860.46822,61.98332,13.05275011062622
1619090860.48385,65.27621,13.068380117416382
1619090860.49947,67.88907,13.08400011062622
1619090860.5151,70.18008,13.099630117416382
1619090860.53073,72.39027,13.115260124206543
1619090860.54635,74.49727,13.130880117416382
1619090860.56198,76.21444,13.146510124206543
1619090860.5776,77.00744,13.162130117416382
1619090860.59323,76.48232,13.177760124206543
1619090860.60885,74.57336,13.193380117416382
1619090860.62448,71.64095,13.209010124206543
1619090860.64011,68.33678,13.224640130996704
1619090860.65573,65.28549,13.240260124206543
1619090860.67136,62.72567,13.255890130996704
1619090860.68698,60.3874,13.271510124206543
1619090860.70261,57.65936,13.287140130996704
1619090860.71823,53.87886,13.302760124206543
1619090860.73386,48.81007,13.318390130996704
1619090860.74949,42.73014,13.334020137786865
1619090860.76511,36.37119,13.349640130996704
1619090860.78074,30.51729,13.365270137786865
1619090860.79636,25.6481,13.380890130996704
1619090860.81199,21.67426,13.396520137786865
1619090860.82761,18.00192,13.412140130996704
1619090860.84324,13.91678,13.427770137786865
1619090860.85887,8.883114,13.443400144577026
1619090860.87449,2.846909,13.459020137786865
1619090860.89012,-3.770477,13.474650144577026
1619090860.90574,-10.34569,13.490270137786865
1619090860.92137,-16.32737,13.505900144577026
1619090860.93699,-21.56332,13.521520137786865
1619090860.95262,-26.36177,13.537150144577026
1619090860.96825,-31.36662,13.552780151367188
1619090860.98387,-37.30635,13.568400144577026
1619090860.9995,-44.66899,13.584030151367188
1619090861.01512,-53.36031,13.599650144577026
1619090861.03075,-62.64063,13.615280151367188
1619090861.04637,-71.3112,13.630900144577026
1619090861.062,-78.1243,13.646530151367188
1619090861.07763,-82.38591,13.662160158157349
1619090861.09325,-84.34789,13.677780151367188
1619090861.10888,-85.32631,13.693410158157349
1619090861.1245,-87.34602,13.709030151367188
1619090861.14013,-92.42313,13.724660158157349
1619090861.15575,-101.6572,13.740280151367188
1619090861.17138,-114.5322,13.755910158157349
1619090861.18701,-128.7163,13.77154016494751
1619090861.20263,-140.5497,13.787160158157349
1619090861.21826,-146.1253,13.80279016494751
1619090861.23388,-142.5341,13.818410158157349
1619090861.24951,-128.8651,13.83404016494751
1619090861.26513,-106.4738,13.849660158157349
1619090861.28076,-78.49152,13.86529016494751
1619090861.29639,-48.7162,13.880920171737671
1619090861.31201,-20.50513,13.89654016494751
1619090861.32764,3.982002,13.912170171737671
1619090861.34326,23.96486,13.92779016494751
1619090861.35889,39.79391,13.943420171737671
1619090861.37451,52.42808,13.95904016494751
1619090861.39014,62.98254,13.974670171737671
1619090861.40577,72.42109,13.990300178527832
1619090861.42139,81.39616,14.005920171737671
1619090861.43702,90.15226,14.021550178527832
1619090861.45264,98.47159,14.037170171737671
1619090861.46827,105.7758,14.052800178527832
1619090861.48389,111.3151,14.068420171737671
1619090861.49952,114.5004,14.084050178527832
1619090861.51515,115.1018,14.099680185317993
1619090861.53077,113.3737,14.115300178527832
1619090861.5464,109.916,14.130930185317993
1619090861.56202,105.5046,14.146550178527832
1619090861.57765,100.9239,14.162180185317993
1619090861.59327,96.90618,14.177800178527832
1619090861.6089,94.03716,14.193430185317993
1619090861.62453,92.62836,14.209060192108154
1619090861.64015,92.55768,14.224680185317993
1619090861.65578,93.17429,14.240310192108154
1619090861.6714,93.35746,14.255930185317993
1619090861.68703,91.93468,14.271560192108154
1619090861.70265,88.04227,14.287180185317993
1619090861.71828,81.54286,14.302810192108154
1619090861.73391,73.03568,14.318440198898315
1619090861.74953,63.57967,14.334060192108154
1619090861.76516,54.24165,14.349690198898315
1619090861.78078,45.65565,14.365310192108154
1619090861.79641,37.85763,14.380940198898315
1619090861.81203,30.41123,14.396560192108154
1619090861.82766,22.76638,14.412190198898315
1619090861.84329,14.51323,14.427820205688477
1619090861.85891,5.617928,14.443440198898315
1619090861.87454,-3.595154,14.459070205688477
1619090861.89016,-12.56705,14.474690198898315
1619090861.90579,-20.66141,14.490320205688477
1619090861.92141,-27.40931,14.505940198898315
1619090861.93704,-32.61754,14.521570205688477
1619090861.95267,-36.50926,14.537200212478638
1619090861.96829,-39.63326,14.552820205688477
1619090861.98392,-42.74812,14.568450212478638
1619090861.99954,-46.57059,14.584070205688477
1619090862.01517,-51.57651,14.599700212478638
1619090862.03079,-57.87915,14.615320205688477
1619090862.04642,-65.23534,14.630950212478638
1619090862.06205,-73.16051,14.646580219268799
1619090862.07767,-81.10994,14.662200212478638
1619090862.0933,-88.61488,14.677830219268799
1619090862.10892,-95.3957,14.693450212478638
1619090862.12455,-101.3886,14.709080219268799
1619090862.14018,-106.8463,14.72471022605896
1619090862.1558,-112.3491,14.740330219268799
1619090862.17143,-118.7139,14.75596022605896
1619090862.18705,-126.741,14.771580219268799
1619090862.20268,-136.697,14.78721022605896
1619090862.2183,-147.732,14.802830219268799
1619090862.23393,-157.7004,14.81846022605896
1619090862.24956,-163.4764,14.834090232849121
1619090862.26518,-161.8766,14.84971022605896
1619090862.28081,-150.8952,14.865340232849121
1619090862.29643,-130.5977,14.88096022605896
1619090862.31206,-103.3027,14.896590232849121
1619090862.32768,-72.83257,14.91221022605896
1619090862.34331,-43.25233,14.927840232849121
1619090862.35894,-17.5789,14.943470001220703
1619090862.37456,2.931593,14.959090232849121
1619090862.39019,18.6786,14.974720001220703
1619090862.40581,31.11033,14.990340232849121
1619090862.42144,41.82723,15.005970001220703
1619090862.43706,51.93977,15.021590232849121
1619090862.45269,61.88956,15.037220001220703
1619090862.46832,71.5107,15.052850008010864
1619090862.48394,80.32411,15.068470001220703
1619090862.49957,87.79924,15.084100008010864
1619090862.51519,93.51035,15.099720001220703
1619090862.53082,97.31452,15.115350008010864
1619090862.54644,99.3074,15.130970001220703
1619090862.56207,99.83613,15.146600008010864
1619090862.5777,99.38904,15.162230014801025
1619090862.59332,98.54713,15.177850008010864
1619090862.60895,97.81474,15.193480014801025
1619090862.62457,97.57019,15.209100008010864
1619090862.6402,98.01976,15.224730014801025
1619090862.65582,99.1243,15.240350008010864
1619090862.67145,100.6377,15.255980014801025
1619090862.68708,102.0736,15.271610021591187
1619090862.7027,102.7665,15.287230014801025
1619090862.71833,102.035,15.302860021591187
1619090862.73395,99.43582,15.318480014801025
1619090862.74958,94.93018,15.334110021591187
1619090862.7652,88.96216,15.349730014801025
1619090862.78083,82.35117,15.365360021591187
1619090862.79646,75.96843,15.380990028381348
1619090862.81208,70.40645,15.396610021591187
1619090862.82771,65.7801,15.412240028381348
1619090862.84333,61.80856,15.427860021591187
1619090862.85896,57.98851,15.443490028381348
1619090862.87458,53.93978,15.459110021591187
1619090862.89021,49.54444,15.474740028381348
1619090862.90584,44.94628,15.490370035171509
1619090862.92146,40.44587,15.505990028381348
1619090862.93709,36.29723,15.521620035171509
1619090862.95271,32.63716,15.537240028381348
1619090862.96834,29.34645,15.552870035171509
1619090862.98396,26.16644,15.568490028381348
1619090862.99959,22.71836,15.584120035171509
1619090863.01522,18.61873,15.59975004196167
1619090863.03084,13.6189,15.615370035171509
1619090863.04647,7.756456,15.63100004196167
1619090863.06209,1.403097,15.646620035171509
1619090863.07772,-4.830288,15.66225004196167
1619090863.09334,-10.36876,15.677870035171509
1619090863.10897,-14.96489,15.69350004196167
1619090863.1246,-18.85915,15.709130048751831
1619090863.14022,-22.77456,15.72475004196167
1619090863.15585,-27.62825,15.740380048751831
1619090863.17147,-34.1327,15.75600004196167
1619090863.1871,-42.51102,15.771630048751831
1619090863.20272,-52.4233,15.78725004196167
1619090863.21835,-63.15017,15.802880048751831
1619090863.23398,-73.94021,15.818510055541992
1619090863.2496,-84.30553,15.834130048751831
1619090863.26523,-94.22171,15.849760055541992
1619090863.28085,-104.0605,15.865380048751831
1619090863.29648,-114.4112,15.881010055541992
1619090863.3121,-125.7472,15.896630048751831
1619090863.32773,-138.0554,15.912260055541992
1619090863.34336,-150.5372,15.927890062332153
1619090863.35898,-161.5356,15.943510055541992
1619090863.37461,-168.7196,15.959140062332153
1619090863.39023,-169.6712,15.974760055541992
1619090863.40586,-162.6276,15.990390062332153
1619090863.42148,-147.1675,16.006010055541992
1619090863.43711,-124.5407,16.021640062332153
1619090863.45274,-97.43827,16.037270069122314
1619090863.46836,-69.28632,16.052890062332153
1619090863.48399,-43.24394,16.068520069122314
1619090863.49961,-21.33318,16.084140062332153
1619090863.51524,-3.982803,16.099770069122314
1619090863.53086,9.724922,16.115390062332153
1619090863.54649,21.42915,16.131020069122314
1619090863.56212,32.61497,16.146650075912476
1619090863.57774,44.00523,16.162270069122314
1619090863.59337,55.35261,16.177900075912476
1619090863.60899,65.70857,16.193520069122314
1619090863.62462,74.03571,16.209150075912476
1619090863.64024,79.76245,16.224770069122314
1619090863.65587,83.06434,16.240400075912476
1619090863.6715,84.69848,16.256030082702637
1619090863.68712,85.59954,16.271650075912476
1619090863.70275,86.37107,16.287280082702637
1619090863.71837,87.04349,16.302900075912476
1619090863.734,87.19693,16.318530082702637
1619090863.74962,86.24994,16.334150075912476
1619090863.76525,83.80928,16.349780082702637
1619090863.78088,79.89098,16.365410089492798
1619090863.7965,74.82807,16.381030082702637
1619090863.81213,69.02805,16.396660089492798
1619090863.82775,62.79416,16.412280082702637
1619090863.84338,56.19199,16.427910089492798
1619090863.859,49.2148,16.443530082702637
1619090863.87463,41.97661,16.459160089492798
1619090863.89026,34.85872,16.47479009628296
1619090863.90588,28.41803,16.490410089492798
1619090863.92151,23.14684,16.50604009628296
1619090863.93713,19.2477,16.521660089492798
1619090863.95276,16.49521,16.53729009628296
1619090863.96838,14.33958,16.552910089492798
1619090863.98401,12.13419,16.56854009628296
1619090863.99964,9.449265,16.58417010307312
1619090864.01526,6.199066,16.59979009628296
1619090864.03089,2.623718,16.61542010307312
1619090864.04651,-0.8232269,16.63104009628296
1619090864.06214,-3.779984,16.64667010307312
1619090864.07776,-6.080292,16.66229009628296
1619090864.09339,-7.861145,16.67792010307312
1619090864.10902,-9.566681,16.69355010986328
1619090864.12464,-11.85933,16.70917010307312
1619090864.14027,-15.45956,16.72480010986328
1619090864.15589,-20.86586,16.74042010307312
1619090864.17152,-28.09416,16.75605010986328
1619090864.18714,-36.53888,16.77167010307312
1619090864.20277,-45.0685,16.78730010986328
1619090864.2184,-52.4231,16.802930116653442
1619090864.23402,-57.73642,16.81855010986328
1619090864.24965,-60.98492,16.834180116653442
1619090864.26527,-63.1149,16.84980010986328
1619090864.2809,-65.7588,16.865430116653442
1619090864.29653,-70.75156,16.881060123443604
1619090864.31215,-79.47244,16.896680116653442
1619090864.32778,-92.29375,16.912310123443604
1619090864.3434,-108.3232,16.927930116653442
1619090864.35903,-125.372,16.943560123443604
1619090864.37465,-140.3652,16.959180116653442
1619090864.39028,-150.002,16.974810123443604
1619090864.40591,-151.6244,16.990440130233765
1619090864.42153,-144.0017,17.006060123443604
1619090864.43716,-127.7075,17.021690130233765
1619090864.45278,-105.0383,17.037310123443604
1619090864.46841,-79.29057,17.052940130233765
1619090864.48403,-53.88429,17.068560123443604
1619090864.49966,-31.42365,17.084190130233765
1619090864.51529,-13.27325,17.099820137023926
1619090864.53091,0.4806519,17.115440130233765
1619090864.54654,10.7036,17.131070137023926
1619090864.56216,18.70613,17.146690130233765
1619090864.57779,25.78061,17.162320137023926
1619090864.59341,32.84454,17.177940130233765
1619090864.60904,40.28963,17.193570137023926
1619090864.62467,47.91379,17.209200143814087
1619090864.64029,55.1281,17.224820137023926
1619090864.65592,61.18044,17.240450143814087
1619090864.67154,65.5154,17.256070137023926
1619090864.68717,67.96172,17.271700143814087
1619090864.70279,68.80901,17.287320137023926
1619090864.71842,68.66724,17.302950143814087
1619090864.73405,68.21413,17.318580150604248
1619090864.74967,67.98581,17.334200143814087
1619090864.7653,68.19336,17.349830150604248
1619090864.78092,68.80585,17.365450143814087
1619090864.79655,69.59738,17.381080150604248
1619090864.81217,70.27959,17.396700143814087
1619090864.8278,70.61911,17.412330150604248
1619090864.84343,70.36343,17.42796015739441
1619090864.85905,69.39545,17.443580150604248
1619090864.87468,67.65843,17.45921015739441
1619090864.8903,65.25772,17.474830150604248
1619090864.90593,62.44794,17.49046015739441
1619090864.92155,59.57144,17.506080150604248
1619090864.93718,56.96765,17.52171015739441
1619090864.95281,54.80963,17.53734016418457
1619090864.96843,53.01569,17.55296015739441
1619090864.98406,51.23593,17.56859016418457
1619090864.99968,49.01482,17.58421015739441
1619090865.01531,45.9232,17.59984016418457
1619090865.03093,41.6994,17.61546015739441
1619090865.04656,36.30884,17.63109016418457
1619090865.06219,29.94012,17.64672017097473
1619090865.07781,22.95743,17.66234016418457
1619090865.09344,15.78096,17.67797017097473
1619090865.10906,8.860596,17.69359016418457
1619090865.12469,2.456589,17.70922017097473
1619090865.14031,-3.325562,17.72484016418457
1619090865.15594,-8.628342,17.74047017097473
1619090865.17157,-13.77573,17.756100177764893
1619090865.18719,-19.17651,17.77172017097473
1619090865.20282,-25.17982,17.787350177764893
1619090865.21844,-32.01314,17.80297017097473
1619090865.23407,-39.70465,17.818600177764893
1619090865.24969,-48.10739,17.83422017097473
1619090865.26532,-56.96611,17.849850177764893
1619090865.28095,-65.88676,17.865480184555054
1619090865.29657,-74.46179,17.881100177764893
1619090865.3122,-82.40068,17.896730184555054
1619090865.32782,-89.6378,17.912350177764893
1619090865.34345,-96.51552,17.927980184555054
1619090865.35907,-103.7777,17.943600177764893
1619090865.3747,-112.2535,17.959230184555054
1619090865.39033,-122.4274,17.974860191345215
1619090865.40595,-133.8998,17.990480184555054
1619090865.42158,-145.0942,18.006110191345215
1619090865.4372,-153.4966,18.021730184555054
1619090865.45283,-156.3313,18.037360191345215
1619090865.46845,-151.5511,18.052980184555054
1619090865.48408,-138.6535,18.068610191345215
1619090865.49971,-118.9157,18.084240198135376
1619090865.51533,-94.93562,18.099860191345215
1619090865.53096,-69.73186,18.115490198135376
1619090865.54658,-45.80263,18.131110191345215
1619090865.56221,-24.56743,18.146740198135376
1619090865.57783,-6.37706,18.162360191345215
1619090865.59346,9.121521,18.177990198135376
1619090865.60909,22.52705,18.193620204925537
1619090865.62471,34.36774,18.209240198135376
1619090865.64034,44.96994,18.224870204925537
1619090865.65596,54.60417,18.240490198135376
1619090865.67159,63.42876,18.256120204925537
1619090865.68721,71.49747,18.271740198135376
1619090865.70284,78.70367,18.287370204925537
1619090865.71847,84.73479,18.3030002117157
1619090865.73409,89.22929,18.318620204925537
1619090865.74972,91.911,18.3342502117157
1619090865.76534,92.7487,18.349870204925537
1619090865.78097,92.00226,18.3655002117157
1619090865.79659,90.20615,18.381120204925537
1619090865.81222,88.00519,18.3967502117157
1619090865.82785,85.98909,18.41238021850586
1619090865.84347,84.56357,18.4280002117157
1619090865.8591,83.7496,18.44363021850586
1619090865.87472,83.17776,18.4592502117157
1619090865.89035,82.20854,18.47488021850586
1619090865.90597,80.15839,18.4905002117157
1619090865.9216,76.55484,18.50613021850586
1619090865.93723,71.41071,18.52176022529602
1619090865.95285,65.2411,18.53738021850586
1619090865.96848,58.87845,18.55301022529602
1619090865.9841,53.21301,18.56863021850586
1619090865.99973,48.83311,18.58426022529602
1619090866.01535,45.87642,18.59988021850586
1619090866.03098,44.01239,18.61551022529602
1619090866.04661,42.57785,18.63114023208618
1619090866.06223,40.86461,18.64676022529602
1619090866.07786,38.35835,18.66239023208618
1619090866.09348,34.89809,18.67801022529602
1619090866.10911,30.67122,18.69364023208618
1619090866.12473,26.12924,18.70926022529602
1619090866.14036,21.71614,18.72489023208618
1619090866.15599,17.72971,18.740520000457764
1619090866.17161,14.13225,18.75614023208618
1619090866.18724,10.65944,18.771770000457764
1619090866.20286,6.920364,18.78739023208618
1619090866.21849,2.66745,18.803020000457764
1619090866.23411,-2.109329,18.81864023208618
1619090866.24974,-7.191238,18.834270000457764
1619090866.26537,-12.22894,18.849900007247925
1619090866.28099,-17.02676,18.865520000457764
1619090866.29662,-21.57912,18.881150007247925
1619090866.31224,-26.12425,18.896770000457764
1619090866.32787,-31.02043,18.912400007247925
1619090866.34349,-36.56325,18.928020000457764
1619090866.35912,-42.80957,18.943650007247925
1619090866.37475,-49.56105,18.959280014038086
1619090866.39037,-56.42389,18.974900007247925
1619090866.406,-62.90918,18.990530014038086
1619090866.42162,-68.68591,19.006150007247925
1619090866.43725,-73.65277,19.021780014038086
1619090866.45287,-78.01898,19.037400007247925
1619090866.4685,-82.27579,19.053030014038086
1619090866.48413,-87.13945,19.068660020828247
1619090866.49975,-93.38231,19.084280014038086
1619090866.51538,-101.5252,19.099910020828247
1619090866.531,-111.4508,19.115530014038086
1619090866.54663,-122.0964,19.131160020828247
1619090866.56225,-131.4036,19.146780014038086
1619090866.57788,-136.6979,19.162410020828247
1619090866.59351,-135.5112,19.178040027618408
1619090866.60913,-126.4342,19.193660020828247
1619090866.62476,-109.723,19.209290027618408
1619090866.64038,-87.36789,19.224910020828247
1619090866.65601,-62.41695,19.240540027618408
1619090866.67163,-38.04971,19.256160020828247
1619090866.68726,-16.59084,19.271790027618408
1619090866.70289,0.9212799,19.28742003440857
1619090866.71851,14.651,19.303040027618408
1619090866.73414,25.52296,19.31867003440857
1619090866.74976,34.56544,19.334290027618408
1619090866.76539,42.55518,19.34992003440857
1619090866.78101,49.83421,19.365540027618408
1619090866.79664,56.38501,19.38117003440857
1619090866.81227,62.00464,19.39680004119873
1619090866.82789,66.51767,19.41242003440857
1619090866.84352,69.84436,19.42805004119873
1619090866.85914,72.05357,19.44367003440857
1619090866.87477,73.30554,19.45930004119873
1619090866.89039,73.77057,19.47492003440857
1619090866.90602,73.60405,19.49055004119873
1619090866.92165,72.96532,19.50618004798889
1619090866.93727,72.06421,19.52180004119873
1619090866.9529,71.19388,19.53743004798889
1619090866.96852,70.70197,19.55305004119873
1619090866.98415,70.79749,19.56868004798889
1619090866.99978,71.43654,19.584310054779053
1619090867.0154,72.233,19.59993004798889
1619090867.03103,72.58321,19.615560054779053
1619090867.04665,71.87787,19.63118004798889
1619090867.06228,69.76105,19.646810054779053
1619090867.0779,66.26755,19.66243004798889
1619090867.09353,61.77974,19.678060054779053
1619090867.10916,56.80801,19.693690061569214
1619090867.12478,51.82506,19.709310054779053
1619090867.14041,47.12994,19.724940061569214
1619090867.15603,42.85898,19.740560054779053
1619090867.17166,39.01857,19.756190061569214
1619090867.18728,35.55275,19.771810054779053
1619090867.20291,32.35034,19.787440061569214
1619090867.21854,29.16649,19.803070068359375
1619090867.23416,25.75127,19.818690061569214
1619090867.24979,21.88364,19.834320068359375
1619090867.26541,17.5161,19.849940061569214
1619090867.28104,12.84944,19.865570068359375
1619090867.29666,8.245667,19.881190061569214
1619090867.31229,4.034454,19.896820068359375
1619090867.32792,0.3080597,19.912450075149536
1619090867.34354,-3.180511,19.928070068359375
1619090867.35917,-6.96138,19.943700075149536
1619090867.37479,-11.66029,19.959320068359375
1619090867.39042,-17.72183,19.974950075149536
1619090867.40604,-25.2424,19.990570068359375
1619090867.42167,-33.94185,20.006200075149536
1619090867.4373,-43.20888,20.021830081939697
1619090867.45292,-52.32053,20.037450075149536
1619090867.46855,-60.67969,20.053080081939697
1619090867.48417,-68.08778,20.068700075149536
1619090867.4998,-74.86455,20.084330081939697
1619090867.51542,-81.79874,20.099950075149536
1619090867.53105,-89.92146,20.115580081939697
1619090867.54668,-100.0775,20.13121008872986
1619090867.5623,-112.5263,20.146830081939697
1619090867.57793,-126.613,20.16246008872986
1619090867.59355,-140.719,20.178080081939697
1619090867.60918,-152.5378,20.19371008872986
1619090867.6248,-159.5696,20.209330081939697
1619090867.64043,-159.7234,20.22496008872986
1619090867.65606,-151.8911,20.24059009552002
1619090867.67168,-136.3657,20.25621008872986
1619090867.68731,-114.8151,20.27184009552002
1619090867.70293,-89.86763,20.28746008872986
1619090867.71856,-64.46753,20.30309009552002
1619090867.73418,-41.06914,20.31871008872986
1619090867.74981,-21.10016,20.33434009552002
1619090867.76544,-4.798645,20.34997010231018
1619090867.78106,8.457153,20.36559009552002
1619090867.79669,19.64566,20.38122010231018
1619090867.81231,29.5663,20.39684009552002
1619090867.82794,38.52962,20.41247010231018
1619090867.84356,46.42209,20.42809009552002
1619090867.85919,52.91133,20.44372010231018
1619090867.87482,57.74667,20.459350109100342
1619090867.89044,60.95906,20.47497010231018
1619090867.90607,62.92227,20.490600109100342
1619090867.92169,64.25481,20.50622010231018
1619090867.93732,65.66394,20.521850109100342
1619090867.95294,67.70828,20.53747010231018
1619090867.96857,70.6275,20.553100109100342
1619090867.9842,74.12906,20.568730115890503
1619090867.99982,77.44693,20.584350109100342
1619090868.01545,79.5461,20.599980115890503
1619090868.03107,79.4615,20.615600109100342
1619090868.0467,76.6918,20.631230115890503
1619090868.06232,71.3857,20.646850109100342
1619090868.07795,64.31419,20.662480115890503
1619090868.09358,56.56631,20.678110122680664
1619090868.1092,49.1284,20.693730115890503
1619090868.12483,42.59341,20.709360122680664
1619090868.14045,37.05965,20.724980115890503
1619090868.15608,32.35442,20.740610122680664
1619090868.1717,28.27735,20.756230115890503
1619090868.18733,24.83634,20.771860122680664
1619090868.20296,22.22544,20.787490129470825
1619090868.21858,20.63892,20.803110122680664
1619090868.23421,20.07047,20.818740129470825
1619090868.24983,20.17712,20.834360122680664
1619090868.26546,20.43906,20.849990129470825
1619090868.28108,20.32671,20.865610122680664
1619090868.29671,19.50513,20.881240129470825
1619090868.31234,17.91747,20.896870136260986
1619090868.32796,15.74747,20.912490129470825
1619090868.34359,13.16823,20.928120136260986
1619090868.35921,10.23889,20.943740129470825
1619090868.37484,6.867966,20.959370136260986
1619090868.39046,2.938377,20.974990129470825
1619090868.40609,-1.542107,20.990620136260986
1619090868.42172,-6.427193,21.006250143051147
1619090868.43734,-11.48079,21.021870136260986
1619090868.45297,-16.58944,21.037500143051147
1619090868.46859,-21.90151,21.053120136260986
1619090868.48422,-27.78316,21.068750143051147
1619090868.49984,-34.58927,21.084370136260986
1619090868.51547,-42.43082,21.100000143051147
1619090868.5311,-51.00696,21.11563014984131
1619090868.54672,-59.65034,21.131250143051147
1619090868.56235,-67.64581,21.14688014984131
1619090868.57797,-74.57034,21.162500143051147
1619090868.5936,-80.56492,21.17813014984131
1619090868.60922,-86.32449,21.193750143051147
1619090868.62485,-92.89558,21.20938014984131
1619090868.64048,-101.2639,21.22501015663147
1619090868.6561,-111.9122,21.24063014984131
1619090868.67173,-124.4285,21.25626015663147
1619090868.68735,-137.3305,21.27188014984131
1619090868.70298,-148.1844,21.28751015663147
1619090868.7186,-154.1393,21.30313014984131
1619090868.73423,-152.6802,21.31876015663147
1619090868.74986,-142.5073,21.33439016342163
1619090868.76548,-124.0831,21.35001015663147
1619090868.78111,-99.54455,21.36564016342163
1619090868.79673,-72.13678,21.38126015663147
1619090868.81236,-45.23234,21.39689016342163
1619090868.82798,-21.32594,21.41251015663147
1619090868.84361,-1.606606,21.42814016342163
1619090868.85924,14.08724,21.443770170211792
1619090868.87486,26.72222,21.45939016342163
1619090868.89049,37.48825,21.475020170211792
1619090868.90611,47.34391,21.49064016342163
1619090868.92174,56.8277,21.506270170211792
1619090868.93736,66.07291,21.52189016342163
1619090868.95299,74.94377,21.537520170211792
1619090868.96862,83.11499,21.553150177001953
1619090868.98424,90.15929,21.568770170211792
1619090868.99987,95.61333,21.584400177001953
1619090869.01549,99.12627,21.600020170211792
1619090869.03112,100.5629,21.615650177001953
1619090869.04674,100.1462,21.631270170211792
1619090869.06237,98.37247,21.646900177001953
1619090869.078,95.95058,21.662530183792114
1619090869.09362,93.53586,21.678150177001953
1619090869.10925,91.61502,21.693780183792114
1619090869.12487,90.34272,21.709400177001953
1619090869.1405,89.53229,21.725030183792114
1619090869.15613,88.76831,21.740660190582275
1619090869.17175,87.56853,21.756280183792114
1619090869.18738,85.49035,21.771910190582275
1619090869.203,82.30534,21.787530183792114
1619090869.21863,77.99885,21.803160190582275
1619090869.23425,72.74067,21.818780183792114
1619090869.24988,66.85138,21.834410190582275
1619090869.26551,60.76046,21.850040197372437
1619090869.28113,54.8875,21.865660190582275
1619090869.29676,49.58934,21.881290197372437
1619090869.31238,45.002,21.896910190582275
1619090869.32801,41.0043,21.912540197372437
1619090869.34363,37.14437,21.928160190582275
1619090869.35926,32.81798,21.943790197372437
1619090869.37489,27.47823,21.959420204162598
1619090869.39051,20.90853,21.975040197372437
1619090869.40614,13.35658,21.990670204162598
1619090869.42176,5.478104,22.006290197372437
1619090869.43739,-1.890488,22.021920204162598
1619090869.45301,-8.071198,22.037540197372437
1619090869.46864,-12.84702,22.053170204162598
1619090869.48427,-16.53843,22.06880021095276
1619090869.49989,-19.84109,22.084420204162598
1619090869.51552,-23.54424,22.10005021095276
1619090869.53114,-28.19363,22.115670204162598
1619090869.54677,-33.91476,22.13130021095276
1619090869.56239,-40.41367,22.146920204162598
1619090869.57802,-47.17679,22.16255021095276
1619090869.59365,-53.71484,22.17818021774292
1619090869.60927,-59.74418,22.19380021095276
1619090869.6249,-65.26817,22.20943021774292
1619090869.64052,-70.54286,22.22505021095276
1619090869.65615,-76.09731,22.24068021774292
1619090869.67177,-82.66452,22.25630021095276
1619090869.6874,-90.99872,22.27193021774292
1619090869.70303,-101.552,22.28756022453308
1619090869.71865,-113.9829,22.30318021774292
1619090869.73428,-126.8197,22.31881022453308
1619090869.7499,-137.5016,22.33443021774292
1619090869.76553,-142.9636,22.35006022453308
1619090869.78115,-140.6123,22.36568021774292
1619090869.79678,-129.3733,22.38131022453308
1619090869.81241,-110.1823,22.396940231323242
1619090869.82803,-85.73382,22.41256022453308
1619090869.84366,-59.57159,22.428190231323242
1619090869.85928,-34.92143,22.44381022453308
1619090869.87491,-13.81732,22.459440231323242
1619090869.89053,3.189911,22.47506022453308
1619090869.90616,16.73382,22.490690231323242
1619090869.92179,27.97945,22.506319999694824
1619090869.93741,38.00681,22.521940231323242
1619090869.95304,47.47029,22.537569999694824
1619090869.96866,56.52685,22.553190231323242
1619090869.98429,64.9279,22.568819999694824
1619090869.99991,72.2565,22.584440231323242
1619090870.01554,78.08194,22.600069999694824
1619090870.03117,82.12648,22.615700006484985
1619090870.04679,84.32985,22.631319999694824
1619090870.06242,84.8676,22.646950006484985
1619090870.07804,84.11464,22.662569999694824
1619090870.09367,82.56355,22.678200006484985
1619090870.10929,80.78923,22.693819999694824
1619090870.12492,79.28175,22.709450006484985
1619090870.14055,78.44063,22.725080013275146
1619090870.15617,78.48419,22.740700006484985
1619090870.1718,79.31451,22.756330013275146
1619090870.18742,80.57346,22.771950006484985
1619090870.20305,81.6451,22.787580013275146
1619090870.21867,81.87286,22.803200006484985
1619090870.2343,80.70938,22.818830013275146
1619090870.24993,77.92784,22.834460020065308
1619090870.26555,73.57758,22.850080013275146
1619090870.28118,68.05275,22.865710020065308
1619090870.2968,61.82066,22.881330013275146
1619090870.31243,55.30899,22.896960020065308
1619090870.32805,48.80608,22.912580013275146
1619090870.34368,42.35226,22.928210020065308
1619090870.35931,35.83121,22.94384002685547
1619090870.37493,29.00017,22.959460020065308
1619090870.39056,21.59183,22.97509002685547
1619090870.40618,13.38654,22.990710020065308
1619090870.42181,4.346344,23.00634002685547
1619090870.43743,-5.312286,23.021960020065308
1619090870.45306,-15.1825,23.03759002685547
1619090870.46869,-24.70493,23.05322003364563
1619090870.48431,-33.43155,23.06884002685547
1619090870.49994,-41.06042,23.08447003364563
1619090870.51556,-47.54492,23.10009002685547
1619090870.53119,-53.06511,23.11572003364563
1619090870.54681,-58.01331,23.13134002685547
1619090870.56244,-62.93156,23.14697003364563
1619090870.57807,-68.40245,23.16260004043579
1619090870.59369,-74.93738,23.17822003364563
1619090870.60932,-82.62665,23.19385004043579
1619090870.62494,-90.94543,23.20947003364563
1619090870.64057,-98.50789,23.22510004043579
1619090870.65619,-103.2884,23.24072003364563
1619090870.67182,-103.1227,23.25635004043579
1619090870.68745,-96.51294,23.271980047225952
1619090870.70307,-83.2518,23.28760004043579
1619090870.7187,-64.61212,23.303230047225952
1619090870.73432,-43.0079,23.31885004043579
1619090870.74995,-21.19769,23.334480047225952
1619090870.76557,-1.555862,23.35010004043579
1619090870.7812,14.51678,23.365730047225952
1619090870.79683,26.62056,23.381360054016113
1619090870.81245,35.03349,23.396980047225952
1619090870.82808,40.37622,23.412610054016113
1619090870.8437,43.30899,23.428230047225952
1619090870.85933,44.48468,23.443860054016113
1619090870.87495,44.57388,23.459480047225952
1619090870.89058,44.26199,23.475110054016113
1619090870.90621,44.10239,23.490740060806274
1619090870.92183,44.35986,23.506360054016113
1619090870.93746,44.9707,23.521990060806274
1619090870.95308,45.67453,23.537610054016113
1619090870.96871,46.28456,23.553240060806274
1619090870.98433,46.92126,23.568860054016113
1619090870.99996,47.93286,23.584490060806274
1619090871.01559,49.70021,23.600120067596436
1619090871.03121,52.29073,23.615740060806274
1619090871.04684,55.37685,23.631370067596436
1619090871.06246,58.40553,23.646990060806274
1619090871.07809,60.96667,23.662620067596436
1619090871.09371,63.0289,23.678240060806274
1619090871.10934,64.85976,23.693870067596436
1619090871.12497,66.62363,23.709500074386597
1619090871.14059,68.02655,23.725120067596436
1619090871.15622,68.16255,23.740750074386597
1619090871.17184,65.85582,23.756370067596436
1619090871.18747,60.22156,23.772000074386597
1619090871.20309,51.1022,23.787620067596436
1619090871.21872,39.22293,23.803250074386597
1619090871.23435,25.8315,23.818880081176758
1619090871.24997,12.09859,23.834500074386597
1619090871.2656,-1.305252,23.850130081176758
1619090871.28122,-14.33502,23.865750074386597
1619090871.29685,-27.26459,23.881380081176758
1619090871.31247,-40.15088,23.897000074386597
1619090871.3281,-52.48068,23.912630081176758
1619090871.34373,-63.07645,23.92826008796692
1619090871.35935,-70.47688,23.943880081176758
1619090871.37498,-73.52139,23.95951008796692
1619090871.3906,-71.92923,23.975130081176758
1619090871.40623,-66.56833,23.99076008796692
1619090871.42185,-59.18906,24.006380081176758
1619090871.43748,-51.92499,24.02201008796692
1619090871.45311,-46.79771,24.03764009475708
1619090871.46873,-45.52813,24.05326008796692
1619090871.48436,-49.46387,24.06889009475708
1619090871.49998,-59.45341,24.08451008796692
1619090871.51561,-75.39119,24.10014009475708
1619090871.53123,-95.60811,24.11576008796692
1619090871.54686,-116.6144,24.13139009475708
1619090871.56249,-133.5615,24.14702010154724
1619090871.57811,-141.7025,24.16264009475708
1619090871.59374,-137.978,24.17827010154724
1619090871.60936,-122.1301,24.19389009475708
1619090871.62499,-96.63492,24.20952010154724
1619090871.64061,-65.52938,24.22514009475708
1619090871.65624,-32.84676,24.24077010154724
1619090871.67187,-1.49028,24.256400108337402
1619090871.68749,27.14668,24.27202010154724
1619090871.70312,52.84268,24.287650108337402
1619090871.71874,75.86951,24.30327010154724
1619090871.73437,96.68595,24.318900108337402
1619090871.74999,115.7286,24.33452010154724
1619090871.76562,133.4036,24.350150108337402
1619090871.78125,149.916,24.365780115127563
1619090871.79687,165.0307,24.381400108337402
1619090871.8125,177.995,24.397030115127563
1619090871.82812,187.634,24.412650108337402
1619090871.84375,192.8217,24.428280115127563
1619090871.85938,192.8829,24.443910121917725
1619090871.875,188.0068,24.459530115127563
1619090871.89063,179.2994,24.475160121917725
1619090871.90625,168.5264,24.490780115127563
1619090871.92188,157.6678,24.506410121917725
1619090871.9375,148.3625,24.522030115127563
1619090871.95313,141.4219,24.537660121917725
1619090871.96876,136.5424,24.553290128707886
1619090871.98438,132.5036,24.568910121917725
1619090872.00001,127.6452,24.584540128707886
1619090872.01563,120.6193,24.600160121917725
1619090872.03126,110.9158,24.615790128707886
1619090872.04688,98.98566,24.631410121917725
1619090872.06251,86.00103,24.647040128707886
1619090872.07814,73.22315,24.662670135498047
1619090872.09376,61.55853,24.678290128707886
1619090872.10939,51.28585,24.693920135498047
1619090872.12501,42.12491,24.709540128707886
1619090872.14064,33.50881,24.725170135498047
1619090872.15626,24.87971,24.740790128707886
1619090872.17189,15.87472,24.756420135498047
1619090872.18752,6.36462,24.772050142288208
1619090872.20314,-3.491638,24.787670135498047
1619090872.21877,-13.35604,24.803300142288208
1619090872.23439,-22.81039,24.818920135498047
1619090872.25002,-31.53719,24.834550142288208
1619090872.26564,-39.39198,24.850170135498047
1619090872.28127,-46.49131,24.865800142288208
1619090872.2969,-53.11012,24.88143014907837
1619090872.31252,-59.47896,24.897050142288208
1619090872.32815,-65.61473,24.91268014907837
1619090872.34377,-71.22171,24.928300142288208
1619090872.3594,-75.84567,24.94393014907837
1619090872.37502,-79.15564,24.959550142288208
1619090872.39065,-81.23419,24.97518014907837
1619090872.40628,-82.64206,24.99081015586853
1619090872.4219,-84.2003,25.00643014907837
1619090872.43753,-86.56079,25.02206015586853
1619090872.45315,-89.87019,25.03768014907837
1619090872.46878,-93.66951,25.05331015586853
1619090872.4844,-97.15033,25.06893014907837
1619090872.50003,-99.62633,25.08456015586853
1619090872.51566,-100.8669,25.10019016265869
1619090872.53128,-101.2271,25.11581015586853
1619090872.54691,-101.4536,25.13144016265869
1619090872.56253,-102.4616,25.14706015586853
1619090872.57816,-105.014,25.16269016265869
1619090872.59378,-109.6836,25.17831015586853
1619090872.60941,-116.649,25.19394016265869
1619090872.62504,-125.5576,25.209570169448853
1619090872.64066,-135.3083,25.22519016265869
1619090872.65629,-143.9551,25.240820169448853
1619090872.67191,-149.0141,25.25644016265869
1619090872.68754,-148.1104,25.272070169448853
1619090872.70316,-139.8398,25.28769016265869
1619090872.71879,-124.3599,25.303320169448853
1619090872.73442,-103.5128,25.318950176239014
1619090872.75004,-80.21442,25.334570169448853
1619090872.76567,-57.50409,25.350200176239014
1619090872.78129,-37.6532,25.365820169448853
1619090872.79692,-21.67322,25.381450176239014
1619090872.81254,-9.360962,25.397070169448853
1619090872.82817,0.2209473,25.412700176239014
1619090872.8438,8.132568,25.428330183029175
1619090872.85942,15.10889,25.443950176239014
1619090872.87505,21.32211,25.459580183029175
1619090872.89067,26.47632,25.475200176239014
1619090872.9063,30.01013,25.490830183029175
1619090872.92192,31.46857,25.506450176239014
1619090872.93755,30.74631,25.522080183029175
1619090872.95318,28.19241,25.537710189819336
1619090872.9688,24.53296,25.553330183029175
1619090872.98443,20.59055,25.568960189819336
1619090873.00005,17.06064,25.584580183029175
1619090873.01568,14.35794,25.600210189819336
1619090873.0313,12.70618,25.615830183029175
1619090873.04693,12.23047,25.631460189819336
1619090873.06256,13.06302,25.647090196609497
1619090873.07818,15.26404,25.662710189819336
1619090873.09381,18.65176,25.678340196609497
1619090873.10943,22.65494,25.693960189819336
1619090873.12506,26.37314,25.709590196609497
1619090873.14068,28.88809,25.725210189819336
1619090873.15631,29.65958,25.740840196609497
1619090873.17194,28.83612,25.756470203399658
1619090873.18756,27.21133,25.772090196609497
1619090873.20319,25.89548,25.787720203399658
1619090873.21881,25.78705,25.803340196609497
1619090873.23444,27.17047,25.818970203399658
1619090873.25006,29.63898,25.834590196609497
1619090873.26569,32.36163,25.850220203399658
1619090873.28132,34.53378,25.86585021018982
1619090873.29694,35.75473,25.881470203399658
1619090873.31257,36.17691,25.89710021018982
1619090873.32819,36.34399,25.912720203399658
1619090873.34382,36.88184,25.92835021018982
1619090873.35944,38.14456,25.943970203399658
1619090873.37507,40.07715,25.95960021018982
1619090873.3907,42.2854,25.97523021697998
1619090873.40632,44.29272,25.99085021018982
1619090873.42195,45.76196,26.00648021697998
1619090873.43757,46.60974,26.02210021018982
1619090873.4532,46.9118,26.03773021697998
1619090873.46882,46.68311,26.05335021018982
1619090873.48445,45.70749,26.06898021697998
1619090873.50008,43.47592,26.08461022377014
1619090873.5157,39.29404,26.10023021697998
1619090873.53133,32.57156,26.11586022377014
1619090873.54695,23.12137,26.13148021697998
1619090873.56258,11.33551,26.14711022377014
1619090873.5782,-1.882935,26.16273021697998
1619090873.59383,-15.34476,26.17836022377014
1619090873.60946,-27.91092,26.193990230560303
1619090873.62508,-38.8298,26.20961022377014
1619090873.64071,-48.00769,26.225240230560303
1619090873.65633,-56.03992,26.24086022377014
1619090873.67196,-64.05466,26.256490230560303
1619090873.68758,-73.32401,26.27211022377014
1619090873.70321,-84.65015,26.287740230560303
1619090873.71884,-97.79053,26.303369998931885
1619090873.73446,-111.2004,26.318990230560303
1619090873.75009,-122.1917,26.334619998931885
1619090873.76571,-127.7266,26.350240230560303
1619090873.78134,-125.4253,26.365869998931885
1619090873.79696,-114.5221,26.381490230560303
1619090873.81259,-96.25864,26.397119998931885
1619090873.82822,-73.66516,26.412750005722046
1619090873.84384,-50.85461,26.428369998931885
1619090873.85947,-32.08331,26.444000005722046
1619090873.87509,-20.70499,26.459619998931885
1619090873.89072,-18.35327,26.475250005722046
1619090873.90634,-24.45419,26.490869998931885
1619090873.92197,-36.31247,26.506500005722046
1619090873.9376,-49.83255,26.522130012512207
1619090873.95322,-60.74194,26.537750005722046
1619090873.96885,-65.97223,26.553380012512207
1619090873.98447,-64.55023,26.569000005722046
1619090874.0001,-57.66647,26.584630012512207
1619090874.01572,-47.77521,26.600250005722046
1619090874.03135,-37.40164,26.615880012512207
1619090874.04698,-28.14227,26.631510019302368
1619090874.0626,-20.35425,26.647130012512207
1619090874.07823,-13.63315,26.662760019302368
1619090874.09385,-7.456238,26.678380012512207
1619090874.10948,-1.64502,26.694010019302368
1619090874.12511,3.71814,26.70964002609253
1619090874.14073,8.585236,26.725260019302368
1619090874.15636,13.34009,26.74089002609253
1619090874.17198,18.64346,26.756510019302368
1619090874.18761,25.07996,26.77214002609253
1619090874.20323,32.69116,26.787760019302368
1619090874.21886,40.80103,26.80339002609253
1619090874.23449,48.20554,26.81902003288269
1619090874.25011,53.66788,26.83464002609253
1619090874.26574,56.43454,26.85027003288269
1619090874.28136,56.47424,26.86589002609253
1619090874.29699,54.46515,26.88152003288269
1619090874.31261,51.52814,26.89714002609253
1619090874.32824,48.99026,26.91277003288269
1619090874.34387,48.20987,26.92840003967285
1619090874.35949,50.34357,26.94402003288269
1619090874.37512,56.18503,26.95965003967285
1619090874.39074,65.91428,26.97527003288269
1619090874.40637,78.90286,26.99090003967285
1619090874.42199,93.75269,27.00652003288269
1619090874.43762,108.5921,27.02215003967285
1619090874.45325,121.5332,27.037780046463013
1619090874.46887,131.1358,27.05340003967285
1619090874.4845,136.6633,27.069030046463013
1619090874.50012,138.0334,27.08465003967285
1619090874.51575,135.6429,27.100280046463013
1619090874.53137,130.0822,27.11590003967285
1619090874.547,122.0014,27.131530046463013
1619090874.56263,112.0344,27.147160053253174
1619090874.57825,100.8566,27.162780046463013
1619090874.59388,89.10083,27.178410053253174
1619090874.6095,77.27701,27.194030046463013
1619090874.62513,65.68665,27.209660053253174
1619090874.64075,54.35577,27.225280046463013
1619090874.65638,43.12875,27.240910053253174
1619090874.67201,31.74805,27.256540060043335
1619090874.68763,20.04892,27.272160053253174
1619090874.70326,8.007904,27.287790060043335
1619090874.71888,-4.24292,27.303410053253174
1619090874.73451,-16.45435,27.319040060043335
1619090874.75013,-28.33502,27.334660053253174
1619090874.76576,-39.55557,27.350290060043335
1619090874.78139,-49.79272,27.365920066833496
1619090874.79701,-58.87326,27.381540060043335
1619090874.81264,-66.89993,27.397170066833496
1619090874.82826,-74.40015,27.412790060043335
1619090874.84389,-82.14893,27.428420066833496
1619090874.85951,-90.72772,27.444040060043335
1619090874.87514,-99.84045,27.459670066833496
1619090874.89077,-107.6809,27.475300073623657
1619090874.90639,-110.859,27.490920066833496
1619090874.92202,-105.0811,27.506550073623657
1619090874.93764,-86.49457,27.522170066833496
1619090874.95327,-53.0498,27.537800073623657
1619090874.96889,-5.407532,27.553420066833496
1619090874.98452,53.02917,27.569050073623657
1619090875.00015,116.7672,27.58468008041382
1619090875.01577,179.2355,27.600300073623657
1619090875.0314,233.6815,27.61593008041382
1619090875.04702,274.1042,27.631550073623657
1619090875.06265,296.1048,27.64718008041382
1619090875.07827,298.0208,27.662800073623657
1619090875.0939,281.934,27.67843008041382
1619090875.10953,253.8947,27.69406008720398
1619090875.12515,222.827,27.70968008041382
1619090875.14078,198.2487,27.72531008720398
1619090875.1564,187.3152,27.74093008041382
1619090875.17203,192.7214,27.75656008720398
1619090875.18765,212.1901,27.77218008041382
1619090875.20328,239.8044,27.78781008720398
1619090875.21891,268.5088,27.80344009399414
1619090875.23453,292.4505,27.81906008720398
1619090875.25016,308.2408,27.83469009399414
1619090875.26578,314.7538,27.85031008720398
1619090875.28141,312.2579,27.86594009399414
1619090875.29703,301.3495,27.88156008720398
1619090875.31266,282.5125,27.89719009399414
1619090875.32829,256.2911,27.9128201007843
1619090875.34391,223.6974,27.92844009399414
1619090875.35954,186.4388,27.9440701007843
1619090875.37516,146.5754,27.95969009399414
1619090875.39079,105.947,27.9753201007843
1619090875.40641,65.49646,27.99094009399414
1619090875.42204,25.00598,28.0065701007843
1619090875.43767,-16.59119,28.022200107574463
1619090875.45329,-60.66394,28.0378201007843
1619090875.46892,-108.2957,28.053450107574463
1619090875.48454,-160.0117,28.0690701007843
1619090875.50017,-215.5691,28.084700107574463
1619090875.51579,-273.7723,28.1003201007843
1619090875.53142,-332.2124,28.115950107574463
1619090875.54705,-387.2341,28.131580114364624
1619090875.56267,-434.3838,28.147200107574463
1619090875.5783,-469.4075,28.162830114364624
1619090875.59392,-489.5975,28.178450107574463
1619090875.60955,-494.7183,28.194080114364624
1619090875.62517,-487.2041,28.209700107574463
1619090875.6408,-471.2777,28.225330114364624
1619090875.65643,-451.5742,28.240960121154785
1619090875.67205,-431.7628,28.256580114364624
1619090875.68768,-413.9044,28.272210121154785
1619090875.7033,-398.4967,28.287830114364624
1619090875.71893,-385.1179,28.303460121154785
1619090875.73455,-373.0465,28.319080114364624
1619090875.75018,-361.6637,28.334710121154785
1619090875.76581,-350.4948,28.350340127944946
1619090875.78143,-339.1501,28.365960121154785
1619090875.79706,-327.2939,28.381590127944946
1619090875.81268,-314.745,28.397210121154785
1619090875.82831,-301.5863,28.412840127944946
1619090875.84393,-288.1567,28.428460121154785
1619090875.85956,-275.0077,28.444090127944946
1619090875.87519,-262.8529,28.459720134735107
1619090875.89081,-252.3019,28.475340127944946
1619090875.90644,-243.6927,28.490970134735107
1619090875.92206,-236.9772,28.506590127944946
1619090875.93769,-231.7644,28.522220134735107
1619090875.95331,-227.59,28.537840127944946
1619090875.96894,-224.2405,28.553470134735107
1619090875.98457,-221.7908,28.56910014152527
1619090876.00019,-220.3942,28.584720134735107
1619090876.01582,-219.7931,28.60035014152527
1619090876.03144,-218.7969,28.615970134735107
1619090876.04707,-215.2834,28.63160014152527
1619090876.06269,-206.684,28.647220134735107
1619090876.07832,-190.7944,28.66285014152527
1619090876.09395,-166.6234,28.67848014831543
1619090876.10957,-134.7559,28.69410014152527
1619090876.1252,-97.24182,28.70973014831543
1619090876.14082,-57.06531,28.72535014152527
1619090876.15645,-17.50818,28.74098014831543
1619090876.17207,18.40796,28.75660014152527
1619090876.1877,48.34161,28.77223014831543
1619090876.20333,70.98621,28.78786015510559
1619090876.21895,86.22424,28.80348014831543
1619090876.23458,95.1109,28.81911015510559
1619090876.2502,99.46021,28.83473014831543
1619090876.26583,101.3206,28.85036015510559
1619090876.28146,102.2593,28.865990161895752
1619090876.29708,103.0484,28.88161015510559
1619090876.31271,103.7174,28.897240161895752
1619090876.32833,104.0031,28.91286015510559
1619090876.34396,103.8478,28.928490161895752
1619090876.35958,103.6019,28.94411015510559
1619090876.37521,103.9255,28.959740161895752
1619090876.39084,105.4446,28.975370168685913
1619090876.40646,108.491,28.990990161895752
1619090876.42209,112.8875,29.006620168685913
1619090876.43771,118.0971,29.022240161895752
1619090876.45334,123.3847,29.037870168685913
1619090876.46896,128.0432,29.053490161895752
1619090876.48459,131.5244,29.069120168685913
1619090876.50022,133.5379,29.084750175476074
1619090876.51584,134.0608,29.100370168685913
1619090876.53147,133.3102,29.116000175476074
1619090876.54709,131.664,29.131620168685913
1619090876.56272,129.5324,29.147250175476074
1619090876.57834,127.2664,29.162870168685913
1619090876.59397,125.073,29.178500175476074
1619090876.6096,123.0203,29.194130182266235
1619090876.62522,121.0718,29.209750175476074
1619090876.64085,119.0846,29.225380182266235
1619090876.65647,116.9317,29.241000175476074
1619090876.6721,114.3958,29.256630182266235
1619090876.68772,111.268,29.272250175476074
1619090876.70335,107.3409,29.287880182266235
1619090876.71898,102.5386,29.303510189056396
1619090876.7346,96.97614,29.319130182266235
1619090876.75023,90.93277,29.334760189056396
1619090876.76585,84.73917,29.350380182266235
1619090876.78148,78.54715,29.366010189056396
1619090876.7971,72.29877,29.381630182266235
1619090876.81273,65.66583,29.397260189056396
1619090876.82836,58.33728,29.412890195846558
1619090876.84398,50.2352,29.428510189056396
1619090876.85961,41.66177,29.444140195846558
1619090876.87523,33.22694,29.459760189056396
1619090876.89086,25.55389,29.475390195846558
1619090876.90648,18.97621,29.491010189056396
1619090876.92211,13.30618,29.506640195846558
1619090876.93774,7.930374,29.52227020263672
1619090876.95336,2.043411,29.537890195846558
1619090876.96899,-4.968369,29.55352020263672
1619090876.98461,-13.27722,29.569140195846558
1619090877.00024,-22.59209,29.58477020263672
1619090877.01586,-32.31718,29.600390195846558
1619090877.03149,-41.7826,29.61602020263672
1619090877.04712,-50.50385,29.63165020942688
1619090877.06274,-58.33963,29.64727020263672
1619090877.07837,-65.53812,29.66290020942688
1619090877.09399,-72.79705,29.67852020263672
1619090877.10962,-81.14153,29.69415020942688
1619090877.12524,-91.63091,29.70977020263672
1619090877.14087,-104.8419,29.72540020942688
1619090877.1565,-120.2678,29.74103021621704
1619090877.17212,-135.9447,29.75665020942688
1619090877.18775,-148.6605,29.77228021621704
1619090877.20337,-154.714,29.78790020942688
1619090877.219,-151.1479,29.80353021621704
1619090877.23462,-136.843,29.81915020942688
1619090877.25025,-113.007,29.83478021621704
1619090877.26588,-82.79848,29.850410223007202
1619090877.2815,-50.30461,29.86603021621704
1619090877.29713,-19.29308,29.881660223007202
1619090877.31275,7.683258,29.89728021621704
1619090877.32838,29.61673,29.912910223007202
1619090877.344,46.75706,29.92853021621704
1619090877.35963,60.07101,29.944160223007202
1619090877.37526,70.7007,29.959790229797363
1619090877.39088,79.53679,29.975410223007202
1619090877.40651,87.16508,29.991040229797363
1619090877.42213,93.79311,30.006660223007202
1619090877.43776,99.40016,30.022290229797363
1619090877.45338,103.895,30.037910223007202
1619090877.46901,107.1666,30.053540229797363
1619090877.48464,109.2477,30.069169998168945
1619090877.50026,110.2678,30.084790229797363
1619090877.51589,110.4406,30.100419998168945
1619090877.53151,110.0425,30.116040229797363
1619090877.54714,109.4354,30.131669998168945
1619090877.56276,109.0534,30.147290229797363
1619090877.57839,109.3248,30.162919998168945
1619090877.59402,110.5503,30.178550004959106
1619090877.60964,112.6718,30.194169998168945
1619090877.62527,115.2226,30.209800004959106
1619090877.64089,117.4122,30.225419998168945
1619090877.65652,118.3744,30.241050004959106
1619090877.67214,117.5239,30.256669998168945
1619090877.68777,114.7433,30.272300004959106
1619090877.7034,110.3872,30.287930011749268
1619090877.71902,105.1076,30.303550004959106
1619090877.73465,99.54175,30.319180011749268
1619090877.75027,94.0907,30.334800004959106
1619090877.7659,88.923,30.350430011749268
1619090877.78152,83.99948,30.366050004959106
1619090877.79715,79.22665,30.381680011749268
1619090877.81278,74.556,30.39731001853943
1619090877.8284,70.00452,30.412930011749268
1619090877.84403,65.6347,30.42856001853943
1619090877.85965,61.45053,30.444180011749268
1619090877.87528,57.36841,30.45981001853943
1619090877.8909,53.12866,30.475430011749268
1619090877.90653,48.41971,30.49106001853943
1619090877.92216,42.95276,30.50669002532959
1619090877.93778,36.59518,30.52231001853943
1619090877.95341,29.45374,30.53794002532959
1619090877.96903,21.86523,30.55356001853943
1619090877.98466,14.28781,30.56919002532959
1619090878.00028,7.126709,30.58481001853943
1619090878.01591,0.5882263,30.60044002532959
1619090878.03154,-5.371338,30.61607003211975
1619090878.04716,-10.95432,30.63169002532959
1619090878.06279,-16.42154,30.64732003211975
1619090878.07841,-21.95837,30.66294002532959
1619090878.09404,-27.63617,30.67857003211975
1619090878.10966,-33.42139,30.69419002532959
1619090878.12529,-39.22073,30.70982003211975
1619090878.14092,-44.95276,30.725450038909912
1619090878.15654,-50.60739,30.74107003211975
1619090878.17217,-56.30829,30.756700038909912
1619090878.18779,-62.34506,30.77232003211975
1619090878.20342,-69.21002,30.787950038909912
1619090878.21904,-77.48224,30.80357003211975
1619090878.23467,-87.49481,30.819200038909912
1619090878.2503,-98.94046,30.834830045700073
1619090878.26592,-110.5485,30.850450038909912
1619090878.28155,-120.1069,30.866080045700073
1619090878.29717,-124.8479,30.881700038909912
1619090878.3128,-122.3089,30.897330045700073
1619090878.32842,-111.1642,30.912950038909912
1619090878.34405,-91.75766,30.928580045700073
1619090878.35968,-66.09479,30.944210052490234
1619090878.3753,-37.27798,30.959830045700073
1619090878.39093,-8.650146,30.975460052490234
1619090878.40655,16.98944,30.991080045700073
1619090878.42218,37.89783,31.006710052490234
1619090878.4378,53.51672,31.022330045700073
1619090878.45343,64.22095,31.037960052490234
1619090878.46906,70.94257,31.053590059280396
1619090878.48468,74.8501,31.069210052490234
1619090878.50031,76.987,31.084840059280396
1619090878.51593,78.09473,31.100460052490234
1619090878.53156,78.51563,31.116090059280396
1619090878.54718,78.29443,31.131710052490234
1619090878.56281,77.36084,31.147340059280396
1619090878.57844,75.70825,31.162970066070557
1619090878.59406,73.534,31.178590059280396
1619090878.60969,71.17255,31.194220066070557
1619090878.62531,69.02625,31.209840059280396
1619090878.64094,67.40686,31.225470066070557
1619090878.65656,66.50165,31.241090059280396
1619090878.67219,66.40363,31.256720066070557
1619090878.68782,67.08984,31.272350072860718
1619090878.70344,68.46234,31.287970066070557
1619090878.71907,70.28693,31.303600072860718
1619090878.73469,72.12134,31.319220066070557
1619090878.75032,73.37238,31.334850072860718
1619090878.76594,73.4613,31.350470066070557
1619090878.78157,71.98334,31.366100072860718
1619090878.7972,68.91675,31.38173007965088
1619090878.81282,64.63446,31.397350072860718
1619090878.82845,59.7475,31.41298007965088
1619090878.84407,54.8623,31.428600072860718
1619090878.8597,50.40674,31.44423007965088
1619090878.87532,46.44525,31.459850072860718
1619090878.89095,42.72235,31.47548007965088
1619090878.90658,38.71381,31.49111008644104
1619090878.9222,33.86444,31.50673007965088
1619090878.93783,27.82709,31.52236008644104
1619090878.95345,20.60962,31.53798007965088
1619090878.96908,12.69958,31.55361008644104
1619090878.98471,4.859558,31.5692400932312
1619090879.00033,-2.162231,31.58486008644104
1619090879.01596,-7.959412,31.6004900932312
1619090879.03158,-12.72217,31.61611008644104
1619090879.04721,-17.17523,31.6317400932312
1619090879.06283,-22.28656,31.64736008644104
1619090879.07846,-28.85162,31.6629900932312
1619090879.09409,-37.1037,31.678620100021362
1619090879.10971,-46.63196,31.6942400932312
1619090879.12534,-56.53345,31.709870100021362
1619090879.14096,-65.77618,31.7254900932312
1619090879.15659,-73.61774,31.741120100021362
1619090879.17221,-79.8587,31.7567400932312
1619090879.18784,-84.93286,31.772370100021362
1619090879.20347,-89.8158,31.788000106811523
1619090879.21909,-95.77417,31.803620100021362
1619090879.23472,-103.9346,31.819250106811523
1619090879.25034,-114.7296,31.834870100021362
1619090879.26597,-127.4628,31.850500106811523
1619090879.28159,-140.0905,31.866120100021362
1619090879.29722,-149.5277,31.881750106811523
1619090879.31285,-152.4552,31.897380113601685
1619090879.32847,-146.3923,31.913000106811523
1619090879.3441,-130.6365,31.928630113601685
1619090879.35972,-106.6544,31.944250106811523
1619090879.37535,-77.65833,31.959880113601685
1619090879.39097,-47.64142,31.975500106811523
1619090879.4066,-20.14087,31.991130113601685
1619090879.42223,2.661926,32.006760120391846
1619090879.43785,20.22491,32.022380113601685
1619090879.45348,33.27539,32.038010120391846
1619090879.4691,43.19867,32.053630113601685
1619090879.48473,51.38977,32.069260120391846
1619090879.50035,58.83582,32.084880113601685
1619090879.51598,66.04846,32.100510120391846
1619090879.53161,73.10339,32.11614012718201
1619090879.54723,79.76715,32.131760120391846
1619090879.56286,85.60468,32.14739012718201
1619090879.57848,90.10089,32.163010120391846
1619090879.59411,92.83545,32.17864012718201
1619090879.60973,93.63025,32.194260120391846
1619090879.62536,92.67432,32.20989012718201
1619090879.64099,90.54865,32.22552013397217
1619090879.65661,88.07776,32.24114012718201
1619090879.67224,86.12463,32.25677013397217
1619090879.68786,85.31763,32.27239012718201
1619090879.70349,85.89221,32.28802013397217
1619090879.71911,87.54846,32.30364012718201
1619090879.73474,89.54327,32.31927013397217
1619090879.75037,90.89886,32.33490014076233
1619090879.76599,90.72327,32.35052013397217
1619090879.78162,88.49408,32.36615014076233
1619090879.79724,84.26501,32.38177013397217
1619090879.81287,78.62738,32.39740014076233
1619090879.82849,72.46716,32.41302013397217
1619090879.84412,66.67181,32.42865014076233
1619090879.85975,61.79187,32.44428014755249
1619090879.87537,57.93738,32.45990014076233
1619090879.891,54.82379,32.47553014755249
1619090879.90662,51.8902,32.49115014076233
1619090879.92225,48.57269,32.50678014755249
1619090879.93787,44.4762,32.52240014076233
1619090879.9535,39.52881,32.53803014755249
1619090879.96913,34.01013,32.55366015434265
1619090879.98475,28.42468,32.56928014755249
1619090880.00038,23.24957,32.58491015434265
1619090880.016,18.73987,32.60053014755249
1619090880.03163,14.8092,32.61616015434265
1619090880.04725,11.07977,32.63178014755249
1619090880.06288,7.098022,32.64741015434265
1619090880.07851,2.561035,32.66304016113281
1619090880.09413,-2.504272,32.67866015434265
1619090880.10976,-7.800964,32.69429016113281
1619090880.12538,-12.96893,32.70991015434265
1619090880.14101,-17.77783,32.72554016113281
1619090880.15663,-22.29285,32.74116015434265
1619090880.17226,-26.82257,32.75679016113281
1619090880.18789,-31.78955,32.772420167922974
1619090880.20351,-37.48083,32.78804016113281
1619090880.21914,-43.9577,32.803670167922974
1619090880.23476,-50.98187,32.81929016113281
1619090880.25039,-58.14008,32.834920167922974
1619090880.26601,-64.9845,32.85054016113281
1619090880.28164,-71.2381,32.866170167922974
1619090880.29727,-76.91357,32.881800174713135
1619090880.31289,-82.31671,32.897420167922974
1619090880.32852,-88.07056,32.913050174713135
1619090880.34414,-94.96094,32.928670167922974
1619090880.35977,-103.6584,32.944300174713135
1619090880.37539,-114.3591,32.959920167922974
1619090880.39102,-126.3364,32.975550174713135
1619090880.40665,-137.7739,32.991180181503296
1619090880.42227,-145.908,33.006800174713135
1619090880.4379,-147.7896,33.022430181503296
1619090880.45352,-141.2722,33.038050174713135
1619090880.46915,-125.8666,33.053680181503296
1619090880.48477,-103.0385,33.069300174713135
1619090880.5004,-75.82245,33.084930181503296
1619090880.51603,-47.85669,33.10056018829346
1619090880.53165,-22.29279,33.116180181503296
1619090880.54728,-1.035156,33.13181018829346
1619090880.5629,15.42609,33.147430181503296
1619090880.57853,27.6593,33.16306018829346
1619090880.59415,36.75592,33.178680181503296
1619090880.60978,43.83569,33.19431018829346
1619090880.62541,49.75415,33.20994019508362
1619090880.64103,55.03891,33.22556018829346
1619090880.65666,59.89844,33.24119019508362
1619090880.67228,64.33197,33.25681018829346
1619090880.68791,68.1618,33.27244019508362
1619090880.70353,71.12793,33.28806018829346
1619090880.71916,73.01733,33.30369019508362
1619090880.73479,73.716,33.31932020187378
1619090880.75041,73.29333,33.33494019508362
1619090880.76604,72.05615,33.35057020187378
1619090880.78166,70.45535,33.36619019508362
1619090880.79729,69.01697,33.38182020187378
1619090880.81291,68.21548,33.39744019508362
1619090880.82854,68.34161,33.41307020187378
1619090880.84417,69.36688,33.42870020866394
1619090880.85979,70.93771,33.44432020187378
1619090880.87542,72.44669,33.45995020866394
1619090880.89104,73.23257,33.47557020187378
1619090880.90667,72.75455,33.49120020866394
1619090880.92229,70.79587,33.50682020187378
1619090880.93792,67.52716,33.52245020866394
1619090880.95355,63.40576,33.5380802154541
1619090880.96917,58.99667,33.55370020866394
1619090880.9848,54.7981,33.5693302154541
1619090881.00042,51.0697,33.58495020866394
1619090881.01605,47.78708,33.6005802154541
1619090881.03167,44.70685,33.61620020866394
1619090881.0473,41.49533,33.6318302154541
1619090881.06293,37.91119,33.64746022224426
1619090881.07855,33.93097,33.6630802154541
1619090881.09418,29.75638,33.67871022224426
1619090881.1098,25.73911,33.6943302154541
1619090881.12543,22.21353,33.70996022224426
1619090881.14106,19.35571,33.725590229034424
1619090881.15668,17.08029,33.74121022224426
1619090881.17231,15.11157,33.756840229034424
1619090881.18793,13.06873,33.77246022224426
1619090881.20356,10.63651,33.788090229034424
1619090881.21918,7.676086,33.80371022224426
1619090881.23481,4.259186,33.819340229034424
1619090881.25044,0.6056519,33.834969997406006
1619090881.26606,-2.969574,33.850590229034424
1619090881.28169,-6.146729,33.866219997406006
1619090881.29731,-8.643982,33.881840229034424
1619090881.31294,-10.29742,33.897469997406006
1619090881.32856,-11.04398,33.913090229034424
1619090881.34419,-10.99277,33.928719997406006
1619090881.35982,-10.44598,33.94435000419617
1619090881.37544,-9.798279,33.959969997406006
1619090881.39107,-9.362,33.97560000419617
1619090881.40669,-9.035828,33.991219997406006
1619090881.42232,-8.223175,34.00685000419617
1619090881.43794,-5.905029,34.022469997406006
1619090881.45357,-1.072388,34.03810000419617
1619090881.4692,6.843781,34.05373001098633
1619090881.48482,17.68445,34.06935000419617
1619090881.50045,30.75836,34.08498001098633
1619090881.51607,45.33752,34.10060000419617
1619090881.5317,61.14688,34.11623001098633
1619090881.54732,78.60254,34.13185000419617
1619090881.56295,98.58339,34.14748001098633
1619090881.57858,121.8302,34.16311001777649
1619090881.5942,148.417,34.17873001098633
1619090881.60983,177.5583,34.19436001777649
1619090881.62545,207.7598,34.20998001098633
1619090881.64108,237.1944,34.22561001777649
1619090881.6567,263.9689,34.24123001098633
1619090881.67233,286.2044,34.25686001777649
1619090881.68796,302.0823,34.27249002456665
1619090881.70358,310.0283,34.28811001777649
1619090881.71921,309.0961,34.30374002456665
1619090881.73483,299.3693,34.31936001777649
1619090881.75046,282.1059,34.33499002456665
1619090881.76608,259.4733,34.35061001777649
1619090881.78171,233.8412,34.36624002456665
1619090881.79734,207.0829,34.38187003135681
1619090881.81296,180.1741,34.39749002456665
1619090881.82859,153.3414,34.41312003135681
1619090881.84421,126.5903,34.42874002456665
1619090881.85984,100.3392,34.44437003135681
1619090881.87546,75.67441,34.45999002456665
1619090881.89109,54.14191,34.47562003135681
1619090881.90672,37.06638,34.49125003814697
1619090881.92234,24.95418,34.50687003135681
1619090881.93797,17.28055,34.52250003814697
1619090881.95359,12.86276,34.53812003135681
1619090881.96922,10.52469,34.55375003814697
1619090881.98484,9.699646,34.56937003135681
1619090882.00047,10.495,34.58500003814697
1619090882.0161,13.12885,34.600630044937134
1619090882.03172,17.19116,34.61625003814697
1619090882.04735,21.19067,34.631880044937134
1619090882.06297,22.95938,34.64750003814697
1619090882.0786,20.62027,34.663130044937134
1619090882.09422,13.68448,34.67875003814697
1619090882.10985,3.463257,34.694380044937134
1619090882.12548,-7.430176,34.710010051727295
1619090882.1411,-16.35028,34.725630044937134
1619090882.15673,-21.83954,34.741260051727295
1619090882.17235,-24.19977,34.756880044937134
1619090882.18798,-25.06427,34.772510051727295
1619090882.2036,-26.46753,34.788130044937134
1619090882.21923,-29.83044,34.803760051727295
1619090882.23486,-35.66821,34.819390058517456
1619090882.25048,-43.95923,34.835010051727295
1619090882.26611,-54.73218,34.850640058517456
1619090882.28173,-68.40802,34.866260051727295
1619090882.29736,-85.56836,34.881890058517456
1619090882.31298,-106.3979,34.897510051727295
1619090882.32861,-130.2565,34.913140058517456
1619090882.34424,-155.9404,34.92877006530762
1619090882.35986,-182.5352,34.944390058517456
1619090882.37549,-210.3624,34.96002006530762
1619090882.39111,-241.1107,34.975640058517456
1619090882.40674,-276.8397,34.99127006530762
1619090882.42236,-318.0614,35.006890058517456
1619090882.43799,-362.1878,35.02252006530762
1619090882.45362,-403.4536,35.03815007209778
1619090882.46924,-434.8348,35.05377006530762
1619090882.48487,-450.97,35.06940007209778
1619090882.50049,-450.5464,35.08502006530762
1619090882.51612,-436.9429,35.10065007209778
1619090882.53174,-416.53,35.11627006530762
1619090882.54737,-395.7533,35.13190007209778
1619090882.563,-378.5533,35.14753007888794
1619090882.57862,-365.4752,35.16315007209778
1619090882.59425,-354.712,35.17878007888794
1619090882.60987,-344.2382,35.19440007209778
1619090882.6255,-333.4498,35.21003007888794
1619090882.64112,-323.5267,35.22565007209778
1619090882.65675,-316.5226,35.24128007888794
1619090882.67238,-313.863,35.2569100856781
1619090882.688,-315.2811,35.27253007888794
1619090882.70363,-318.8004,35.2881600856781
1619090882.71925,-321.4215,35.30378007888794
1619090882.73488,-320.2361,35.3194100856781
1619090882.7505,-313.2012,35.33503007888794
1619090882.76613,-299.5248,35.3506600856781
1619090882.78176,-279.5431,35.36629009246826
1619090882.79738,-254.4038,35.3819100856781
1619090882.81301,-225.7086,35.39754009246826
1619090882.82863,-195.1967,35.4131600856781
1619090882.84426,-164.54,35.42879009246826
1619090882.85988,-135.1348,35.4444100856781
1619090882.87551,-107.9536,35.46004009246826
1619090882.89114,-83.40247,35.47567009925842
1619090882.90676,-61.3689,35.49129009246826
1619090882.92239,-41.38867,35.50692009925842
1619090882.93801,-22.91687,35.52254009246826
1619090882.95364,-5.545532,35.53817009925842
1619090882.96926,10.92651,35.55379009246826
1619090882.98489,26.42914,35.56942009925842
1619090883.00052,40.73663,35.585050106048584
1619090883.01614,53.5766,35.60067009925842
1619090883.03177,64.70569,35.616300106048584
1619090883.04739,73.995,35.63192009925842
1619090883.06302,81.44763,35.647550106048584
1619090883.07864,87.23621,35.66317009925842
1619090883.09427,91.72321,35.678800106048584
1619090883.1099,95.40393,35.694430112838745
1619090883.12552,98.78906,35.710050106048584
1619090883.14115,102.3328,35.725680112838745
1619090883.15677,106.2758,35.741300106048584
1619090883.1724,110.5488,35.756930112838745
1619090883.18802,114.7972,35.772550106048584
1619090883.20365,118.4217,35.788180112838745
1619090883.21928,120.7839,35.803810119628906
1619090883.2349,121.4213,35.819430112838745
1619090883.25053,120.2195,35.835060119628906
1619090883.26615,117.4199,35.850680112838745
1619090883.28178,113.5236,35.866310119628906
1619090883.2974,109.099,35.881930112838745
1619090883.31303,104.553,35.897560119628906
1619090883.32866,100.0718,35.91319012641907
1619090883.34428,95.64795,35.928810119628906
1619090883.35991,91.18564,35.94444012641907
1619090883.37553,86.61728,35.960060119628906
1619090883.39116,81.92191,35.97569012641907
1619090883.40679,77.0596,35.99132013320923
1619090883.42241,71.93622,36.00694012641907
1619090883.43804,66.44128,36.02257013320923
1619090883.45366,60.53018,36.03819012641907
1619090883.46929,54.32474,36.05382013320923
1619090883.48491,48.13568,36.06944012641907
1619090883.50054,42.28815,36.08507013320923
1619090883.51617,36.91766,36.10070013999939
1619090883.53179,31.776,36.11632013320923
1619090883.54742,26.2984,36.13195013999939
1619090883.56304,19.8486,36.14757013320923
1619090883.57867,12.05255,36.16320013999939
1619090883.59429,3.039673,36.17882013320923
1619090883.60992,-6.575684,36.19445013999939
1619090883.62555,-15.95938,36.21008014678955
1619090883.64117,-24.45985,36.22570013999939
1619090883.6568,-31.92773,36.24133014678955
1619090883.67242,-38.84189,36.25695013999939
1619090883.68805,-46.12987,36.27258014678955
1619090883.70367,-54.89728,36.28820013999939
1619090883.7193,-65.97865,36.30383014678955
1619090883.73493,-79.59464,36.31946015357971
1619090883.75055,-94.94221,36.33508014678955
1619090883.76618,-110.1534,36.35071015357971
1619090883.7818,-122.4754,36.36633014678955
1619090883.79743,-128.927,36.38196015357971
1619090883.81305,-127.1292,36.39758014678955
1619090883.82868,-116.1105,36.41321015357971
1619090883.84431,-96.74171,36.42884016036987
1619090883.85993,-71.53233,36.44446015357971
1619090883.87556,-43.90628,36.46009016036987
1619090883.89118,-17.19822,36.47571015357971
1619090883.90681,6.16083,36.49134016036987
1619090883.92243,25.06675,36.50696015357971
1619090883.93806,39.63408,36.52259016036987
1619090883.95369,50.82228,36.538220167160034
1619090883.96931,59.80981,36.55384016036987
1619090883.98494,67.58331,36.569470167160034
1619090884.00056,74.67435,36.58509016036987
1619090884.01619,81.18886,36.600720167160034
1619090884.03181,86.9872,36.61634016036987
1619090884.04744,91.87976,36.631970167160034
1619090884.06307,95.82463,36.647600173950195
1619090884.07869,98.91118,36.663220167160034
1619090884.09432,101.3495,36.678850173950195
1619090884.10994,103.3075,36.694470167160034
1619090884.12557,104.8757,36.710100173950195
1619090884.14119,106.0773,36.725720167160034
1619090884.15682,106.9759,36.741350173950195
1619090884.17245,107.6997,36.756980180740356
1619090884.18807,108.4351,36.772600173950195
1619090884.2037,109.3242,36.788230180740356
1619090884.21932,110.3026,36.803850173950195
1619090884.23495,111.0541,36.819480180740356
1619090884.25057,111.0357,36.835100173950195
1619090884.2662,109.6927,36.850730180740356
1619090884.28183,106.6342,36.86636018753052
1619090884.29745,101.8291,36.881980180740356
1619090884.31308,95.685,36.89761018753052
1619090884.3287,88.94928,36.913230180740356
1619090884.34433,82.47998,36.92886018753052
1619090884.35995,76.99667,36.944480180740356
1619090884.37558,72.77386,36.96011018753052
1619090884.39121,69.58841,36.97574019432068
1619090884.40683,66.78516,36.99136018753052
1619090884.42246,63.57483,37.00699019432068
1619090884.43808,59.33191,37.02261018753052
1619090884.45371,53.81534,37.03824019432068
1619090884.46933,47.26453,37.05386018753052
1619090884.48496,40.22879,37.06949019432068
1619090884.50059,33.31116,37.08512020111084
1619090884.51621,26.89502,37.10074019432068
1619090884.53184,20.98984,37.11637020111084
1619090884.54746,15.25262,37.13199019432068
1619090884.56309,9.121857,37.14762020111084
1619090884.57871,2.022491,37.16324019432068
1619090884.59434,-6.441223,37.17887020111084
1619090884.60997,-16.29663,37.194500207901
1619090884.62559,-27.17361,37.21012020111084
1619090884.64122,-38.32761,37.225750207901
1619090884.65684,-48.89783,37.24137020111084
1619090884.67247,-58.1496,37.257000207901
1619090884.68809,-65.7818,37.27262020111084
1619090884.70372,-72.10791,37.288250207901
1619090884.71935,-78.10764,37.30388021469116
1619090884.73497,-85.18982,37.319500207901
1619090884.7506,-94.78668,37.33513021469116
1619090884.76622,-107.7453,37.350750207901
1619090884.78185,-123.7542,37.36638021469116
1619090884.79747,-141.0352,37.382000207901
1619090884.8131,-156.4579,37.39763021469116
1619090884.82873,-166.2097,37.41326022148132
1619090884.84435,-166.9245,37.42888021469116
1619090884.85998,-156.8033,37.44451022148132
1619090884.8756,-136.2977,37.46013021469116
1619090884.89123,-108.0573,37.47576022148132
1619090884.90685,-76.07941,37.49138021469116
1619090884.92248,-44.45062,37.50701022148132
1619090884.93811,-16.25085,37.522640228271484
1619090884.95373,7.057983,37.53826022148132
1619090884.96936,25.5545,37.553890228271484
1619090884.98498,40.3009,37.56951022148132
1619090885.00061,52.65082,37.585140228271484
1619090885.01623,63.78387,37.60076022148132
1619090885.03186,74.41895,37.616390228271484
1619090885.04749,84.8277,37.632019996643066
1619090885.06311,94.82959,37.647640228271484
1619090885.07874,103.9563,37.663269996643066
1619090885.09436,111.5533,37.678890228271484
1619090885.10999,117.0097,37.694519996643066
1619090885.12561,119.9623,37.710140228271484
1619090885.14124,120.5002,37.725769996643066
1619090885.15687,119.1442,37.74140000343323
1619090885.17249,116.7691,37.757019996643066
1619090885.18812,114.3392,37.77265000343323
1619090885.20374,112.6705,37.788269996643066
1619090885.21937,112.2538,37.80390000343323
1619090885.23499,113.1451,37.819519996643066
1619090885.25062,115.0038,37.83515000343323
1619090885.26625,117.127,37.85078001022339
1619090885.28187,118.6447,37.86640000343323
1619090885.2975,118.7245,37.88203001022339
1619090885.31312,116.8246,37.89765000343323
1619090885.32875,112.8853,37.91328001022339
1619090885.34437,107.37,37.92890000343323
1619090885.36,101.0795,37.94453001022339
1619090885.37563,94.81873,37.96016001701355
1619090885.39125,89.12775,37.97578001022339
1619090885.40688,84.091,37.99141001701355
1619090885.4225,79.46936,38.00703001022339
1619090885.43813,74.94232,38.02266001701355
1619090885.45375,70.29254,38.03828001022339
1619090885.46938,65.57141,38.05391001701355
1619090885.48501,61.01593,38.06954002380371
1619090885.50063,56.85516,38.08516001701355
1619090885.51626,53.16687,38.10079002380371
1619090885.53188,49.78528,38.11641001701355
1619090885.54751,46.38385,38.13204002380371
1619090885.56313,42.59778,38.14766001701355
1619090885.57876,38.18707,38.16329002380371
1619090885.59439,33.13,38.17892003059387
1619090885.61001,27.64581,38.19454002380371
1619090885.62564,22.10583,38.21017003059387
1619090885.64126,16.87146,38.22579002380371
1619090885.65689,12.138,38.24142003059387
1619090885.67251,7.838501,38.25704002380371
1619090885.68814,3.666748,38.27267003059387
1619090885.70377,-0.7485352,38.28830003738403
1619090885.71939,-5.626343,38.30392003059387
1619090885.73502,-10.95795,38.31955003738403
1619090885.75064,-16.44574,38.33517003059387
1619090885.76627,-21.7182,38.35080003738403
1619090885.78189,-26.54663,38.36642003059387
1619090885.79752,-31.00476,38.38205003738403
1619090885.81315,-35.52594,38.397680044174194
1619090885.82877,-40.6806,38.41330003738403
1619090885.8444,-46.94269,38.428930044174194
1619090885.86002,-54.43622,38.44455003738403
1619090885.87565,-62.91034,38.460180044174194
1619090885.89127,-71.77386,38.47580003738403
1619090885.9069,-80.3476,38.491430044174194
1619090885.92253,-88.12445,38.507060050964355
1619090885.93815,-94.88989,38.522680044174194
1619090885.95378,-100.8706,38.538310050964355
1619090885.9694,-106.6985,38.553930044174194
1619090885.98503,-113.2823,38.569560050964355
1619090886.00066,-121.6135,38.58519005775452
1619090886.01628,-132.3477,38.600810050964355
1619090886.03191,-145.2576,38.61644005775452
1619090886.04753,-158.8914,38.632060050964355
1619090886.06316,-170.4994,38.64769005775452
1619090886.07878,-176.5638,38.663310050964355
1619090886.09441,-173.8855,38.67894005775452
1619090886.11004,-160.7628,38.69457006454468
1619090886.12566,-137.7062,38.71019005775452
1619090886.14129,-107.4335,38.72582006454468
1619090886.15691,-74.03064,38.74144005775452
1619090886.17254,-41.62781,38.75707006454468
1619090886.18816,-13.29547,38.77269005775452
1619090886.20379,9.572632,38.78832006454468
1619090886.21942,27.16998,38.80395007133484
1619090886.23504,40.65454,38.81957006454468
1619090886.25067,51.474,38.83520007133484
1619090886.26629,60.89941,38.85082006454468
1619090886.28192,69.75067,38.86645007133484
1619090886.29754,78.37805,38.88207006454468
1619090886.31317,86.7395,38.89770007133484
1619090886.3288,94.45392,38.913330078125
1619090886.34442,100.9747,38.92895007133484
1619090886.36005,105.7719,38.944580078125
1619090886.37567,108.5315,38.96020007133484
1619090886.3913,109.2235,38.975830078125
1619090886.40692,108.1942,38.99145007133484
1619090886.42255,106.0425,39.007080078125
1619090886.43818,103.4883,39.02271008491516
1619090886.4538,101.2546,39.038330078125
1619090886.46943,99.84161,39.05396008491516
1619090886.48505,99.47552,39.069580078125
1619090886.50068,99.99884,39.08521008491516
1619090886.5163,100.877,39.100830078125
1619090886.53193,101.3475,39.11646008491516
1619090886.54756,100.6425,39.13209009170532
1619090886.56318,98.23767,39.14771008491516
1619090886.57881,94.04095,39.16334009170532
1619090886.59443,88.41931,39.17896008491516
1619090886.61006,82.03638,39.19459009170532
1619090886.62568,75.65808,39.21021008491516
1619090886.64131,69.88452,39.22584009170532
1619090886.65694,65.05701,39.24147009849548
1619090886.67256,61.18073,39.25709009170532
1619090886.68819,57.97211,39.27272009849548
1619090886.70381,54.99591,39.28834009170532
1619090886.71944,51.771,39.30397009849548
1619090886.73506,47.99298,39.31959009170532
1619090886.75069,43.57709,39.33522009849548
1619090886.76632,38.72467,39.350850105285645
1619090886.78194,33.82495,39.36647009849548
1619090886.79757,29.25745,39.382100105285645
1619090886.81319,25.24609,39.39772009849548
1619090886.82882,21.75018,39.413350105285645
1619090886.84444,18.49951,39.42897009849548
1619090886.86007,15.08307,39.444600105285645
1619090886.8757,11.1731,39.460230112075806
1619090886.89132,6.626709,39.475850105285645
1619090886.90695,1.534485,39.491480112075806
1619090886.92257,-3.775146,39.507100105285645
1619090886.9382,-8.969666,39.522730112075806
1619090886.95382,-13.79028,39.538350105285645
1619090886.96945,-18.23779,39.553980112075806
1619090886.98508,-22.61914,39.56961011886597
1619090887.0007,-27.41956,39.585230112075806
1619090887.01633,-33.09088,39.60086011886597
1619090887.03195,-39.85034,39.616480112075806
1619090887.04758,-47.51483,39.63211011886597
1619090887.0632,-55.55853,39.647730112075806
1619090887.07883,-63.32007,39.66336011886597
1619090887.09446,-70.25485,39.67899012565613
1619090887.11008,-76.16037,39.69461011886597
1619090887.12571,-81.27539,39.71024012565613
1619090887.14133,-86.1944,39.72586011886597
1619090887.15696,-91.70776,39.74149012565613
1619090887.17258,-98.68002,39.75711011886597
1619090887.18821,-107.7735,39.77274012565613
1619090887.20384,-119.1179,39.78837013244629
1619090887.21946,-131.9653,39.80399012565613
1619090887.23509,-144.4413,39.81962013244629
1619090887.25071,-153.7227,39.83524012565613
1619090887.26634,-156.6577,39.85087013244629
1619090887.28196,-150.7415,39.86649012565613
1619090887.29759,-135.106,39.88212013244629
1619090887.31322,-111.0073,39.89775013923645
1619090887.32884,-81.5726,39.91337013244629
1619090887.34447,-50.79007,39.92900013923645
1619090887.36009,-22.35666,39.94462013244629
1619090887.37572,1.350006,39.96025013923645
1619090887.39134,19.5965,39.97587013244629
1619090887.40697,32.99478,39.99150013923645
1619090887.4226,42.87943,40.00713014602661
1619090887.43822,50.62122,40.02275013923645
1619090887.45385,57.17645,40.03838014602661
1619090887.46947,63.00174,40.05400013923645
1619090887.4851,68.1416,40.06963014602661
1619090887.50072,72.41333,40.08525013923645
1619090887.51635,75.55426,40.10088014602661
1619090887.53198,77.33691,40.11651015281677
1619090887.5476,77.69934,40.13213014602661
1619090887.56323,76.78311,40.14776015281677
1619090887.57885,74.95682,40.16338014602661
1619090887.59448,72.75452,40.17901015281677
1619090887.6101,70.7731,40.19463014602661
1619090887.62573,69.47818,40.21026015281677
1619090887.64136,69.09909,40.225890159606934
1619090887.65698,69.58472,40.24151015281677
1619090887.67261,70.57828,40.257140159606934
1619090887.68823,71.51132,40.27276015281677
1619090887.70386,71.80481,40.288390159606934
1619090887.71948,70.98807,40.30401015281677
1619090887.73511,68.87286,40.319640159606934
1619090887.75074,65.60931,40.335270166397095
1619090887.76636,61.5513,40.350890159606934
1619090887.78199,57.15988,40.366520166397095
1619090887.79761,52.83698,40.382140159606934
1619090887.81324,48.79865,40.397770166397095
1619090887.82886,45.0325,40.413390159606934
1619090887.84449,41.40588,40.429020166397095
1619090887.86012,37.68655,40.444650173187256
1619090887.87574,33.71289,40.460270166397095
1619090887.89137,29.47247,40.475900173187256
1619090887.90699,25.01828,40.491520166397095
1619090887.92262,20.42389,40.507150173187256
1619090887.93824,15.71338,40.522770166397095
1619090887.95387,10.90286,40.538400173187256
1619090887.9695,5.966919,40.55403017997742
1619090887.98512,0.9367065,40.569650173187256
1619090888.00075,-4.092804,40.58528017997742
1619090888.01637,-8.999115,40.600900173187256
1619090888.032,-13.72775,40.61653017997742
1619090888.04762,-18.30136,40.632150173187256
1619090888.06325,-22.86807,40.64778017997742
1619090888.07888,-27.67618,40.66341018676758
1619090888.0945,-32.92175,40.67903017997742
1619090888.11013,-38.77597,40.69466018676758
1619090888.12575,-45.32104,40.71028017997742
1619090888.14138,-52.53552,40.72591018676758
1619090888.157,-60.27881,40.74153017997742
1619090888.17263,-68.25174,40.75716018676758
1619090888.18826,-76.07745,40.77279019355774
1619090888.20388,-83.38263,40.78841018676758
1619090888.21951,-90.02606,40.80404019355774
1619090888.23513,-96.21158,40.81966018676758
1619090888.25076,-102.6058,40.83529019355774
1619090888.26639,-110.1438,40.8509202003479
1619090888.28201,-119.6732,40.86654019355774
1619090888.29764,-131.3506,40.8821702003479
1619090888.31326,-144.1533,40.89779019355774
1619090888.32889,-155.7795,40.9134202003479
1619090888.34451,-163.0547,40.92904019355774
1619090888.36014,-162.8969,40.9446702003479
1619090888.37577,-153.3954,40.96030020713806
1619090888.39139,-134.6324,40.9759202003479
1619090888.40702,-108.7503,40.99155020713806
1619090888.42264,-79.31555,41.0071702003479
1619090888.43827,-50.21321,41.02280020713806
1619090888.45389,-24.45924,41.0384202003479
1619090888.46952,-3.610031,41.05405020713806
1619090888.48515,12.26085,41.06968021392822
1619090888.50077,24.08969,41.08530020713806
1619090888.5164,33.22511,41.10093021392822
1619090888.53202,40.8972,41.11655020713806
1619090888.54765,48.0331,41.13218021392822
1619090888.56327,55.20404,41.14780020713806
1619090888.5789,62.56578,41.16343021392822
1619090888.59453,69.89232,41.179060220718384
1619090888.61015,76.64757,41.19468021392822
1619090888.62578,82.15337,41.210310220718384
1619090888.6414,85.80602,41.22593021392822
1619090888.65703,87.342,41.241560220718384
1619090888.67265,86.94238,41.25718021392822
1619090888.68828,85.18124,41.272810220718384
1619090888.70391,82.82669,41.288440227508545
1619090888.71953,80.56747,41.304060220718384
1619090888.73516,78.88937,41.319690227508545
1619090888.75078,77.92258,41.335310220718384
1619090888.76641,77.55888,41.350940227508545
1619090888.78203,77.44466,41.366560220718384
1619090888.79766,77.16743,41.382190227508545
1619090888.81329,76.31844,41.397820234298706
1619090888.82891,74.61484,41.413440227508545
1619090888.84454,71.91365,41.429070234298706
1619090888.86016,68.26459,41.444690227508545
1619090888.87579,63.88692,41.460320234298706
1619090888.89141,59.07417,41.475940227508545
1619090888.90704,54.17143,41.491570234298706
1619090888.92267,49.48965,41.50720000267029
1619090888.93829,45.21548,41.522820234298706
1619090888.95392,41.32104,41.53845000267029
1619090888.96954,37.64583,41.554070234298706
1619090888.98517,33.91289,41.56970000267029
1619090889.00079,29.90088,41.585320234298706
1619090889.01642,25.56995,41.60095000267029
1619090889.03205,21.10327,41.61658000946045
1619090889.04767,16.8481,41.63220000267029
1619090889.0633,13.10004,41.64783000946045
1619090889.07892,9.964981,41.66345000267029
1619090889.09455,7.251801,41.67908000946045
1619090889.11017,4.526184,41.69470000267029
1619090889.1258,1.31813,41.71033000946045
1619090889.14143,-2.666565,41.72596001625061
1619090889.15705,-7.445389,41.74158000946045
1619090889.17268,-12.75661,41.75721001625061
1619090889.1883,-18.16801,41.77283000946045
1619090889.20393,-23.28375,41.78846001625061
1619090889.21955,-27.87961,41.80408000946045
1619090889.23518,-32.01132,41.81971001625061
1619090889.25081,-36.00603,41.83534002304077
1619090889.26643,-40.31261,41.85096001625061
1619090889.28206,-45.36177,41.86659002304077
1619090889.29768,-51.41331,41.88221001625061
1619090889.31331,-58.40781,41.89784002304077
1619090889.32893,-66.00509,41.91346001625061
1619090889.34456,-73.67078,41.92909002304077
1619090889.36019,-80.8973,41.94472002983093
1619090889.37581,-87.37872,41.96034002304077
1619090889.39144,-93.15322,41.97597002983093
1619090889.40706,-98.66016,41.99159002304077
1619090889.42269,-104.664,42.00722002983093
1619090889.43831,-112.0053,42.02284002304077
1619090889.45394,-121.2554,42.03847002983093
1619090889.46957,-132.2164,42.054100036621094
1619090889.48519,-143.5767,42.06972002983093
1619090889.50082,-152.9372,42.085350036621094
1619090889.51644,-157.2743,42.10097002983093
1619090889.53207,-153.9083,42.116600036621094
1619090889.54769,-141.5128,42.13222002983093
1619090889.56332,-120.7393,42.147850036621094
1619090889.57895,-94.20338,42.163480043411255
1619090889.59457,-65.63862,42.179100036621094
1619090889.6102,-38.7688,42.194730043411255
1619090889.62582,-16.18389,42.210350036621094
1619090889.64145,1.18824,42.225980043411255
1619090889.65707,13.96181,42.241600036621094
1619090889.6727,23.59626,42.257230043411255
1619090889.68833,31.69616,42.272860050201416
1619090889.70395,39.37321,42.288480043411255
1619090889.71958,47.08559,42.304110050201416
1619090889.7352,54.77789,42.319730043411255
1619090889.75083,62.04356,42.335360050201416
1619090889.76645,68.39555,42.350980043411255
1619090889.78208,73.38543,42.366610050201416
1619090889.79771,76.65868,42.38224005699158
1619090889.81333,78.05622,42.397860050201416
1619090889.82896,77.62868,42.41349005699158
1619090889.84458,75.71049,42.429110050201416
1619090889.86021,72.90147,42.44474005699158
1619090889.87583,69.96429,42.460360050201416
1619090889.89146,67.64754,42.47599005699158
1619090889.90709,66.45823,42.49162006378174
1619090889.92271,66.53783,42.50724005699158
1619090889.93834,67.6433,42.52287006378174
1619090889.95396,69.16946,42.53849005699158
1619090889.96959,70.37233,42.55412006378174
1619090889.98521,70.58188,42.56974005699158
1619090890.00084,69.40095,42.58537006378174
1619090890.01647,66.85429,42.6010000705719
1619090890.03209,63.34612,42.61662006378174
1619090890.04772,59.44317,42.6322500705719
1619090890.06334,55.62278,42.64787006378174
1619090890.07897,52.08437,42.6635000705719
1619090890.09459,48.71142,42.67912006378174
1619090890.11022,45.22543,42.6947500705719
1619090890.12585,41.37426,42.71038007736206
1619090890.14147,37.11686,42.7260000705719
1619090890.1571,32.62372,42.74163007736206
1619090890.17272,28.13383,42.7572500705719
1619090890.18835,23.81504,42.77288007736206
1619090890.20397,19.65159,42.7885000705719
1619090890.2196,15.48009,42.80413007736206
1619090890.23523,11.15527,42.81976008415222
1619090890.25085,6.645683,42.83538007736206
1619090890.26648,2.032455,42.85101008415222
1619090890.2821,-2.532974,42.86663007736206
1619090890.29773,-6.982487,42.88226008415222
1619090890.31335,-11.37731,42.89788007736206
1619090890.32898,-15.91546,42.91351008415222
1619090890.34461,-20.83293,42.92914009094238
1619090890.36023,-26.35965,42.94476008415222
1619090890.37586,-32.55097,42.96039009094238
1619090890.39148,-39.26208,42.97601008415222
1619090890.40711,-46.21577,42.99164009094238
1619090890.42273,-53.0297,43.00726008415222
1619090890.43836,-59.35699,43.02289009094238
1619090890.45399,-64.98486,43.038520097732544
1619090890.46961,-69.9144,43.05414009094238
1619090890.48524,-74.41917,43.069770097732544
1619090890.50086,-79.04391,43.08539009094238
1619090890.51649,-84.51145,43.101020097732544
1619090890.53211,-91.56774,43.11664009094238
1619090890.54774,-100.6358,43.132270097732544
1619090890.56337,-111.3544,43.147900104522705
1619090890.57899,-122.323,43.163520097732544
1619090890.59462,-131.146,43.179150104522705
1619090890.61024,-134.9846,43.194770097732544
1619090890.62587,-131.4333,43.210400104522705
1619090890.64149,-119.4644,43.226020097732544
1619090890.65712,-99.91405,43.241650104522705
1619090890.67275,-75.33881,43.257280111312866
1619090890.68837,-49.21565,43.272900104522705
1619090890.704,-24.88528,43.288530111312866
1619090890.71962,-4.684732,43.304150104522705
1619090890.73525,10.52746,43.319780111312866
1619090890.75088,21.18535,43.33541011810303
1619090890.7665,28.52339,43.351030111312866
1619090890.78213,33.98091,43.36666011810303
1619090890.79775,38.69689,43.382280111312866
1619090890.81338,43.27781,43.39791011810303
1619090890.829,47.79815,43.413530111312866
1619090890.84463,51.96732,43.42916011810303
1619090890.86026,55.37167,43.44479012489319
1619090890.87588,57.71093,43.46041011810303
1619090890.89151,58.93602,43.47604012489319
1619090890.90713,59.20387,43.49166011810303
1619090890.92276,58.84047,43.50729012489319
1619090890.93838,58.21083,43.52291011810303
1619090890.95401,57.64232,43.53854012489319
1619090890.96964,57.44828,43.55417013168335
1619090890.98526,57.77499,43.56979012489319
1619090891.00089,58.62043,43.58542013168335
1619090891.01651,59.78515,43.60104012489319
1619090891.03214,60.85209,43.61667013168335
1619090891.04776,61.29942,43.63229012489319
1619090891.06339,60.66879,43.64792013168335
1619090891.07902,58.70074,43.66355013847351
1619090891.09464,55.45377,43.67917013168335
1619090891.11027,51.19352,43.69480013847351
1619090891.12589,46.30276,43.71042013168335
1619090891.14152,41.09832,43.72605013847351
1619090891.15714,35.74855,43.74167013168335
1619090891.17277,30.26043,43.75730013847351
1619090891.1884,24.5495,43.77293014526367
1619090891.20402,18.60933,43.78855013847351
1619090891.21965,12.49233,43.80418014526367
1619090891.23527,6.372681,43.81980013847351
1619090891.2509,0.398159,43.83543014526367
1619090891.26652,-5.39167,43.85105013847351
1619090891.28215,-11.14601,43.86668014526367
1619090891.29778,-17.13979,43.88231015205383
1619090891.3134,-23.62548,43.89793014526367
1619090891.32903,-30.74106,43.91356015205383
1619090891.34465,-38.39745,43.92918014526367
1619090891.36028,-46.33189,43.94481015205383
1619090891.3759,-54.20216,43.96043014526367
1619090891.39153,-61.71526,43.97606015205383
1619090891.40716,-68.76635,43.991690158843994
1619090891.42278,-75.45467,44.00731015205383
1619090891.43841,-82.14306,44.022940158843994
1619090891.45403,-89.47987,44.03856015205383
1619090891.46966,-98.14925,44.054190158843994
1619090891.48528,-108.5844,44.06981015205383
1619090891.50091,-120.4364,44.085440158843994
1619090891.51654,-132.283,44.101070165634155
1619090891.53216,-141.6827,44.116690158843994
1619090891.54779,-145.7533,44.132320165634155
1619090891.56341,-142.1248,44.147940158843994
1619090891.57904,-129.89,44.163570165634155
1619090891.59466,-110.0784,44.179190158843994
1619090891.61029,-85.34227,44.194820165634155
1619090891.62592,-59.12841,44.210450172424316
1619090891.64154,-34.526,44.226070165634155
1619090891.65717,-13.52678,44.241700172424316
1619090891.67279,3.306854,44.257320165634155
1619090891.68842,16.48619,44.272950172424316
1619090891.70404,27.09878,44.288570165634155
1619090891.71967,36.23128,44.304200172424316
1619090891.7353,44.65302,44.31983017921448
1619090891.75092,52.74147,44.335450172424316
