,index,PPG_Raw,PPG_Clean,PPG_Rate,PPG_Peaks,EDA_Raw,EDA_Clean,EDA_Tonic,EDA_Phasic,SCR_Onsets,SCR_Peaks,SCR_Height,SCR_Amplitude,SCR_RiseTime,SCR_Recovery,SCR_RecoveryTime,Index,Label,Condition,id
0,0.0,31.73657,66.27531388438909,75.82670203359858,0,0.8391026000000003,0.8391277394109331,0.8354656425135514,0.0036621704797660153,0,0,0,0,0,0,1,0,1,neutral,0
1,0.015873015873015872,31.68359,64.80388748849654,75.82670203359858,0,0.839002738110971,0.8386169763405591,0.835426815367449,0.0031902347964630597,0,0,0,0,0,0,0,1,1,neutral,0
2,0.031746031746031744,29.93964,62.2321896066259,75.82670203359858,0,0.8387178125776705,0.8380940420624889,0.8353879483723189,0.002706167754385122,0,0,0,0,0,0,0,2,1,neutral,0
3,0.047619047619047616,26.80823,58.95309551840692,75.82670203359858,0,0.8382698136007795,0.8375444800915905,0.8353490421686037,0.0021955122279508953,0,0,0,0,0,0,0,3,1,neutral,0
4,0.06349206349206349,22.74457,55.267802861573465,75.82670203359858,0,0.8376807313809788,0.8369561187258607,0.83531009739831,0.0016460958731441995,0,0,0,0,0,0,0,4,1,neutral,0
5,0.07936507936507936,18.33582,51.45229879922784,75.82670203359858,0,0.8369725561189487,0.8363202614576726,0.8352711147047076,0.0010492215390617704,0,0,0,0,0,0,0,5,1,neutral,0
6,0.09523809523809523,14.1441,47.777622969739994,75.82670203359858,0,0.8361672780153702,0.8356325584024968,0.8352320947320083,0.00040053869695565007,0,0,0,0,0,0,0,6,1,neutral,0
7,0.1111111111111111,10.59058,44.46487492704179,75.82670203359858,0,0.8352868872709241,0.8348934989758842,0.8351930381250184,-0.00029946388243639113,0,0,0,0,0,0,0,7,1,neutral,0
8,0.12698412698412698,7.798035,41.62318874815482,75.82670203359858,0,0.8343533740862911,0.8341085051395226,0.8351539455287619,-0.0010453648824569756,0,0,0,0,0,0,0,8,1,neutral,0
9,0.14285714285714285,5.607605,39.228667810593954,75.82670203359858,0,0.8333887286621517,0.8332876408571408,0.8351148175880755,-0.0018271009842214143,0,0,0,0,0,0,0,9,1,neutral,0
10,0.15873015873015872,3.745789,37.167950696520776,75.82670203359858,0,0.8324149411991867,0.8324449839535646,0.8350756549471791,-0.002630595007130178,0,0,0,0,0,0,0,10,1,neutral,0
11,0.1746031746031746,1.971619,35.323457381301566,75.82670203359858,0,0.8314540018980767,0.8315977296423037,0.8350364582492251,-0.0034386523808330478,0,0,0,0,0,0,0,11,1,neutral,0
12,0.19047619047619047,0.2402954,33.64925151042335,75.82670203359858,0,0.830527900959503,0.8307651098762524,0.8349972281358375,-0.004232041794066794,0,0,0,0,0,0,0,12,1,neutral,0
13,0.20634920634920634,-1.344727,32.19123574261489,75.82670203359858,0,0.8296586285841454,0.8299672194318886,0.8349579652466479,-0.00499066910999226,0,0,0,0,0,0,0,13,1,neutral,0
14,0.2222222222222222,-2.578918,31.037032562797442,75.82670203359858,0,0.8288681749726854,0.8292238388359341,0.8349186702188409,-0.00569475443907911,0,0,0,0,0,0,0,14,1,neutral,0
15,0.23809523809523808,-3.351624,30.22012113743031,75.82670203359858,0,0.8281785303258031,0.8285533368115623,0.8348793436867192,-0.006325929692463646,0,0,0,0,0,0,0,15,1,neutral,0
16,0.25396825396825395,-3.703308,29.629051118535944,75.82670203359858,0,0.8276116848441797,0.8279717220196223,0.8348399862813001,-0.006868186840321368,0,0,0,0,0,0,0,16,1,neutral,0
17,0.2698412698412698,-3.896057,28.97347071711938,75.82670203359858,0,0.827185271631696,0.8274918968412351,0.8348005986299536,-0.007308624128908474,0,0,0,0,0,0,0,17,1,neutral,0
18,0.2857142857142857,-4.489197,27.833845294632766,75.82670203359858,0,0.8268954669049272,0.8271231463164158,0.8347611813560915,-0.007637957141628876,0,0,0,0,0,0,0,18,1,neutral,0
19,0.30158730158730157,-6.008789,25.782189510904676,75.82670203359858,0,0.8267318530575118,0.8268708748324662,0.8347217350789141,-0.00785078211038817,0,0,0,0,0,0,0,19,1,neutral,0
20,0.31746031746031744,-8.815918,22.52570317126751,75.82670203359858,0,0.8266840106989984,0.8267365835670969,0.8346822604132208,-0.007945598472282574,1,0,0,0,0,0,0,20,1,neutral,0
21,0.3333333333333333,-12.96851,18.01144354425873,75.82670203359858,0,0.8267415204389348,0.8267180647402437,0.8346427579692866,-0.00792461461765848,0,0,0,0,0,0,0,21,1,neutral,0
22,0.3492063492063492,-18.23169,12.444434172812183,75.82670203359858,0,0.8268939628868693,0.8268097757120682,0.8346032283528068,-0.0077933737920572975,0,0,0,0,0,0,0,22,1,neutral,0
23,0.36507936507936506,-24.15277,6.2067164430173,75.82670203359858,0,0.8271309186523499,0.8270033475708554,0.8345636721649076,-0.007560245508327509,0,0,0,0,0,0,0,23,1,neutral,0
24,0.38095238095238093,-30.27936,0.0,75.82670203359858,0,0.8274419683449249,0.8272881791489383,0.8345240900022195,-0.007235831530774417,0,0,0,0,0,0,0,24,1,neutral,0
25,0.3968253968253968,-36.21442,0.0,75.82670203359858,0,0.8278166925741426,0.827652067957643,0.8344844824570101,-0.006832334940346754,0,0,0,0,0,0,0,25,1,neutral,0
26,0.4126984126984127,-41.79834,0.0,75.82670203359858,0,0.8282446719495505,0.8280818335932836,0.8344448501173685,-0.006362936728827385,0,0,0,0,0,0,0,26,1,neutral,0
27,0.42857142857142855,-47.44537,0.0,75.82670203359858,0,0.8287154870806973,0.8285638958275404,0.834405193567436,-0.005841217708684829,0,0,0,0,0,0,0,27,1,neutral,0
28,0.4444444444444444,-53.61163,0.0,75.82670203359858,0,0.8292187185771308,0.8290847779232882,0.834365513387675,-0.005280655197514443,0,0,0,0,0,0,0,28,1,neutral,0
29,0.4603174603174603,-60.66663,0.0,75.82670203359858,0,0.8297439470483996,0.8296315148476693,0.834325810155167,-0.004694214805263113,0,0,0,0,0,0,0,29,1,neutral,0
30,0.47619047619047616,-68.67627,0.0,75.82670203359858,0,0.8302807531040515,0.8301919552561768,0.8342860844439358,-0.004094048450469186,0,0,0,0,0,0,0,30,1,neutral,0
31,0.49206349206349204,-77.38324,0.0,75.82670203359858,0,0.8308187173536347,0.8307549548228815,0.8342463368252833,-0.0034913010303719,0,0,0,0,0,0,0,31,1,neutral,0
32,0.5079365079365079,-86.19769,0.0,75.82670203359858,0,0.8313474204066973,0.8313104662800922,0.834206567868135,-0.0028960203815955442,0,0,0,0,0,0,0,32,1,neutral,0
33,0.5238095238095237,-94.31366,0.0,75.82670203359858,0,0.8318570865380752,0.8318495381279251,0.8341667781393874,-0.0023171585709282497,0,0,0,0,0,0,0,33,1,neutral,0
34,0.5396825396825397,-100.7495,0.0,75.82670203359858,0,0.8323418558795381,0.832364239197187,0.8341269682042507,-0.0017626473327811655,0,0,0,0,0,0,0,34,1,neutral,0
35,0.5555555555555556,-104.6425,0.0,75.82670203359858,0,0.8327973412224303,0.8328475299664062,0.8340871386265826,-0.0012395267524921236,0,0,0,0,0,0,0,35,1,neutral,0
36,0.5714285714285714,-106.0793,0.0,75.82670203359858,0,0.833219158015753,0.8332931036429895,0.8340472899692081,-0.0007541041854873904,0,0,0,0,0,0,0,36,1,neutral,0
37,0.5873015873015872,-105.3547,0.0,75.82670203359858,0,0.8336029217085079,0.833695220455273,0.8340074227942218,-0.0003121199655332545,0,0,0,0,0,0,0,37,1,neutral,0
38,0.6031746031746031,-102.9352,0.0,75.82670203359858,0,0.8339442477496971,0.8340485573752822,0.8339675376632679,8.110231774325228e-05,0,0,0,0,0,0,0,38,1,neutral,0
39,0.6190476190476191,-99.33453,0.0,75.82670203359858,0,0.8342387515883222,0.8343480927107539,0.8339276351377948,0.0004205404106226891,0,0,0,0,0,0,0,39,1,neutral,0
40,0.6349206349206349,-95.11859,0.0,75.82670203359858,0,0.8344820486733844,0.8345890408823767,0.8338877157792827,0.0007014081723049062,0,0,0,0,0,0,0,40,1,neutral,0
41,0.6507936507936507,-90.93042,0.0,75.82670203359858,0,0.8346697544538859,0.83476684753712,0.8338477801494387,0.0009191506880439383,0,0,0,0,0,0,0,41,1,neutral,0
42,0.6666666666666666,-87.47339,0.0,75.82670203359858,0,0.8347974843788278,0.8348772493023577,0.8338078288103589,0.001069504023109391,0,0,0,0,0,0,0,42,1,neutral,0
43,0.6825396825396826,-85.34271,0.0,75.82670203359858,0,0.8348608538972124,0.8349163963615395,0.8337678623246532,0.0011486177983322122,0,0,0,0,0,0,0,43,1,neutral,0
44,0.6984126984126984,-85.11237,0.0,75.82670203359858,0,0.834855478458041,0.834881030058027,0.8337278812555321,0.001153232793855475,0,1,0,0,0,0,0,44,1,neutral,0
45,0.7142857142857142,-88.21271,0.0,75.82670203359858,0,0.8347769735103154,0.8347687023436033,0.8336878861668511,0.001080900397597939,0,0,0,0,0,0,0,45,1,neutral,0
46,0.7301587301587301,-95.38654,0.0,75.82670203359858,0,0.8346209545030371,0.8345780195018531,0.8336478776231131,0.0009302263286330098,0,0,0,0,0,0,0,46,1,neutral,0
47,0.746031746031746,-106.4219,0.0,75.82670203359858,0,0.8343830368852081,0.834308889571417,0.8336078561894259,0.0007011180604851617,0,0,0,0,0,0,0,47,1,neutral,0
48,0.7619047619047619,-120.1005,0.0,75.82670203359858,0,0.8340588361058294,0.8339627515670194,0.8335678224314144,0.00039501404224487075,0,0,0,0,0,0,0,48,1,neutral,0
49,0.7777777777777777,-134.5519,0.0,75.82670203359858,0,0.8336454223559584,0.8335427651140959,0.8335277769150883,1.5073333329559263e-05,0,0,0,0,0,0,0,49,1,neutral,0
50,0.7936507936507936,-147.8127,0.0,75.82670203359858,0,0.8331508755153711,0.833053941454556,0.8334877202066655,-0.0004336933905775891,0,0,0,0,0,0,0,50,1,neutral,0
51,0.8095238095238095,-158.4622,0.0,75.82670203359858,0,0.8325883129304137,0.8325032006916177,0.8334476528723526,-0.0009443665924743399,0,0,0,0,0,0,0,51,1,neutral,0
52,0.8253968253968254,-165.6871,0.0,75.82670203359858,0,0.8319708779992593,0.8318993451430575,0.833407575478086,-0.0015081445205292338,0,0,0,0,0,0,0,52,1,neutral,0
53,0.8412698412698412,-169.5066,0.0,75.82670203359858,0,0.831311714120081,0.8312529441660654,0.8333674885892387,-0.0021144583829346263,0,0,0,0,0,0,0,53,1,neutral,0
54,0.8571428571428571,-171.6812,0.0,75.82670203359858,0,0.8306239646910524,0.8305761312429298,0.8333273927702959,-0.0027511752618956595,0,0,0,0,0,0,0,54,1,neutral,0
55,0.873015873015873,-173.4262,0.0,75.82670203359858,0,0.8299207731103462,0.829882319080587,0.8332872885845058,-0.0034048830137338683,0,0,0,0,0,1,0,55,1,neutral,0
56,0.8888888888888888,-174.9066,0.0,75.82670203359858,0,0.8292152827761363,0.8291858427837465,0.8332471765935148,-0.004061247095394765,0,0,0,0,0,0,0,56,1,neutral,0
57,0.9047619047619047,-175.0316,0.0,75.82670203359858,0,0.8285206370865956,0.8285015447690814,0.8332070573569912,-0.004705425649883101,0,0,0,0,0,0,0,57,1,neutral,0
58,0.9206349206349206,-171.902,0.0,75.82670203359858,0,0.8278499794398975,0.8278443180312784,0.8331669314322492,-0.005322526239835301,0,0,0,0,0,0,0,58,1,neutral,0
59,0.9365079365079365,-163.5249,0.0,75.82670203359858,0,0.8272164532342151,0.8272286266899771,0.8331267993738787,-0.005898085300210651,0,0,0,0,0,0,0,59,1,neutral,0
60,0.9523809523809523,-148.6442,0.0,75.82670203359858,0,0.8266332018677219,0.826668024432189,0.8330866617333912,-0.006418549695518339,0,0,0,0,0,0,0,60,1,neutral,0
61,0.9682539682539681,-126.8558,0.0,75.82670203359858,0,0.8261133687385909,0.8261746924351282,0.8330465190588896,-0.006871738796656583,0,0,0,0,0,0,0,61,1,neutral,0
62,0.9841269841269841,-89.39853,0.0,75.82670203359858,0,0.8256700972449956,0.8257590184502548,0.8330063718947697,-0.0072472653965700235,0,0,0,0,0,0,0,62,1,neutral,0
63,1.0,-32.94766,0.0,75.82670203359858,0,0.825316530785109,0.8254292377406623,0.8329662207814595,-0.007536894772602966,0,0,0,0,0,0,0,63,1,neutral,0
0,0.0,14.98979,12.387371328964573,81.17315497048706,0,0.8012818706243587,0.8012798769748078,0.7996222774039243,0.0016551060490806826,0,0,0,0,0,0,0,1100,3,neutral,2
1,0.015873015873015872,14.13333,11.09568442439474,80.46018880333946,0,0.8011898715203951,0.8011884697891527,0.7995799201127073,0.001606055316463564,0,0,0,0,0,0,0,1101,3,neutral,2
2,0.031746031746031744,12.83997,9.251355830301785,79.72648741669548,0,0.801101632517036,0.8011012917855392,0.7995375744022811,0.001561222239570855,0,0,0,0,0,0,0,1102,3,neutral,2
3,0.047619047619047616,11.00966,6.788911733038093,78.97490249052936,0,0.8010182283939677,0.801019600222318,0.7994952406874776,0.0015218636623199507,0,0,0,0,0,0,0,1103,3,neutral,2
4,0.06349206349206349,8.524384,3.6759464062765805,78.20817189103093,0,0.800940733930876,0.8009445432089599,0.7994529193840377,0.0014891272788402493,0,0,0,0,0,0,0,1104,3,neutral,2
5,0.07936507936507936,5.347427,0.0,77.42891173772834,0,0.8008702239074468,0.8008771109913443,0.7994106109085897,0.0014640029187843475,0,0,0,0,0,0,0,1105,3,neutral,2
6,0.09523809523809523,1.601013,0.0,76.6396104914676,0,0.8008077731033664,0.8008180930935127,0.7993683156786299,0.0014472796891002453,0,0,0,0,0,0,0,1106,3,neutral,2
7,0.1111111111111111,-2.458023,0.0,75.84262490097399,0,0.8007544562983203,0.8007680433594802,0.7993260341125087,0.0014395110158569092,0,0,0,0,0,0,0,1107,3,neutral,2
8,0.12698412698412698,-6.51619,0.0,75.04017763557715,0,0.8007113482719949,0.8007272546761666,0.7992837666294206,0.0014409893671854359,0,0,0,0,0,0,0,1108,3,neutral,2
9,0.14285714285714285,-10.32915,0.0,74.23435642690099,0,0.8006795183600122,0.8006957447291863,0.7992415136494001,0.0014517320090727246,0,0,0,0,0,0,0,1109,3,neutral,2
10,0.15873015873015872,-13.81902,0.0,73.42711454211685,0,0.8006592286886471,0.8006732535395236,0.7991992755933225,0.0014714785420364249,0,0,0,0,0,0,0,1110,3,neutral,2
11,0.1746031746031746,-17.14145,0.0,72.62027241494857,0,0.8006490866826309,0.8006592527740592,0.79915705288291,0.0014997002116448554,0,0,0,0,0,0,0,1111,3,neutral,2
12,0.19047619047619047,-20.59422,0.0,71.81552026724161,0,0.8006474969224836,0.800652965976614,0.799114845940743,0.0015356201395496836,0,0,0,0,0,0,0,1112,3,neutral,2
13,0.20634920634920634,-24.49913,0.0,71.01442156286285,0,0.8006528639887261,0.8006533980197713,0.7990726551902766,0.0015782427752926648,0,0,0,0,0,0,0,1113,3,neutral,2
14,0.2222222222222222,-29.06732,0.0,70.2184171463407,0,0.8006635924618783,0.8006593713329612,0.7990304810558607,0.0016263901243680728,0,0,0,0,0,0,0,1114,3,neutral,2
15,0.23809523809523808,-34.33679,0.0,69.42882993042411,0,0.8006780869224606,0.8006695659064693,0.7989883239627645,0.0016787417522080624,0,0,0,0,0,0,0,1115,3,neutral,2
16,0.25396825396825395,-40.19273,0.0,68.64687000914908,0,0.8006947519509935,0.800682559761181,0.7989461843372045,0.0017338752538991462,0,0,0,0,0,0,0,1116,3,neutral,2
17,0.2698412698412698,-46.39735,0.0,67.87364008564411,0,0.8007119921279972,0.8006968665342247,0.7989040626063739,0.0017903038397951735,0,0,0,0,0,0,0,1117,3,neutral,2
18,0.2857142857142857,-52.57937,0.0,67.11014111645225,0,0.800728212033992,0.8007109670589734,0.7988619591984744,0.001846507915487715,0,0,0,0,0,0,0,1118,3,neutral,2
19,0.30158730158730157,-58.18367,0.0,66.3572780863339,0,0.8007418162494983,0.8007233322929378,0.7988198745427484,0.001900958009666517,0,0,0,0,0,0,0,1119,3,neutral,2
20,0.31746031746031744,-62.42795,0.0,65.61586583914426,0,0.8007512093550363,0.8007324356352139,0.7987778090695117,0.0019521270915349156,0,0,0,0,0,0,0,1120,3,neutral,2
21,0.3333333333333333,-64.37844,0.0,64.88663490130754,0,0.8007547959311268,0.8007367535342284,0.7987357632101841,0.0019984911785242386,0,0,0,0,0,0,0,1121,3,neutral,2
22,0.3492063492063492,-63.1834,0.0,64.17023724454234,0,0.8007509805582896,0.800734754268524,0.798693737397319,0.0020385181170500793,0,0,0,0,0,0,0,1122,3,neutral,2
23,0.36507936507936506,-58.40001,0.0,63.467251943772204,0,0.800738167817045,0.8007248758355344,0.7986517320646292,0.0020706454712599845,0,0,0,0,0,0,0,1123,3,neutral,2
24,0.38095238095238093,-50.22404,0.0,62.77819069456043,0,0.8007147622879138,0.8007054949488297,0.798609747647011,0.0020932495202573907,0,0,0,0,0,0,0,1124,3,neutral,2
25,0.3968253968253968,-39.55029,0.0,62.10350316193984,0,0.8006791681985159,0.8006748901626304,0.7985677845805612,0.0021046083825959567,0,0,0,0,0,0,0,1125,3,neutral,2
26,0.4126984126984127,-27.7289,0.0,61.443582139191854,0,0.8006296594688229,0.8006312030503661,0.7985258433025906,0.0021028631948265737,0,0,0,0,0,0,0,1126,3,neutral,2
27,0.42857142857142855,-16.18954,0.0,60.79876850100141,0,0.800564185664108,0.8005724020980259,0.7984839242516291,0.0020859820048415296,0,0,0,0,0,0,0,1127,3,neutral,2
28,0.4444444444444444,-6.057312,0.0,60.16935594052454,0,0.8004806467290705,0.8004962544712882,0.7984420278674248,0.0020517315390060358,0,0,0,0,0,0,0,1128,3,neutral,2
29,0.4603174603174603,2.025452,0.0,59.55559548430958,0,0.8003769426084085,0.8004003110202239,0.7984001545909334,0.0019976622068714053,0,0,0,0,0,0,0,1129,3,neutral,2
30,0.47619047619047616,7.909378,0.0,58.95769978277199,0,0.8002509732468216,0.8002819097443852,0.7983583048642973,0.001921111566284943,0,0,0,0,0,0,0,1130,3,neutral,2
31,0.49206349206349204,11.71469,0.0,58.3758471770959,0,0.8001006385890082,0.8001382024095036,0.7983164791308136,0.0018192309401201404,0,0,0,0,0,0,0,1131,3,neutral,2
32,0.5079365079365079,13.71774,0.0,57.81018554608689,0,0.7999238385796672,0.7999662080529542,0.7982746778348891,0.0016890389217855267,0,0,0,0,0,0,0,1132,3,neutral,2
33,0.5238095238095237,14.22209,0.0,57.26083593868804,0,0.7997184731634973,0.7997628957284851,0.7982329014219802,0.001527504120015267,0,0,0,0,0,0,0,1133,3,neutral,2
34,0.5396825396825397,13.55864,0.0,56.72789599965316,0,0.7994824422851976,0.7995252970435971,0.7981911503385161,0.0013316576963237777,0,0,0,0,0,0,0,1134,3,neutral,2
35,0.5555555555555556,12.09242,0.0,56.211443197300234,0,0.7992136458894671,0.7992506468991368,0.7981494250318045,0.0010987341046950474,0,0,0,0,0,0,0,1135,3,neutral,2
36,0.5714285714285714,10.21849,0.0,55.711537863396465,0,0.7989099839210042,0.7989365484618093,0.7981077259499171,0.000826336064208654,0,0,0,0,0,0,0,1136,3,neutral,2
37,0.5873015873015872,8.300781,0.0,55.22822605609736,0,0.798569356324508,0.7985811559472061,0.7980660535415531,0.0005126173422046014,0,0,0,0,0,0,0,1137,3,neutral,2
38,0.6031746031746031,6.634613,0.0,54.76154225752185,0,0.7981896630446773,0.7981833664681376,0.7980244082558815,0.00015647460277364543,0,0,0,0,0,0,0,1138,3,neutral,2
39,0.6190476190476191,5.433487,0.0,54.311511918028785,0,0.797768804026211,0.7977430102452544,0.7979827905423575,-0.00024226238243847589,0,0,0,0,0,0,0,1139,3,neutral,2
40,0.6349206349206349,4.815552,0.0,53.87815385960341,0,0.7973046792138079,0.7972610271258797,0.7979412008505168,-0.0006826542151920365,0,0,0,0,0,0,0,1140,3,neutral,2
41,0.6507936507936507,4.825851,0.0,53.46148255099805,0,0.7967951901304887,0.796739616827854,0.7978996396297436,-0.0011625016265772422,0,0,0,0,0,0,0,1141,3,neutral,2
42,0.6666666666666666,5.513367,0.0,53.0615102674247,0,0.796240858324127,0.7961823507628644,0.797858107329016,-0.0016782336534300604,0,0,0,0,0,0,0,1142,3,neutral,2
43,0.6825396825396826,6.930313,0.0,52.67824914769667,0,0.7956501712225299,0.7955942347242781,0.7978166043966277,-0.00222484495022068,0,0,0,0,0,0,0,1143,3,neutral,2
44,0.6984126984126984,9.173538,0.0,52.31171316178255,0,0.7950331246109837,0.7949817140227948,0.7977751312798911,-0.00279589065310414,0,0,0,0,0,0,0,1144,3,neutral,2
45,0.7142857142857142,12.41263,0.0,51.96192000179165,0,0.7943997142747752,0.794352615559057,0.797733688424821,-0.003383544306993184,0,0,0,0,0,0,0,1145,3,neutral,2
46,0.7301587301587301,16.83836,0.0,51.628892909472434,0,0.79375993599919,0.7937160245185597,0.7976922762758052,-0.003978721170320319,0,0,0,0,0,0,0,1146,3,neutral,2
47,0.746031746031746,22.5663,0.0,51.31266245339426,0,0.7931237855695152,0.7930820965888122,0.7976508952752667,-0.004571265997537161,0,0,0,0,0,0,0,1147,3,neutral,2
48,0.7619047619047619,29.46545,1.3160649787473417,51.013268269113695,0,0.7925012587710367,0.7924618096688986,0.7976095458633206,-0.00515020132921101,0,0,0,0,0,0,0,1148,3,neutral,2
49,0.7777777777777777,37.0567,8.648553091091037,50.73076077581656,0,0.7919023513890413,0.7918666619115281,0.7975682284774331,-0.0057040294496340585,0,0,0,0,0,0,0,1149,3,neutral,2
50,0.7936507936507936,44.54762,15.74207281955135,50.46520288319163,0,0.7913370592088153,0.7913083256123149,0.7975269435520893,-0.006221078497210596,0,0,0,0,0,0,0,1150,3,neutral,2
51,0.8095238095238095,51.10652,22.002700132629688,50.21667170264847,0,0.7908153780156447,0.7907982689501302,0.7974856915184739,-0.006689880723786679,0,0,0,0,0,0,0,1151,3,neutral,2
52,0.8253968253968254,56.20444,27.16844209412393,49.985260277457606,0,0.7903473035948164,0.7903473598546544,0.7974444728041755,-0.00709956862680083,0,0,0,0,0,0,0,1152,3,neutral,2
53,0.8412698412698412,59.96658,31.45159373486743,49.77107934698292,0,0.7899428317316166,0.7899654682317806,0.7974032878329168,-0.007440272723612532,0,0,0,0,0,0,0,1153,3,neutral,2
54,0.8571428571428571,63.17912,35.50187311010146,49.57425916091719,0,0.7896119582113317,0.7896610842351349,0.79736213702432,-0.00770350327974551,0,0,0,0,0,0,0,1154,3,neutral,2
55,0.873015873015873,67.00966,40.183131690982265,49.3949513603409,0,0.7893646788192481,0.789440970988572,0.7973210207937116,-0.007882497586197969,0,0,0,0,0,0,0,1155,3,neutral,2
56,0.8888888888888888,72.49902,46.24467011495941,49.23333094352962,0,0.7892109893406521,0.789309869867105,0.7972799395519709,-0.00797251467836086,1,0,0,0,0,0,0,1156,3,neutral,2
57,0.9047619047619047,80.06789,54.02160177400487,49.08959833576526,0,0.7891608855160679,0.7892702748894276,0.7972388937054276,-0.007971060943394078,0,0,0,0,0,0,0,1157,3,neutral,2
58,0.9206349206349206,89.33044,63.28667046409297,48.96398158399367,0,0.7892204452806773,0.789322289830925,0.7971978836558103,-0.00787803300716319,0,0,0,0,0,0,0,1158,3,neutral,2
59,0.9365079365079365,99.22963,73.30386834644494,48.85673869905689,0,0.7893811213982693,0.7894635773984202,0.7971569098002479,-0.007695768559494435,0,0,0,0,0,0,0,1159,3,neutral,2
60,0.9523809523809523,108.4701,83.04158027967367,48.768160170456625,0,0.7896309546142604,0.7896894045463261,0.7971159725313219,-0.007429001038076394,0,0,0,0,0,0,0,1160,3,neutral,2
61,0.9682539682539681,115.9237,91.44017475151448,48.69857168123437,0,0.7899579856740675,0.7899927823269433,0.7970750722371717,-0.007084719778265447,0,0,0,0,0,0,0,1161,3,neutral,2
62,0.9841269841269841,120.8913,97.62729382693662,48.64833705364284,0,0.7903502553231073,0.7903646932223484,0.7970342093016471,-0.0066719426813517495,0,0,0,0,0,0,0,1162,3,neutral,2
63,1.0,123.1119,101.02789513117608,48.61786145991603,0,0.7907958043067965,0.7907943942717687,0.7969933841045063,-0.0062014130873808216,0,0,0,0,0,0,0,1163,3,neutral,2
0,0.0,-29.83276,0.0,83.29052864871912,0,0.7747264549533751,0.7746760164826525,0.7724771042234014,0.002177841274432031,0,0,0,0,0,0,0,2277,5,neutral,4
1,0.015873015873015872,-32.72915,0.0,83.68580613833696,0,0.7750890690992169,0.775037824959126,0.772440836708832,0.002575153193158238,0,0,0,0,0,0,0,2278,5,neutral,4
2,0.031746031746031744,-36.33266,0.0,84.07214587085791,0,0.7754458740992478,0.7753950500003927,0.7724045208123896,0.0029679252638660806,0,0,0,0,0,0,0,2279,5,neutral,4
3,0.047619047619047616,-40.38425,0.0,84.44741620872524,0,0.7757894232401069,0.7757408396081886,0.7723681565950422,0.0033493054125143477,0,0,0,0,0,0,0,2280,5,neutral,4
4,0.06349206349206349,-44.19661,0.0,84.80942503940926,0,0.776112269808434,0.7760689062944536,0.7723317441194906,0.0037130060735451813,0,0,0,0,0,0,0,2281,5,neutral,4
5,0.07936507936507936,-46.81158,0.0,85.15592515592516,0,0.7764069726984514,0.7763735359472804,0.7722952834503888,0.004053313055614475,0,0,0,0,0,0,0,2282,5,neutral,4
6,0.09523809523809523,-47.22254,0.0,85.48462091689106,0,0.7766675556622132,0.7766495601975661,0.7722587746545542,0.004365057908033118,0,0,0,0,0,0,0,2283,5,neutral,4
7,0.1111111111111111,-44.67569,0.0,85.793176235216,0,0.7768914580002104,0.7768923001641013,0.7722222178011636,0.004643561665660604,0,0,0,0,0,0,0,2284,5,neutral,4
8,0.12698412698412698,-38.87568,0.0,86.07922392886015,0,0.7770766048778619,0.7770974917961708,0.7721856129619336,0.004884560191325874,0,0,0,0,0,0,0,2285,5,neutral,4
9,0.14285714285714285,-30.05964,0.0,86.34037644810576,0,0.777220921460586,0.7772612047588972,0.7721489602112808,0.005084123061010235,0,0,0,0,0,0,0,2286,5,neutral,4
10,0.15873015873015872,-18.97589,0.0,86.57423797142445,0,0.7773223329138019,0.7773797676912343,0.7721122596264622,0.005238578821702479,0,0,0,0,0,0,0,2287,5,neutral,4
11,0.1746031746031746,-6.694763,0.0,86.77841783646721,0,0.7773787644029283,0.7774497125381848,0.77207551128769,0.005344459323501638,0,0,0,0,0,0,0,2288,5,neutral,4
12,0.19047619047619047,5.59816,0.0,86.95054524421157,0,0.7773881410933842,0.7774677494385424,0.7720387152782202,0.00539847460726979,0,1,0,0,0,0,0,2289,5,neutral,4
13,0.20634920634920634,16.8188,0.0,87.08828514331871,0,0.7773483881505882,0.7774307813621484,0.7720018716844146,0.005397527541828932,0,0,0,0,0,0,0,2290,5,neutral,4
14,0.2222222222222222,26.08786,3.45461200117116,87.18935516888433,0,0.7772574307399593,0.7773359644582423,0.7719649805957709,0.005338774172280477,0,0,0,0,0,0,0,2291,5,neutral,4
15,0.23809523809523808,32.83202,8.993784843454588,87.25154347579065,0,0.7771131940269163,0.7771808161057163,0.7719280421049223,0.005219731770262135,0,0,0,0,0,0,0,2292,5,neutral,4
16,0.25396825396825395,36.73311,11.614295479076922,87.27272727272727,1,0.776913603176878,0.7769633682256158,0.7718910563076026,0.005038432146481941,0,0,0,0,0,0,0,2293,5,neutral,4
17,0.2698412698412698,37.74219,11.298571885980287,87.24255332070972,0,0.7766565833552632,0.7766823588623527,0.7718540233025775,0.004793613232001948,0,0,0,0,0,0,0,2294,5,neutral,4
18,0.2857142857142857,36.07115,8.322843145065034,87.15336663322189,0,0.7763400597274905,0.7763374507388869,0.7718169431915394,0.0044849376335256595,0,0,0,0,0,0,0,2295,5,neutral,4
19,0.30158730158730157,32.17078,3.2091635860209284,87.00733776271501,0,0.7759619574589793,0.7759294618340263,0.7717798160789655,0.004113223210839284,0,0,0,0,0,0,0,2296,5,neutral,4
20,0.31746031746031744,26.73207,0.0,86.80683877962171,0,0.7755202017151482,0.7754605903908236,0.7717426420719395,0.003680668085388734,0,0,0,0,0,0,0,2297,5,neutral,4
21,0.3333333333333333,20.59033,0.0,86.55441489150026,0,0.7750127217311532,0.7749346154560622,0.7717054212799368,0.0031910511799795416,0,0,0,0,0,0,0,2298,5,neutral,4
22,0.3492063492063492,14.56798,0.0,86.25275577472969,0,0.7744411218748041,0.774357054267427,0.7716681538145748,0.0026498896061982694,0,0,0,0,0,0,0,2299,5,neutral,4
23,0.36507936507936506,9.335464,0.0,85.90466710814178,0,0.7738174527492788,0.7737352595661314,0.7716308397893309,0.002064535977322663,0,0,0,0,0,1,0,2300,5,neutral,4
24,0.38095238095238093,5.348373,0.0,85.51304275200778,0,0.7731556084871266,0.7730784430238775,0.7715934793192314,0.0014442018355926654,0,0,0,0,0,0,0,2301,5,neutral,4
25,0.3968253968253968,2.816406,0.0,85.08083796229415,0,0.7724694832208967,0.7723976150538363,0.7715560725205137,0.00079989746352909,0,0,0,0,0,0,0,2302,5,neutral,4
26,0.4126984126984127,1.812744,0.0,84.61104397169439,0,0.7717729710831387,0.7717054358688712,0.771518619510271,0.00014428294251303975,0,0,0,0,0,0,0,2303,5,neutral,4
27,0.42857142857142855,2.33519,0.0,84.10666420812703,0,0.7710799662064014,0.7710159773607695,0.7714811204060816,-0.0005085699676113452,0,0,0,0,0,0,0,2304,5,neutral,4
28,0.4444444444444444,4.33844,0.0,83.57069236043715,0,0.7704043627232338,0.77034439995229,0.7714435753256333,-0.0011435009761131686,0,0,0,0,0,0,0,2305,5,neutral,4
29,0.4603174603174603,7.726761,0.0,83.00609244191214,0,0.7697600547661859,0.769706552912947,0.7714059843863489,-0.0017446609452159306,0,0,0,0,0,0,0,2306,5,neutral,4
30,0.47619047619047616,12.24632,0.0,82.41578094654167,0,0.7691609364678066,0.7691185107051277,0.7713683477050228,-0.0022959755436161165,0,0,0,0,0,0,0,2307,5,neutral,4
31,0.49206349206349204,17.4478,0.0,81.80261114196503,0,0.7686209019606449,0.768596061722958,0.7713306653974775,-0.002781656507273148,0,0,0,0,0,0,0,2308,5,neutral,4
32,0.5079365079365079,22.67728,0.0,81.16935949764434,0,0.7681538453772504,0.7681541692336038,0.7712929375782478,-0.0031867406977921417,0,0,0,0,0,0,0,2309,5,neutral,4
33,0.5238095238095237,27.23352,0.0,80.51871420752124,0,0.7677736608501721,0.7678064272708475,0.7712551643603043,-0.003497634208570348,0,0,0,0,0,0,0,2310,5,neutral,4
34,0.5396825396825397,30.5219,0.0,79.85326573349987,0,0.7674942425119593,0.767564536404648,0.7712173458548224,-0.003702636595005125,0,0,0,0,0,0,0,2311,5,neutral,4
35,0.5555555555555556,32.28882,0.0,79.17549926951885,0,0.7673294844951614,0.767437825376975,0.7711794821710058,-0.003792419238483092,1,0,0,0,0,0,0,2312,5,neutral,4
36,0.5714285714285714,32.68265,0.0,78.48778900549733,0,0.7672932809323274,0.7674328441804433,0.7711415734159709,-0.0037604322676296383,0,0,0,0,0,0,0,2313,5,neutral,4
37,0.5873015873015872,32.26224,0.0,77.79239405565383,0,0.7673995254607904,0.7675530519379765,0.7711036196946968,-0.0036032166785943216,0,0,0,0,0,0,0,2314,5,neutral,4
38,0.6031746031746031,31.83575,0.0,77.0914559060845,0,0.7676563211148798,0.767798618753151,0.7710656211100454,-0.0033206024847268613,0,0,0,0,0,0,0,2315,5,neutral,4
39,0.6190476190476191,32.25475,0.0,76.38699723144819,0,0.7680515928278103,0.7681663546571408,0.7710275777628535,-0.0029157797697237473,0,0,0,0,0,0,0,2316,5,neutral,4
40,0.6349206349206349,34.21074,0.0,75.6809219295075,0,0.7685688730932265,0.768649771359638,0.7709894897520965,-0.0023952369368706273,0,0,0,0,0,0,0,2317,5,neutral,4
41,0.6507936507936507,38.05464,0.0,74.9750162244744,0,0.7691916944047746,0.7692392745253627,0.7709513571751218,-0.0017685684327658968,0,0,0,0,0,0,0,2318,5,neutral,4
42,0.6666666666666666,43.7009,0.0,74.27095069498677,0,0.7699035892560986,0.769922476680816,0.7709131801279492,-0.001048161840866499,0,0,0,0,0,0,0,2319,5,neutral,4
43,0.6825396825396826,50.64371,3.1349916871892316,73.57028308951001,0,0.7706880901408439,0.7706846144013328,0.7708749587056316,-0.00024878069479647436,0,0,0,0,0,0,0,2320,5,neutral,4
44,0.6984126984126984,58.06731,10.338514646340576,72.87446180048576,0,0.7715287295526562,0.7715090486026207,0.7708366930026697,0.0006129358127788852,0,0,0,0,0,0,0,2321,5,neutral,4
45,0.7142857142857142,65.01337,17.15918215329021,72.18482987815774,0,0.7724090399851796,0.7723778236813525,0.7707983831134714,0.0015190319702860248,0,0,0,0,0,0,0,2322,5,neutral,4
46,0.7301587301587301,70.60304,22.7897340048635,71.50262947528373,0,0.7733125539320598,0.7732722597781369,0.7707600291328481,0.0024508278097179416,0,0,0,0,0,0,0,2323,5,neutral,4
47,0.746031746031746,74.27153,26.693748037139745,70.82900662453915,0,0.7742228038869419,0.7741735523047382,0.7707216311565357,0.0033895186333347807,0,0,0,0,0,0,0,2324,5,neutral,4
48,0.7619047619047619,75.85593,28.697510612577965,70.16501626104574,0,0.775123322343471,0.775063353794482,0.7706831892817304,0.004316756863532342,0,0,0,0,0,0,0,2325,5,neutral,4
49,0.7777777777777777,75.64435,28.984466997900153,69.51162741288445,0,0.775997641795292,0.7759243148634198,0.7706447036076295,0.005215193003467631,0,0,0,0,0,0,0,2326,5,neutral,4
50,0.7936507936507936,74.20615,28.00995169220344,68.86972849249744,0,0.7768292947360499,0.7767405634704617,0.7706061742359652,0.006068954896658159,0,0,0,0,0,0,0,2327,5,neutral,4
51,0.8095238095238095,72.19699,26.37848997274854,68.24013263141586,0,0.7776018136593905,0.7774981047035465,0.7705676012715224,0.006864047512635544,0,0,0,0,0,0,0,2328,5,neutral,4
52,0.8253968253968254,70.20306,24.728894941232525,67.62358300967679,0,0.7782987310589579,0.7781851270431013,0.7705289848226303,0.007588659209912396,0,0,0,0,0,0,0,2329,5,neutral,4
53,0.8412698412698412,68.67775,23.652870412407758,67.02075813955567,0,0.7789035794283978,0.7787922055351545,0.770490325001622,0.008233364908638265,0,0,0,0,0,0,0,2330,5,neutral,4
54,0.8571428571428571,67.97644,23.643795669819028,66.4322770708111,0,0.7794033336981898,0.77931239755755,0.7704516219252523,0.008791221856394825,0,0,0,0,0,0,0,2331,5,neutral,4
55,0.873015873015873,68.41733,25.05336106677862,65.85870449151115,0,0.7797997243549758,0.7797412327409543,0.7704128757150716,0.009257759548831197,0,0,0,0,0,0,0,2332,5,neutral,4
56,0.8888888888888888,70.27921,28.038091204361777,65.30055570469739,0,0.7800984346183399,0.7800766047393892,0.7703740864977481,0.009630871499874075,0,0,0,0,0,0,0,2333,5,neutral,4
57,0.9047619047619047,73.63847,32.502499189386135,64.75830146667109,0,0.7803051477530282,0.7803185783434325,0.7703352544053392,0.009910622354658075,0,0,0,0,0,0,0,2334,5,neutral,4
58,0.9206349206349206,78.2531,38.07170830487355,64.23237267759465,0,0.7804255470237865,0.7804691302199472,0.7702963795755086,0.010098988629038262,0,0,0,0,0,0,0,2335,5,neutral,4
59,0.9365079365079365,83.47379,44.13159947693236,63.723164919433295,0,0.7804653156953605,0.7805318447850893,0.7702574621516899,0.010199554582434765,0,0,0,0,0,0,0,2336,5,neutral,4
60,0.9523809523809523,88.39651,49.949894771812644,63.231042840070614,0,0.7804301370324961,0.7805115880694801,0.7702185022831974,0.010217186082894984,0,1,0,0,0,0,0,2337,5,neutral,4
61,0.9682539682539681,92.16515,54.849456146266355,62.75634438576747,0,0.7803256942999394,0.780414181898898,0.7701795001252874,0.010157704787725885,0,0,0,0,0,0,0,2338,5,neutral,4
62,0.9841269841269841,94.24599,58.37204447417304,62.2993848870538,0,0.7801576707624359,0.7802460985021107,0.7701404558391693,0.010027582751313428,0,0,0,0,0,0,0,2339,5,neutral,4
63,1.0,94.58699,60.369389501044814,61.86046100570002,0,0.7799317496847317,0.7800141921250783,0.7701013695919751,0.009833674039359024,0,0,0,0,0,0,0,2340,5,neutral,4
