timestamp,value,norm_ts
1617966973.97827,22.43899,0.9892699718475342
1617966973.99389,17.06606,1.004889965057373
1617966974.00952,11.40161,1.0205199718475342
1617966974.02514,5.748337,1.036139965057373
1617966974.04077,0.4440994,1.0517699718475342
1617966974.05639,-4.215942,1.067389965057373
1617966974.07202,-8.053055,1.0830199718475342
1617966974.08765,-11.02355,1.0986499786376953
1617966974.10327,-13.19775,1.1142699718475342
1617966974.1189,-14.69741,1.1298999786376953
1617966974.13452,-15.60768,1.1455199718475342
1617966974.15015,-15.9413,1.1611499786376953
1617966974.16577,-15.66618,1.1767699718475342
1617966974.1814,-14.72185,1.1923999786376953
1617966974.19703,-13.13395,1.2080299854278564
1617966974.21265,-11.03132,1.2236499786376953
1617966974.22828,-8.6744,1.2392799854278564
1617966974.2439,-6.366661,1.2548999786376953
1617966974.25953,-4.418678,1.2705299854278564
1617966974.27515,-3.098167,1.2861499786376953
1617966974.29078,-2.594467,1.3017799854278564
1617966974.30641,-3.050018,1.3174099922180176
1617966974.32203,-4.54071,1.3330299854278564
1617966974.33766,-7.041039,1.3486599922180176
1617966974.35328,-10.34843,1.3642799854278564
1617966974.36891,-14.05048,1.3799099922180176
1617966974.38453,-17.56853,1.3955299854278564
1617966974.40016,-20.2892,1.4111599922180176
1617966974.41579,-21.7219,1.4267899990081787
1617966974.43141,-21.61304,1.4424099922180176
1617966974.44704,-19.97197,1.4580399990081787
1617966974.46266,-17.03681,1.4736599922180176
1617966974.47829,-13.21204,1.4892899990081787
1617966974.49391,-8.924797,1.5049099922180176
1617966974.50954,-4.621651,1.5205399990081787
1617966974.52517,-0.6667175,1.5361700057983398
1617966974.54079,2.679642,1.5517899990081787
1617966974.55642,5.295273,1.5674200057983398
1617966974.57204,7.225922,1.5830399990081787
1617966974.58767,8.662422,1.5986700057983398
1617966974.60329,9.838585,1.6142899990081787
1617966974.61892,10.91029,1.6299200057983398
1617966974.63455,11.91931,1.645550012588501
1617966974.65017,12.79748,1.6611700057983398
1617966974.6658,13.4349,1.676800012588501
1617966974.68142,13.83398,1.6924200057983398
1617966974.69705,14.07403,1.708050012588501
1617966974.71267,14.27235,1.7236700057983398
1617966974.7283,14.46861,1.739300012588501
1617966974.74393,14.59316,1.754930019378662
1617966974.75955,14.45654,1.770550012588501
1617966974.77518,13.89405,1.786180019378662
1617966974.7908,12.86978,1.801800012588501
1617966974.80643,11.4916,1.817430019378662
1617966974.82205,9.95385,1.833050012588501
1617966974.83768,8.433037,1.848680019378662
1617966974.85331,6.980667,1.8643100261688232
1617966974.86893,5.538635,1.879930019378662
1617966974.88456,4.005455,1.8955600261688232
1617966974.90018,2.350731,1.911180019378662
1617966974.91581,0.6431351,1.9268100261688232
1617966974.93143,-0.9857712,1.942430019378662
1617966974.94706,-2.415077,1.9580600261688232
1617966974.96269,-3.610817,1.9736900329589844
1617966974.97831,-4.59977,1.9893100261688232
1617966974.99394,-5.424324,2.0049400329589844
1617966975.00956,-6.143913,2.0205600261688232
1617966975.02519,-6.782326,2.0361900329589844
1617966975.04081,-7.365219,2.0518100261688232
1617966975.05644,-7.925644,2.0674400329589844
1617966975.07207,-8.473518,2.0830698013305664
1617966975.08769,-8.988792,2.0986900329589844
1617966975.10332,-9.399536,2.1143198013305664
1617966975.11894,-9.638634,2.1299400329589844
1617966975.13457,-9.658218,2.1455698013305664
1617966975.15019,-9.521278,2.1611900329589844
1617966975.16582,-9.371323,2.1768198013305664
1617966975.18145,-9.39576,2.1924498081207275
1617966975.19707,-9.764534,2.2080698013305664
1617966975.2127,-10.55504,2.2236998081207275
1617966975.22832,-11.75111,2.2393198013305664
1617966975.24395,-13.20716,2.2549498081207275
1617966975.25957,-14.64346,2.2705698013305664
1617966975.2752,-15.64633,2.2861998081207275
1617966975.29083,-15.74144,2.3018298149108887
1617966975.30645,-14.47678,2.3174498081207275
1617966975.32208,-11.63492,2.3330798149108887
1617966975.3377,-7.347771,2.3486998081207275
1617966975.35333,-2.117073,2.3643298149108887
1617966975.36895,3.319412,2.3799498081207275
1617966975.38458,8.170929,2.3955798149108887
1617966975.40021,11.87564,2.41120982170105
1617966975.41583,14.1883,2.4268298149108887
1617966975.43146,15.19593,2.44245982170105
1617966975.44708,15.21265,2.4580798149108887
1617966975.46271,14.58996,2.47370982170105
1617966975.47833,13.64425,2.4893298149108887
1617966975.49396,12.55666,2.50495982170105
1617966975.50959,11.39456,2.520589828491211
1617966975.52521,10.19461,2.53620982170105
1617966975.54084,8.990677,2.551839828491211
1617966975.55646,7.83329,2.56745982170105
1617966975.57209,6.782104,2.583089828491211
1617966975.58771,5.907204,2.59870982170105
1617966975.60334,5.241829,2.614339828491211
1617966975.61897,4.805901,2.629969835281372
1617966975.63459,4.597191,2.645589828491211
1617966975.65022,4.566803,2.661219835281372
1617966975.66584,4.653343,2.676839828491211
1617966975.68147,4.756836,2.692469835281372
1617966975.69709,4.754425,2.708089828491211
1617966975.71272,4.518349,2.723719835281372
1617966975.72835,3.966812,2.739349842071533
1617966975.74397,3.097855,2.754969835281372
1617966975.7596,2.020172,2.770599842071533
1617966975.77522,0.916626,2.786219835281372
1617966975.79085,-0.0397644,2.801849842071533
1617966975.80647,-0.7516174,2.817469835281372
1617966975.8221,-1.24279,2.833099842071533
1617966975.83773,-1.649994,2.8487298488616943
1617966975.85335,-2.139145,2.864349842071533
1617966975.86898,-2.787392,2.8799798488616943
1617966975.8846,-3.568405,2.895599842071533
1617966975.90023,-4.330475,2.9112298488616943
1617966975.91585,-4.890038,2.926849842071533
1617966975.93148,-5.14624,2.9424798488616943
1617966975.94711,-5.107285,2.9581098556518555
1617966975.96273,-4.917305,2.9737298488616943
1617966975.97836,-4.783493,2.9893598556518555
1617966975.99398,-4.887154,3.0049798488616943
1617966976.00961,-5.28315,3.0206098556518555
1617966976.02523,-5.917381,3.0362298488616943
1617966976.04086,-6.652206,3.0518598556518555
1617966976.05649,-7.337471,3.0674898624420166
1617966976.07211,-7.927574,3.0831098556518555
1617966976.08774,-8.458847,3.0987398624420166
1617966976.10336,-9.042053,3.1143598556518555
1617966976.11899,-9.756958,3.1299898624420166
1617966976.13461,-10.64558,3.1456098556518555
1617966976.15024,-11.67756,3.1612398624420166
1617966976.16587,-12.80889,3.1768698692321777
1617966976.18149,-13.95746,3.1924898624420166
1617966976.19712,-14.93931,3.2081198692321777
1617966976.21274,-15.44154,3.2237398624420166
1617966976.22837,-15.02631,3.2393698692321777
1617966976.24399,-13.27845,3.2549898624420166
1617966976.25962,-10.00072,3.2706198692321777
1617966976.27525,-5.402512,3.286249876022339
1617966976.29087,-0.09207153,3.3018698692321777
1617966976.3065,5.096863,3.317499876022339
1617966976.32212,9.390472,3.3331198692321777
1617966976.33775,12.36409,3.348749876022339
1617966976.35337,13.97089,3.3643698692321777
1617966976.369,14.49637,3.379999876022339
1617966976.38463,14.31293,3.3956298828125
1617966976.40025,13.7338,3.411249876022339
1617966976.41588,12.93255,3.4268798828125
1617966976.4315,11.94224,3.442499876022339
1617966976.44713,10.80518,3.4581298828125
1617966976.46276,9.60997,3.473759889602661
1617966976.47838,8.508446,3.4893798828125
1617966976.49401,7.653191,3.505009889602661
1617966976.50963,7.091042,3.5206298828125
1617966976.52526,6.761101,3.536259889602661
1617966976.54088,6.501511,3.5518798828125
1617966976.55651,6.155975,3.567509889602661
1617966976.57214,5.656075,3.5831398963928223
1617966976.58776,5.066666,3.598759889602661
1617966976.60339,4.507072,3.6143898963928223
1617966976.61901,4.095551,3.630009889602661
1617966976.63464,3.824966,3.6456398963928223
1617966976.65026,3.594795,3.661259889602661
1617966976.66589,3.262207,3.6768898963928223
1617966976.68152,2.74955,3.6925199031829834
1617966976.69714,2.08606,3.7081398963928223
1617966976.71277,1.370522,3.7237699031829834
1617966976.72839,0.7231216,3.7393898963928223
1617966976.74402,0.165657,3.7550199031829834
1617966976.75964,-0.3203583,3.7706398963928223
1617966976.77527,-0.800209,3.7862699031829834
1617966976.7909,-1.296738,3.8018999099731445
1617966976.80652,-1.785782,3.8175199031829834
1617966976.82215,-2.221657,3.8331499099731445
1617966976.83777,-2.566986,3.8487699031829834
1617966976.8534,-2.831161,3.8643999099731445
1617966976.86902,-3.069237,3.8800199031829834
1617966976.88465,-3.370476,3.8956499099731445
1617966976.90028,-3.838707,3.9112799167633057
1617966976.9159,-4.524155,3.9268999099731445
1617966976.93153,-5.416519,3.9425299167633057
1617966976.94715,-6.406105,3.9581499099731445
1617966976.96278,-7.322922,3.9737799167633057
1617966976.9784,-8.009018,3.9893999099731445
1617966976.99403,-8.399696,4.005029916763306
1617966977.00966,-8.536324,4.020659923553467
1617966977.02528,-8.587593,4.036279916763306
1617966977.04091,-8.745865,4.051909923553467
1617966977.05653,-9.15461,4.067529916763306
1617966977.07216,-9.814636,4.083159923553467
1617966977.08778,-10.62331,4.098779916763306
1617966977.10341,-11.43069,4.114409923553467
1617966977.11904,-11.99842,4.130039930343628
1617966977.13466,-12.11077,4.145659923553467
1617966977.15029,-11.51917,4.161289930343628
1617966977.16591,-10.03581,4.176909923553467
1617966977.18154,-7.562813,4.192539930343628
1617966977.19716,-4.184647,4.208159923553467
1617966977.21279,-0.188858,4.223789930343628
1617966977.22842,3.999458,4.239419937133789
1617966977.24404,7.888512,4.255039930343628
1617966977.25967,11.05602,4.270669937133789
1617966977.27529,13.21612,4.286289930343628
1617966977.29092,14.26445,4.301919937133789
1617966977.30654,14.23459,4.317539930343628
1617966977.32217,13.25444,4.333169937133789
1617966977.3378,11.5218,4.34879994392395
1617966977.35342,9.286629,4.364419937133789
1617966977.36905,6.823242,4.38004994392395
1617966977.38467,4.419937,4.395669937133789
1617966977.4003,2.340225,4.41129994392395
1617966977.41592,0.7702255,4.426919937133789
1617966977.43155,-0.1941223,4.44254994392395
1617966977.44718,-0.5872574,4.458179950714111
1617966977.4628,-0.549202,4.47379994392395
1617966977.47843,-0.2799835,4.489429950714111
1617966977.49405,0.001983643,4.50504994392395
1617966977.50968,0.1530685,4.520679950714111
1617966977.5253,0.1352615,4.53629994392395
1617966977.54093,0.04045868,4.551929950714111
1617966977.55656,-0.02237701,4.5675599575042725
1617966977.57218,0.03678131,4.583179950714111
1617966977.58781,0.2331161,4.5988099575042725
1617966977.60343,0.4945831,4.614429950714111
1617966977.61906,0.7219543,4.6300599575042725
1617966977.63468,0.8084717,4.645679950714111
1617966977.65031,0.6951904,4.6613099575042725
1617966977.66594,0.337532,4.676939964294434
1617966977.68156,-0.2570343,4.6925599575042725
1617966977.69719,-1.043625,4.708189964294434
1617966977.71281,-1.940048,4.7238099575042725
1617966977.72844,-2.780937,4.739439964294434
1617966977.74406,-3.424858,4.7550599575042725
1617966977.75969,-3.793877,4.770689964294434
1617966977.77532,-3.952316,4.786319971084595
1617966977.79094,-4.056015,4.801939964294434
1617966977.80657,-4.295288,4.817569971084595
1617966977.82219,-4.775261,4.833189964294434
1617966977.83782,-5.446495,4.848819971084595
1617966977.85344,-6.135666,4.864439964294434
1617966977.86907,-6.677635,4.880069971084595
1617966977.8847,-7.008919,4.895699977874756
1617966977.90032,-7.172852,4.911319971084595
1617966977.91595,-7.267372,4.926949977874756
1617966977.93157,-7.36322,4.942569971084595
1617966977.9472,-7.488907,4.958199977874756
1617966977.96282,-7.630035,4.973819971084595
1617966977.97845,-7.755707,4.989449977874756
1617966977.99408,-7.819458,5.005079984664917
1617966978.0097,-7.716965,5.020699977874756
1617966978.02533,-7.233925,5.036329984664917
1617966978.04095,-6.105835,5.051949977874756
1617966978.05658,-4.074959,5.067579984664917
1617966978.0722,-1.077034,5.083199977874756
1617966978.08783,2.670212,5.098829984664917
1617966978.10346,6.714005,5.114459991455078
1617966978.11908,10.50388,5.130079984664917
1617966978.13471,13.57192,5.145709991455078
1617966978.15033,15.66722,5.161329984664917
1617966978.16596,16.74393,5.176959991455078
1617966978.18158,16.87651,5.192579984664917
1617966978.19721,16.21066,5.208209991455078
1617966978.21284,14.91386,5.223839998245239
1617966978.22846,13.20511,5.239459991455078
1617966978.24409,11.34079,5.255089998245239
1617966978.25971,9.579315,5.270709991455078
1617966978.27534,8.095558,5.286339998245239
1617966978.29096,6.964638,5.301959991455078
1617966978.30659,6.130165,5.317589998245239
1617966978.32222,5.438362,5.3332200050354
1617966978.33784,4.743813,5.348839998245239
1617966978.35347,3.968155,5.3644700050354
1617966978.36909,3.133835,5.380089998245239
1617966978.38472,2.347305,5.3957200050354
1617966978.40034,1.717468,5.411339998245239
1617966978.41597,1.308243,5.4269700050354
1617966978.4316,1.09536,5.4426000118255615
1617966978.44722,0.9461975,5.4582200050354
1617966978.46285,0.6660385,5.4738500118255615
1617966978.47847,0.09868622,5.4894700050354
1617966978.4941,-0.7880478,5.5051000118255615
1617966978.50972,-1.883347,5.5207200050354
1617966978.52535,-2.967583,5.5363500118255615
1617966978.54098,-3.8592,5.551980018615723
1617966978.5566,-4.493797,5.5676000118255615
1617966978.57223,-4.974945,5.583230018615723
1617966978.58785,-5.467407,5.5988500118255615
1617966978.60348,-6.07135,5.614480018615723
1617966978.61911,-6.742615,5.630110025405884
1617966978.63473,-7.331558,5.645730018615723
1617966978.65036,-7.705574,5.661360025405884
1617966978.66598,-7.840282,5.676980018615723
1617966978.68161,-7.859825,5.692610025405884
1617966978.69723,-7.988102,5.708230018615723
1617966978.71286,-8.414413,5.723860025405884
1617966978.72849,-9.237408,5.739490032196045
1617966978.74411,-10.42413,5.755110025405884
1617966978.75974,-11.81775,5.770740032196045
1617966978.77536,-13.20247,5.786360025405884
1617966978.79099,-14.25634,5.801990032196045
1617966978.80661,-14.53667,5.817610025405884
1617966978.82224,-13.6113,5.833240032196045
1617966978.83787,-11.19584,5.848869800567627
1617966978.85349,-7.318542,5.864490032196045
1617966978.86912,-2.430725,5.880119800567627
1617966978.88474,2.731903,5.895740032196045
1617966978.90037,7.375843,5.911369800567627
1617966978.91599,10.8881,5.926990032196045
1617966978.93162,12.99815,5.942619800567627
1617966978.94725,13.77549,5.958249807357788
1617966978.96287,13.50007,5.973869800567627
1617966978.9785,12.50208,5.989499807357788
1617966978.99412,11.09372,6.005119800567627
1617966979.00975,9.538006,6.020749807357788
1617966979.02537,8.038715,6.036369800567627
1617966979.041,6.769527,6.051999807357788
1617966979.05663,5.792938,6.067629814147949
1617966979.07225,5.083374,6.083249807357788
1617966979.08788,4.543236,6.098879814147949
1617966979.1035,4.079811,6.114499807357788
1617966979.11913,3.682373,6.130129814147949
1617966979.13475,3.412941,6.145749807357788
1617966979.15038,3.318535,6.161379814147949
1617966979.16601,3.379463,6.17700982093811
1617966979.18163,3.513832,6.192629814147949
1617966979.19726,3.603672,6.20825982093811
1617966979.21288,3.562073,6.223879814147949
1617966979.22851,3.371796,6.23950982093811
1617966979.24413,3.061371,6.255129814147949
1617966979.25976,2.636021,6.27075982093811
1617966979.27539,2.041664,6.2863898277282715
1617966979.29101,1.15538,6.30200982093811
1617966979.30664,-0.09212875,6.3176398277282715
1617966979.32226,-1.651596,6.33325982093811
1617966979.33789,-3.344669,6.3488898277282715
1617966979.35351,-4.909756,6.36450982093811
1617966979.36914,-6.133873,6.3801398277282715
1617966979.38477,-6.959019,6.395769834518433
1617966979.40039,-7.45784,6.4113898277282715
1617966979.41602,-7.812866,6.427019834518433
1617966979.43164,-8.213608,6.4426398277282715
1617966979.44727,-8.804337,6.458269834518433
1617966979.46289,-9.655815,6.4738898277282715
1617966979.47852,-10.78782,6.489519834518433
1617966979.49415,-12.14381,6.505149841308594
1617966979.50977,-13.50883,6.520769834518433
1617966979.5254,-14.51347,6.536399841308594
1617966979.54102,-14.64676,6.552019834518433
1617966979.55665,-13.4268,6.567649841308594
1617966979.57227,-10.6012,6.583269834518433
1617966979.5879,-6.283077,6.598899841308594
1617966979.60353,-0.9933128,6.614529848098755
1617966979.61915,4.512043,6.630149841308594
1617966979.63478,9.467716,6.645779848098755
1617966979.6504,13.35512,6.661399841308594
1617966979.66603,15.95694,6.677029848098755
1617966979.68165,17.34826,6.692649841308594
1617966979.69728,17.76995,6.708279848098755
1617966979.71291,17.4539,6.723909854888916
1617966979.72853,16.55623,6.739529848098755
1617966979.74416,15.16035,6.755159854888916
1617966979.75978,13.36794,6.770779848098755
1617966979.77541,11.34882,6.786409854888916
1617966979.79103,9.348473,6.802029848098755
1617966979.80666,7.622307,6.817659854888916
1617966979.82229,6.3204,6.833289861679077
1617966979.83791,5.431133,6.848909854888916
1617966979.85354,4.821728,6.864539861679077
1617966979.86916,4.318653,6.880159854888916
1617966979.88479,3.809204,6.895789861679077
1617966979.90041,3.324898,6.911409854888916
1617966979.91604,2.947144,6.927039861679077
1617966979.93167,2.743553,6.942669868469238
1617966979.94729,2.62228,6.958289861679077
1617966979.96292,2.36974,6.973919868469238
1617966979.97854,1.729572,6.989539861679077
1617966979.99417,0.5808601,7.005169868469238
1617966980.00979,-0.9749222,7.020789861679077
1617966980.02542,-2.691238,7.036419868469238
1617966980.04105,-4.266285,7.052049875259399
1617966980.05667,-5.556725,7.067669868469238
1617966980.0723,-6.588882,7.083299875259399
1617966980.08792,-7.495426,7.098919868469238
1617966980.10355,-8.413559,7.114549875259399
1617966980.11917,-9.397984,7.130169868469238
1617966980.1348,-10.39194,7.145799875259399
1617966980.15043,-11.3551,7.1614298820495605
1617966980.16605,-12.32488,7.177049875259399
1617966980.18168,-13.42168,7.1926798820495605
1617966980.1973,-14.76302,7.208299875259399
1617966980.21293,-16.32151,7.2239298820495605
1617966980.22855,-17.82187,7.239549875259399
1617966980.24418,-18.77507,7.2551798820495605
1617966980.25981,-18.62064,7.270809888839722
1617966980.27543,-16.99821,7.2864298820495605
1617966980.29106,-13.83167,7.302059888839722
1617966980.30668,-9.419315,7.3176798820495605
1617966980.32231,-4.261604,7.333309888839722
1617966980.33793,1.057304,7.3489298820495605
1617966980.35356,6.036587,7.364559888839722
1617966980.36919,10.31934,7.380189895629883
1617966980.38481,13.65352,7.395809888839722
1617966980.40044,15.88905,7.411439895629883
1617966980.41606,16.90913,7.427059888839722
1617966980.43169,16.71749,7.442689895629883
1617966980.44731,15.41671,7.458309888839722
1617966980.46294,13.29082,7.473939895629883
1617966980.47857,10.74566,7.489569902420044
1617966980.49419,8.233894,7.505189895629883
1617966980.50982,6.168297,7.520819902420044
1617966980.52544,4.788605,7.536439895629883
1617966980.54107,4.153015,7.552069902420044
1617966980.55669,4.081123,7.567689895629883
1617966980.57232,4.268158,7.583319902420044
1617966980.58795,4.364254,7.598949909210205
1617966980.60357,4.098598,7.614569902420044
1617966980.6192,3.371559,7.630199909210205
1617966980.63482,2.274189,7.645819902420044
1617966980.65045,1.037045,7.661449909210205
1617966980.66607,-0.1601753,7.677069902420044
1617966980.6817,-1.252853,7.692699909210205
1617966980.69733,-2.363564,7.708329916000366
1617966980.71295,-3.760902,7.723949909210205
1617966980.72858,-5.679008,7.739579916000366
1617966980.7442,-8.22155,7.755199909210205
1617966980.75983,-11.22694,7.770829916000366
1617966980.77545,-14.35551,7.786449909210205
1617966980.79108,-17.20581,7.802079916000366
1617966980.80671,-19.51105,7.817709922790527
1617966980.82233,-21.24824,7.833329916000366
1617966980.83796,-22.63752,7.848959922790527
1617966980.85358,-24.06869,7.864579916000366
1617966980.86921,-25.91223,7.880209922790527
1617966980.88484,-28.37058,7.8958399295806885
1617966980.90046,-31.40367,7.911459922790527
1617966980.91609,-34.72662,7.9270899295806885
1617966980.93171,-37.84888,7.942709922790527
1617966980.94734,-40.18998,7.9583399295806885
1617966980.96296,-41.16631,7.973959922790527
1617966980.97859,-40.3318,7.9895899295806885
1617966980.99422,-37.44788,8.00521993637085
1617966981.00984,-32.55145,8.020839929580688
1617966981.02547,-25.95752,8.03646993637085
1617966981.04109,-18.19221,8.052089929580688
1617966981.05672,-9.912702,8.06771993637085
1617966981.07234,-1.793819,8.083339929580688
1617966981.08797,5.598077,8.09896993637085
1617966981.1036,11.89075,8.11459994316101
1617966981.11922,16.96947,8.13021993637085
1617966981.13485,20.95428,8.14584994316101
1617966981.15047,24.09266,8.16146993637085
1617966981.1661,26.62988,8.17709994316101
1617966981.18172,28.69338,8.19271993637085
1617966981.19735,30.30617,8.20834994316101
1617966981.21298,31.46753,8.223979949951172
1617966981.2286,32.3296,8.23959994316101
1617966981.24423,33.2264,8.255229949951172
1617966981.25985,34.58954,8.27084994316101
1617966981.27548,36.72364,8.286479949951172
1617966981.2911,39.58392,8.30209994316101
1617966981.30673,42.81272,8.317729949951172
1617966981.32236,45.82787,8.333359956741333
1617966981.33798,48.14819,8.348979949951172
1617966981.35361,49.60372,8.364609956741333
1617966981.36923,50.38815,8.380229949951172
1617966981.38486,50.943,8.395859956741333
1617966981.40048,51.74863,8.411479949951172
1617966981.41611,53.11095,8.427109956741333
1617966981.43174,55.04386,8.442739963531494
1617966981.44736,57.34966,8.458359956741333
1617966981.46299,59.72063,8.473989963531494
1617966981.47861,61.92387,8.489609956741333
1617966981.49424,63.90835,8.505239963531494
1617966981.50986,65.79984,8.520859956741333
1617966981.52549,67.84503,8.536489963531494
1617966981.54112,70.22368,8.552119970321655
1617966981.55674,72.94681,8.567739963531494
1617966981.57237,75.7716,8.583369970321655
1617966981.58799,78.36029,8.598989963531494
1617966981.60362,80.3854,8.614619970321655
1617966981.61924,81.60138,8.630239963531494
1617966981.63487,81.77567,8.645869970321655
1617966981.6505,80.5947,8.661499977111816
1617966981.66612,77.63351,8.677119970321655
1617966981.68175,72.53767,8.692749977111816
1617966981.69737,65.23166,8.708369970321655
1617966981.713,56.13728,8.723999977111816
1617966981.72862,46.11888,8.739619970321655
1617966981.74425,36.18044,8.755249977111816
1617966981.75988,27.15656,8.770879983901978
1617966981.7755,19.41706,8.786499977111816
1617966981.79113,12.84335,8.802129983901978
1617966981.80675,6.958557,8.817749977111816
1617966981.82238,1.132011,8.833379983901978
1617966981.838,-5.266525,8.848999977111816
1617966981.85363,-12.81041,8.864629983901978
1617966981.86926,-21.94055,8.880259990692139
1617966981.88488,-32.96359,8.895879983901978
1617966981.90051,-45.87923,8.911509990692139
1617966981.91613,-60.31706,8.927129983901978
1617966981.93176,-75.58496,8.942759990692139
1617966981.94738,-90.76636,8.958379983901978
1617966981.96301,-104.9169,8.974009990692139
1617966981.97864,-117.1689,8.9896399974823
1617966981.99426,-126.8436,9.005259990692139
1617966982.00989,-133.5068,9.0208899974823
1617966982.02551,-137.0421,9.036509990692139
1617966982.04114,-137.6333,9.0521399974823
1617966982.05676,-135.7278,9.067759990692139
1617966982.07239,-131.9386,9.0833899974823
1617966982.08802,-126.8861,9.099020004272461
1617966982.10364,-121.1187,9.1146399974823
1617966982.11927,-115.1257,9.130270004272461
1617966982.13489,-109.3752,9.1458899974823
1617966982.15052,-104.336,9.161520004272461
1617966982.16614,-100.4691,9.1771399974823
1617966982.18177,-98.03403,9.192770004272461
1617966982.1974,-97.03601,9.208400011062622
1617966982.21302,-97.12589,9.224020004272461
1617966982.22865,-97.72545,9.239650011062622
1617966982.24427,-98.31702,9.255270004272461
1617966982.2599,-98.60022,9.270900011062622
1617966982.27552,-98.64993,9.286520004272461
1617966982.29115,-98.85176,9.302150011062622
1617966982.30678,-99.7278,9.317780017852783
1617966982.3224,-101.7889,9.333400011062622
1617966982.33803,-105.3206,9.349030017852783
1617966982.35365,-110.2044,9.364650011062622
1617966982.36928,-115.7255,9.380280017852783
1617966982.3849,-120.4874,9.395900011062622
1617966982.40053,-122.5822,9.411530017852783
1617966982.41616,-120.1056,9.427160024642944
1617966982.43178,-111.9385,9.442780017852783
1617966982.44741,-98.40142,9.458410024642944
1617966982.46303,-81.39217,9.474030017852783
1617966982.47866,-63.87712,9.489660024642944
1617966982.49428,-48.75667,9.505280017852783
1617966982.50991,-37.70969,9.520910024642944
1617966982.52554,-30.63015,9.536540031433105
1617966982.54116,-25.83598,9.552160024642944
1617966982.55679,-21.05011,9.567790031433105
1617966982.57241,-14.57907,9.583410024642944
1617966982.58804,-6.032663,9.599040031433105
1617966982.60366,3.697392,9.614660024642944
1617966982.61929,13.11465,9.630290031433105
1617966982.63492,21.01268,9.645919799804688
1617966982.65054,27.06382,9.661540031433105
1617966982.66617,31.82996,9.677169799804688
1617966982.68179,36.33088,9.692790031433105
1617966982.69742,41.35812,9.708419799804688
1617966982.71304,47.12885,9.724040031433105
1617966982.72867,53.238,9.739669799804688
1617966982.7443,58.98709,9.755299806594849
1617966982.75992,63.80376,9.770919799804688
1617966982.77555,67.53464,9.786549806594849
1617966982.79117,70.4262,9.802169799804688
1617966982.8068,72.89191,9.817799806594849
1617966982.82242,75.13951,9.833419799804688
1617966982.83805,77.00314,9.849049806594849
1617966982.85368,77.93777,9.86467981338501
1617966982.8693,77.28281,9.880299806594849
1617966982.88493,74.56999,9.89592981338501
1617966982.90055,69.74751,9.911549806594849
1617966982.91618,63.20122,9.92717981338501
1617966982.9318,55.59222,9.942799806594849
1617966982.94743,47.63695,9.95842981338501
1617966982.96306,39.91795,9.974059820175171
1617966982.97868,32.80977,9.98967981338501
1617966982.99431,26.48137,10.005309820175171
1617966983.00993,20.94167,10.02092981338501
1617966983.02556,16.07474,10.036559820175171
1617966983.04118,11.64352,10.05217981338501
1617966983.05681,7.3461,10.067809820175171
1617966983.07244,2.881714,10.083439826965332
1617966983.08806,-1.819275,10.099059820175171
1617966983.10369,-6.362122,10.114689826965332
1617966983.11931,-9.719696,10.130309820175171
1617966983.13494,-10.28577,10.145939826965332
1617966983.15056,-6.164185,10.161559820175171
1617966983.16619,4.226654,10.177189826965332
1617966983.18182,21.59372,10.192819833755493
1617966983.19744,45.25858,10.208439826965332
1617966983.21307,73.14792,10.224069833755493
1617966983.22869,102.2163,10.239689826965332
1617966983.24432,129.2575,10.255319833755493
1617966983.25994,151.6511,10.270939826965332
1617966983.27557,167.9393,10.286569833755493
1617966983.2912,177.9198,10.302199840545654
1617966983.30682,182.3706,10.317819833755493
1617966983.32245,182.614,10.333449840545654
1617966983.33807,180.0753,10.349069833755493
1617966983.3537,175.9702,10.364699840545654
1617966983.36932,171.1413,10.380319833755493
1617966983.38495,165.9399,10.395949840545654
1617966983.40058,160.2135,10.411579847335815
1617966983.4162,153.3767,10.427199840545654
1617966983.43183,144.641,10.442829847335815
1617966983.44745,133.3274,10.458449840545654
1617966983.46308,119.2028,10.474079847335815
1617966983.47871,102.6531,10.489709854125977
1617966983.49433,84.5925,10.505329847335815
1617966983.50996,66.20386,10.520959854125977
1617966983.52558,48.57742,10.536579847335815
1617966983.54121,32.41238,10.552209854125977
1617966983.55683,18.01303,10.567829847335815
1617966983.57246,5.300171,10.583459854125977
1617966983.58809,-5.942444,10.599089860916138
1617966983.60371,-15.90573,10.614709854125977
1617966983.61934,-24.66559,10.630339860916138
1617966983.63496,-32.17902,10.645959854125977
1617966983.65059,-38.37878,10.661589860916138
1617966983.66621,-43.26227,10.677209854125977
1617966983.68184,-46.95291,10.692839860916138
1617966983.69747,-49.66635,10.708469867706299
1617966983.71309,-51.69234,10.724089860916138
1617966983.72872,-53.33218,10.739719867706299
1617966983.74434,-54.90039,10.755339860916138
1617966983.75997,-56.60143,10.770969867706299
1617966983.77559,-58.51543,10.786589860916138
1617966983.79122,-60.41687,10.802219867706299
1617966983.80685,-61.72711,10.81784987449646
1617966983.82247,-61.62968,10.833469867706299
1617966983.8381,-59.32697,10.84909987449646
1617966983.85372,-54.4408,10.864719867706299
1617966983.86935,-47.29579,10.88034987449646
1617966983.88497,-38.87996,10.895969867706299
1617966983.9006,-30.62196,10.91159987449646
1617966983.91623,-23.88751,10.927229881286621
1617966983.93185,-19.56308,10.94284987449646
1617966983.94748,-17.77477,10.958479881286621
1617966983.9631,-18.0645,10.97409987449646
1617966983.97873,-19.56865,10.989729881286621
1617966983.99435,-21.46281,11.00534987449646
1617966984.00998,-23.11284,11.020979881286621
1617966984.02561,-24.20634,11.036609888076782
1617966984.04123,-24.6524,11.052229881286621
1617966984.05686,-24.52319,11.067859888076782
1617966984.07248,-23.95932,11.083479881286621
1617966984.08811,-23.12064,11.099109888076782
1617966984.10373,-22.1626,11.114729881286621
1617966984.11936,-21.17694,11.130359888076782
1617966984.13499,-20.18941,11.145989894866943
1617966984.15061,-19.13821,11.161609888076782
1617966984.16624,-17.91286,11.177239894866943
1617966984.18186,-16.41557,11.192859888076782
1617966984.19749,-14.62076,11.208489894866943
1617966984.21311,-12.6105,11.224109888076782
1617966984.22874,-10.52541,11.239739894866943
1617966984.24437,-8.587151,11.255369901657104
1617966984.25999,-6.958839,11.270989894866943
1617966984.27562,-5.729095,11.286619901657104
1617966984.29124,-4.838623,11.302239894866943
1617966984.30687,-4.083862,11.317869901657104
1617966984.32249,-3.169792,11.333489894866943
1617966984.33812,-1.865669,11.349119901657104
1617966984.35375,-0.1399155,11.364749908447266
1617966984.36937,1.741547,11.380369901657104
1617966984.385,3.24601,11.395999908447266
1617966984.40062,3.816368,11.411619901657104
1617966984.41625,3.138222,11.427249908447266
1617966984.43187,1.369446,11.442869901657104
1617966984.4475,-0.8244858,11.458499908447266
1617966984.46313,-2.55603,11.474129915237427
1617966984.47875,-3.122009,11.489749908447266
1617966984.49438,-2.333931,11.505379915237427
1617966984.51,-0.6369019,11.520999908447266
1617966984.52563,1.13353,11.536629915237427
1617966984.54125,2.167229,11.552249908447266
1617966984.55688,2.06485,11.567879915237427
1617966984.57251,1.000496,11.583509922027588
1617966984.58813,-0.4330215,11.599129915237427
1617966984.60376,-1.514999,11.614759922027588
1617966984.61938,-1.772614,11.630379915237427
1617966984.63501,-1.108765,11.646009922027588
1617966984.65063,0.1784439,11.661629915237427
1617966984.66626,1.656158,11.677259922027588
1617966984.68189,3.008438,11.692889928817749
1617966984.69751,4.207672,11.708509922027588
1617966984.71314,5.528152,11.724139928817749
1617966984.72876,7.316032,11.739759922027588
1617966984.74439,9.77282,11.755389928817749
1617966984.76001,12.65952,11.771009922027588
1617966984.77564,15.40059,11.786639928817749
1617966984.79127,17.26218,11.80226993560791
1617966984.80689,17.69355,11.817889928817749
1617966984.82252,16.6689,11.83351993560791
1617966984.83814,14.79819,11.849139928817749
1617966984.85377,13.15659,11.86476993560791
1617966984.86939,12.78864,11.880389928817749
1617966984.88502,14.39592,11.89601993560791
1617966984.90065,17.82527,11.911649942398071
1617966984.91627,22.31897,11.92726993560791
1617966984.9319,26.58445,11.942899942398071
1617966984.94752,29.07686,11.95851993560791
1617966984.96315,28.21534,11.974149942398071
1617966984.97877,22.73381,11.98976993560791
1617966984.9944,12.08925,12.005399942398071
1617966985.01003,-3.244907,12.021029949188232
1617966985.02565,-21.07577,12.036649942398071
1617966985.04128,-38.37628,12.052279949188232
1617966985.0569,-51.86753,12.067899942398071
1617966985.07253,-59.50802,12.083529949188232
1617966985.08815,-61.49334,12.099149942398071
1617966985.10378,-60.30038,12.114779949188232
1617966985.11941,-59.5293,12.130409955978394
1617966985.13503,-62.25399,12.146029949188232
1617966985.15066,-70.19594,12.161659955978394
1617966985.16628,-82.5584,12.177279949188232
1617966985.18191,-97.54162,12.192909955978394
1617966985.19753,-112.7426,12.208529949188232
1617966985.21316,-125.875,12.224159955978394
1617966985.22879,-135.2366,12.239789962768555
1617966985.24441,-139.9164,12.255409955978394
1617966985.26004,-140.046,12.271039962768555
1617966985.27566,-137.3324,12.286659955978394
1617966985.29129,-135.5606,12.302289962768555
1617966985.30691,-135.5201,12.317909955978394
1617966985.32254,-137.8259,12.333539962768555
1617966985.33817,-140.8007,12.349169969558716
1617966985.35379,-140.2063,12.364789962768555
1617966985.36942,-131.216,12.380419969558716
1617966985.38504,-110.8643,12.396039962768555
1617966985.40067,-78.99819,12.411669969558716
1617966985.41629,-37.85039,12.427289962768555
1617966985.43192,8.616291,12.442919969558716
1617966985.44755,57.65501,12.458549976348877
1617966985.46317,106.4047,12.474169969558716
1617966985.4788,151.738,12.489799976348877
1617966985.49442,190.0081,12.505419969558716
1617966985.51005,217.5259,12.521049976348877
1617966985.52567,231.8066,12.536669969558716
1617966985.5413,232.8404,12.552299976348877
1617966985.55693,227.8775,12.567929983139038
1617966985.57255,218.3693,12.583549976348877
1617966985.58818,206.9096,12.599179983139038
1617966985.6038,195.5494,12.614799976348877
1617966985.61943,185.2091,12.630429983139038
1617966985.63505,175.4494,12.646049976348877
1617966985.65068,164.8691,12.661679983139038
1617966985.66631,151.934,12.6773099899292
1617966985.68193,135.9026,12.692929983139038
1617966985.69756,116.7316,12.7085599899292
1617966985.71318,94.32439,12.724179983139038
1617966985.72881,69.8073,12.7398099899292
1617966985.74444,43.91599,12.75543999671936
1617966985.76006,16.92988,12.7710599899292
1617966985.77569,-11.02682,12.78668999671936
1617966985.79131,-39.60207,12.8023099899292
1617966985.80694,-69.01184,12.81793999671936
1617966985.82256,-96.89462,12.8335599899292
1617966985.83819,-120.4477,12.84918999671936
1617966985.85382,-138.0884,12.864820003509521
1617966985.86944,-148.6512,12.88043999671936
1617966985.88507,-152.277,12.896070003509521
1617966985.90069,-149.8889,12.91168999671936
1617966985.91632,-142.6115,12.927320003509521
1617966985.93194,-131.2806,12.94293999671936
1617966985.94757,-116.4325,12.958570003509521
1617966985.9632,-98.25175,12.974200010299683
1617966985.97882,-77.41463,12.989820003509521
1617966985.99445,-55.39809,13.005450010299683
1617966986.01007,-33.45652,13.021070003509521
1617966986.0257,-12.78096,13.036700010299683
1617966986.04132,5.708843,13.052320003509521
1617966986.05695,21.51317,13.067950010299683
1617966986.07258,34.50119,13.083580017089844
1617966986.0882,44.76545,13.099200010299683
1617966986.10383,52.6684,13.114830017089844
1617966986.11945,58.33624,13.130450010299683
1617966986.13508,61.60113,13.146080017089844
1617966986.1507,62.56571,13.161700010299683
1617966986.16633,61.41341,13.177330017089844
1617966986.18196,58.39322,13.192960023880005
1617966986.19758,53.7144,13.208580017089844
1617966986.21321,47.52093,13.224210023880005
1617966986.22883,39.81292,13.239830017089844
1617966986.24446,30.67408,13.255460023880005
1617966986.26008,20.24056,13.271080017089844
1617966986.27571,8.908474,13.286710023880005
1617966986.29134,-2.394596,13.302340030670166
1617966986.30696,-12.44882,13.317960023880005
1617966986.32259,-20.10443,13.333590030670166
1617966986.33821,-24.76833,13.349210023880005
1617966986.35384,-26.72961,13.364840030670166
1617966986.36946,-27.26651,13.380460023880005
1617966986.38509,-28.25832,13.396090030670166
1617966986.40072,-31.65184,13.411719799041748
1617966986.41634,-38.64972,13.427340030670166
1617966986.43197,-49.26689,13.442969799041748
1617966986.44759,-62.27599,13.458590030670166
1617966986.46322,-75.52826,13.474219799041748
1617966986.47884,-86.54257,13.489840030670166
1617966986.49447,-93.12453,13.505469799041748
1617966986.5101,-93.91115,13.52109980583191
1617966986.52572,-88.60791,13.536719799041748
1617966986.54135,-77.94754,13.55234980583191
1617966986.55697,-63.32791,13.567969799041748
1617966986.5726,-46.57941,13.58359980583191
1617966986.58822,-29.75582,13.599219799041748
1617966986.60385,-14.76072,13.61484980583191
1617966986.61948,-3.079098,13.63047981262207
1617966986.6351,4.431595,13.64609980583191
1617966986.65073,7.601349,13.66172981262207
1617966986.66635,6.804359,13.67734980583191
1617966986.68198,2.798157,13.69297981262207
1617966986.6976,-3.246872,13.70859980583191
1617966986.71323,-10.19678,13.72422981262207
1617966986.72886,-17.25831,13.739859819412231
1617966986.74448,-23.99829,13.75547981262207
1617966986.76011,-30.2767,13.771109819412231
1617966986.77573,-36.17474,13.78672981262207
1617966986.79136,-41.87459,13.802359819412231
1617966986.80698,-47.68491,13.81797981262207
1617966986.82261,-53.72256,13.833609819412231
1617966986.83824,-59.21265,13.849239826202393
1617966986.85386,-63.46857,13.864859819412231
1617966986.86949,-66.40152,13.880489826202393
1617966986.88511,-68.60928,13.896109819412231
1617966986.90074,-71.02145,13.911739826202393
1617966986.91636,-74.43439,13.927359819412231
1617966986.93199,-79.27525,13.942989826202393
1617966986.94762,-85.78758,13.958619832992554
1617966986.96324,-93.60167,13.974239826202393
1617966986.97887,-100.5593,13.989869832992554
1617966986.99449,-104.7938,14.005489826202393
1617966987.01012,-105.4338,14.021119832992554
1617966987.02574,-102.5811,14.036739826202393
1617966987.04137,-96.4344,14.052369832992554
1617966987.057,-86.69568,14.067999839782715
1617966987.07262,-72.46138,14.083619832992554
1617966987.08825,-53.29108,14.099249839782715
1617966987.10387,-28.86452,14.114869832992554
1617966987.1195,2.547241,14.130499839782715
1617966987.13512,40.92378,14.146119832992554
1617966987.15075,83.84561,14.161749839782715
1617966987.16638,127.1652,14.177379846572876
1617966987.182,166.9906,14.192999839782715
1617966987.19763,201.0587,14.208629846572876
1617966987.21325,229.2022,14.224249839782715
1617966987.22888,251.9346,14.239879846572876
1617966987.2445,271.0907,14.255499839782715
1617966987.26013,291.4977,14.271129846572876
1617966987.27576,316.6169,14.286759853363037
1617966987.29138,347.1617,14.302379846572876
1617966987.30701,381.2115,14.318009853363037
1617966987.32263,415.9961,14.333629846572876
1617966987.33826,449.05,14.349259853363037
1617966987.35388,478.9833,14.364879846572876
1617966987.36951,504.3859,14.380509853363037
1617966987.38514,504.2487,14.396139860153198
1617966987.40076,466.5782,14.411759853363037
1617966987.41639,393.326,14.427389860153198
1617966987.43201,299.5632,14.443009853363037
1617966987.44764,201.9274,14.458639860153198
1617966987.46326,109.6885,14.474259853363037
1617966987.47889,24.49986,14.489889860153198
1617966987.49452,-50.01115,14.50551986694336
1617966987.51014,-118.6335,14.521139860153198
1617966987.52577,-182.3442,14.53676986694336
1617966987.54139,-236.6661,14.552389860153198
1617966987.55702,-278.167,14.56801986694336
1617966987.57264,-307.3641,14.583639860153198
1617966987.58827,-329.2216,14.59926986694336
1617966987.6039,-346.5014,14.61489987373352
1617966987.61952,-362.2282,14.63051986694336
1617966987.63515,-378.0304,14.64614987373352
1617966987.65077,-395.2328,14.66176986694336
1617966987.6664,-413.4712,14.67739987373352
1617966987.68202,-429.9466,14.69301986694336
1617966987.69765,-442.7389,14.70864987373352
1617966987.71328,-451.5314,14.724279880523682
1617966987.7289,-457.3046,14.73989987373352
1617966987.74453,-460.8137,14.755529880523682
1617966987.76015,-462.0794,14.77114987373352
1617966987.77578,-459.7955,14.786779880523682
1617966987.7914,-452.8656,14.80239987373352
1617966987.80703,-439.7198,14.818029880523682
1617966987.82266,-418.2415,14.833659887313843
1617966987.83828,-387.8332,14.849279880523682
1617966987.85391,-349.6914,14.864909887313843
1617966987.86953,-306.3022,14.880529880523682
1617966987.88516,-260.2451,14.896159887313843
1617966987.90078,-213.7762,14.911779880523682
1617966987.91641,-168.31,14.927409887313843
1617966987.93204,-125.2124,14.943039894104004
1617966987.94766,-85.19986,14.958659887313843
1617966987.96329,-48.23178,14.974289894104004
1617966987.97891,-14.22974,14.989909887313843
1617966987.99454,16.82913,15.005539894104004
1617966988.01016,45.02136,15.021159887313843
1617966988.02579,70.68448,15.036789894104004
1617966988.04142,94.14389,15.052419900894165
1617966988.05704,115.8177,15.068039894104004
1617966988.07267,135.9163,15.083669900894165
1617966988.08829,154.8939,15.099289894104004
1617966988.10392,173.4627,15.114919900894165
1617966988.11954,192.1024,15.130539894104004
1617966988.13517,210.6003,15.146169900894165
1617966988.1508,227.6989,15.161799907684326
1617966988.16642,241.2097,15.177419900894165
1617966988.18205,248.5782,15.193049907684326
1617966988.19767,248.0066,15.208669900894165
1617966988.2133,239.1677,15.224299907684326
1617966988.22892,223.5874,15.239919900894165
1617966988.24455,203.9647,15.255549907684326
1617966988.26018,183.1611,15.271179914474487
1617966988.2758,163.2034,15.286799907684326
1617966988.29143,144.9803,15.302429914474487
1617966988.30705,128.452,15.318049907684326
1617966988.32268,113.2317,15.333679914474487
1617966988.33831,99.0061,15.349309921264648
1617966988.35393,85.47394,15.364929914474487
1617966988.36956,72.0451,15.380559921264648
1617966988.38518,57.58813,15.396179914474487
1617966988.40081,40.75763,15.411809921264648
1617966988.41643,20.79156,15.427429914474487
1617966988.43206,-1.573181,15.443059921264648
1617966988.44769,-23.80353,15.45868992805481
1617966988.46331,-42.08398,15.474309921264648
1617966988.47894,-52.51831,15.48993992805481
1617966988.49456,-52.58313,15.505559921264648
1617966988.51019,-42.07684,15.52118992805481
1617966988.52581,-23.18005,15.536809921264648
1617966988.54144,0.3598022,15.55243992805481
1617966988.55707,24.52582,15.56806993484497
1617966988.57269,46.21881,15.58368992805481
1617966988.58832,63.78387,15.59931993484497
1617966988.60394,76.93414,15.61493992805481
1617966988.61957,86.15912,15.63056993484497
1617966988.63519,92.07721,15.64618992805481
1617966988.65082,95.08093,15.66181993484497
1617966988.66645,95.29199,15.677449941635132
1617966988.68207,92.79163,15.69306993484497
1617966988.6977,87.88702,15.708699941635132
1617966988.71332,81.20502,15.72431993484497
1617966988.72895,73.62585,15.739949941635132
1617966988.74457,66.11182,15.75556993484497
1617966988.7602,59.51813,15.771199941635132
1617966988.77583,54.40643,15.786829948425293
1617966988.79145,51.05365,15.802449941635132
1617966988.80708,49.51074,15.818079948425293
1617966988.8227,49.69763,15.833699941635132
1617966988.83833,51.5108,15.849329948425293
1617966988.85395,54.71967,15.864949941635132
1617966988.86958,58.8833,15.880579948425293
1617966988.88521,63.27576,15.896209955215454
1617966988.90083,66.86145,15.911829948425293
1617966988.91646,68.52075,15.927459955215454
1617966988.93208,67.40161,15.943079948425293
1617966988.94771,63.23462,15.958709955215454
1617966988.96333,56.46625,15.974329948425293
1617966988.97896,48.13293,15.989959955215454
1617966988.99459,39.4519,16.005589962005615
1617966989.01021,31.36548,16.021209955215454
1617966989.02584,24.24225,16.036839962005615
1617966989.04146,17.80658,16.052459955215454
1617966989.05709,11.30389,16.068089962005615
1617966989.07271,3.897095,16.083709955215454
1617966989.08834,-5.002991,16.099339962005615
1617966989.10397,-15.354,16.114969968795776
1617966989.11959,-26.26807,16.130589962005615
1617966989.13522,-35.97595,16.146219968795776
1617966989.15084,-42.07751,16.161839962005615
1617966989.16647,-42.1604,16.177469968795776
1617966989.18209,-34.55585,16.193089962005615
1617966989.19772,-19.06549,16.208719968795776
1617966989.21335,2.803284,16.224349975585938
1617966989.22897,28.14813,16.239969968795776
1617966989.2446,53.50385,16.255599975585938
1617966989.26022,75.85895,16.271219968795776
1617966989.27585,93.38928,16.286849975585938
1617966989.29147,105.5966,16.302469968795776
1617966989.3071,112.9955,16.318099975585938
1617966989.32273,116.4918,16.3337299823761
1617966989.33835,116.8628,16.349349975585938
1617966989.35398,114.5728,16.3649799823761
1617966989.3696,109.9626,16.380599975585938
1617966989.38523,103.4775,16.3962299823761
1617966989.40085,95.85785,16.411849975585938
1617966989.41648,88.06,16.4274799823761
1617966989.43211,80.99536,16.44310998916626
1617966989.44773,75.23993,16.4587299823761
1617966989.46336,70.87732,16.47435998916626
1617966989.47898,67.50458,16.4899799823761
1617966989.49461,64.46222,16.50560998916626
1617966989.51023,61.11548,16.5212299823761
1617966989.52586,57.09186,16.53685998916626
1617966989.54149,52.37921,16.55248999595642
1617966989.55711,47.30383,16.56810998916626
1617966989.57274,42.33673,16.58373999595642
1617966989.58836,37.89917,16.59935998916626
1617966989.60399,34.1593,16.61498999595642
1617966989.61961,30.95215,16.63060998916626
1617966989.63524,27.83978,16.64623999595642
1617966989.65087,24.2782,16.661870002746582
1617966989.66649,19.82617,16.67748999595642
1617966989.68212,14.3299,16.693120002746582
1617966989.69774,7.980957,16.70873999595642
1617966989.71337,1.204407,16.724370002746582
1617966989.72899,-5.528625,16.73998999595642
1617966989.74462,-11.91669,16.755620002746582
1617966989.76025,-17.9411,16.771250009536743
1617966989.77587,-23.83722,16.786870002746582
1617966989.7915,-29.98645,16.802500009536743
1617966989.80712,-36.76794,16.818120002746582
1617966989.82275,-44.47083,16.833750009536743
1617966989.83837,-53.15173,16.849370002746582
1617966989.854,-62.48169,16.865000009536743
1617966989.86963,-71.54285,16.880630016326904
1617966989.88525,-78.79211,16.896250009536743
1617966989.90088,-82.26422,16.911880016326904
1617966989.9165,-80.16058,16.927500009536743
1617966989.93213,-71.53076,16.943130016326904
1617966989.94775,-56.79572,16.958750009536743
1617966989.96338,-37.83093,16.974380016326904
1617966989.97901,-17.4043,16.990010023117065
1617966989.99463,1.679626,17.005630016326904
1617966990.01026,17.40179,17.021260023117065
1617966990.02588,28.92584,17.036880016326904
1617966990.04151,36.43787,17.052510023117065
1617966990.05713,40.65796,17.068130016326904
1617966990.07276,42.3476,17.083760023117065
1617966990.08839,42.05426,17.099390029907227
1617966990.10401,40.15735,17.115010023117065
1617966990.11964,37.04889,17.130640029907227
1617966990.13526,33.28143,17.146260023117065
1617966990.15089,29.50488,17.161890029907227
1617966990.16651,26.2962,17.177510023117065
1617966990.18214,23.92279,17.193140029907227
1617966990.19777,22.28857,17.208770036697388
1617966990.21339,20.94031,17.224390029907227
1617966990.22902,19.3446,17.240020036697388
1617966990.24464,17.14819,17.255640029907227
1617966990.26027,14.38324,17.271270036697388
1617966990.27589,11.45972,17.286890029907227
1617966990.29152,8.96283,17.302520036697388
1617966990.30715,7.358887,17.31814980506897
1617966990.32277,6.741211,17.333770036697388
1617966990.3384,6.765564,17.34939980506897
1617966990.35402,6.774902,17.365020036697388
1617966990.36965,6.135559,17.38064980506897
1617966990.38527,4.453186,17.396270036697388
1617966990.4009,1.761658,17.41189980506897
1617966990.41653,-1.619812,17.42752981185913
1617966990.43215,-5.248718,17.44314980506897
1617966990.44778,-8.773743,17.45877981185913
1617966990.4634,-12.0318,17.47439980506897
1617966990.47903,-15.06531,17.49002981185913
1617966990.49465,-18.08508,17.50564980506897
1617966990.51028,-21.35382,17.52127981185913
1617966990.52591,-25.13995,17.536909818649292
1617966990.54153,-29.58398,17.55252981185913
1617966990.55716,-34.66284,17.568159818649292
1617966990.57278,-40.08618,17.58377981185913
1617966990.58841,-45.26385,17.599409818649292
1617966990.60404,-49.32773,17.615039825439453
1617966990.61966,-51.31549,17.630659818649292
1617966990.63529,-50.44788,17.646289825439453
1617966990.65091,-46.36407,17.661909818649292
1617966990.66654,-39.31821,17.677539825439453
1617966990.68216,-30.13983,17.693159818649292
1617966990.69779,-20.00204,17.708789825439453
1617966990.71342,-10.10187,17.724419832229614
1617966990.72904,-1.344635,17.740039825439453
1617966990.74467,5.814056,17.755669832229614
1617966990.76029,11.34161,17.771289825439453
1617966990.77592,15.41025,17.786919832229614
1617966990.79154,18.2435,17.802539825439453
1617966990.80717,19.98428,17.818169832229614
1617966990.8228,20.71927,17.833799839019775
1617966990.83842,20.57346,17.849419832229614
1617966990.85405,19.76895,17.865049839019775
1617966990.86967,18.6214,17.880669832229614
1617966990.8853,17.43506,17.896299839019775
1617966990.90092,16.40143,17.911919832229614
1617966990.91655,15.50803,17.927549839019775
1617966990.93218,14.59406,17.943179845809937
1617966990.9478,13.42288,17.958799839019775
1617966990.96343,11.84369,17.974429845809937
1617966990.97905,9.858704,17.990049839019775
1617966990.99468,7.606293,18.005679845809937
1617966991.0103,5.306702,18.021299839019775
1617966991.02593,3.110413,18.036929845809937
1617966991.04156,1.0672,18.052559852600098
1617966991.05718,-0.9043884,18.068179845809937
1617966991.07281,-2.930878,18.083809852600098
1617966991.08843,-5.113892,18.099429845809937
1617966991.10406,-7.46814,18.115059852600098
1617966991.11968,-9.88443,18.130679845809937
1617966991.13531,-12.22824,18.146309852600098
1617966991.15094,-14.367,18.16193985939026
1617966991.16656,-16.25787,18.177559852600098
1617966991.18219,-17.96387,18.19318985939026
1617966991.19781,-19.62286,18.208809852600098
1617966991.21344,-21.41541,18.22443985939026
1617966991.22906,-23.50999,18.240059852600098
1617966991.24469,-26.01477,18.25568985939026
1617966991.26032,-28.92877,18.27131986618042
1617966991.27594,-32.12738,18.28693985939026
1617966991.29157,-35.28612,18.30256986618042
1617966991.30719,-37.91533,18.31818985939026
1617966991.32282,-39.49414,18.33381986618042
1617966991.33844,-39.57442,18.34943985939026
1617966991.35407,-37.98526,18.36506986618042
1617966991.3697,-34.88597,18.38069987297058
1617966991.38532,-30.74385,18.39631986618042
1617966991.40095,-26.16779,18.41194987297058
1617966991.41657,-21.74384,18.42756986618042
1617966991.4322,-17.86418,18.44319987297058
1617966991.44782,-14.69518,18.45881986618042
1617966991.46345,-12.26898,18.47444987297058
1617966991.47908,-10.53651,18.490079879760742
1617966991.4947,-9.453995,18.50569987297058
1617966991.51033,-8.996811,18.521329879760742
1617966991.52595,-9.089706,18.53694987297058
1617966991.54158,-9.575882,18.552579879760742
1617966991.5572,-10.22354,18.56819987297058
1617966991.57283,-10.82004,18.583829879760742
1617966991.58846,-11.27,18.599459886550903
1617966991.60408,-11.67255,18.615079879760742
1617966991.61971,-12.26306,18.630709886550903
1617966991.63533,-13.32932,18.646329879760742
1617966991.65096,-15.06011,18.661959886550903
1617966991.66658,-17.39938,18.677579879760742
1617966991.68221,-20.05828,18.693209886550903
1617966991.69784,-22.57443,18.708839893341064
1617966991.71346,-24.5319,18.724459886550903
1617966991.72909,-25.738,18.740089893341064
1617966991.74471,-26.3419,18.755709886550903
1617966991.76034,-26.74078,18.771339893341064
1617966991.77596,-27.47404,18.786959886550903
1617966991.79159,-28.9691,18.802589893341064
1617966991.80722,-31.3912,18.818219900131226
1617966991.82284,-34.59813,18.833839893341064
1617966991.83847,-38.22662,18.849469900131226
1617966991.85409,-41.83012,18.865089893341064
1617966991.86972,-45.04278,18.880719900131226
1617966991.88534,-47.67471,18.896339893341064
1617966991.90097,-49.7665,18.911969900131226
1617966991.9166,-51.5304,18.927599906921387
1617966991.93222,-53.33875,18.943219900131226
1617966991.94785,-55.597,18.958849906921387
1617966991.96347,-58.60393,18.974469900131226
1617966991.9791,-62.34344,18.990099906921387
1617966991.99472,-66.34537,19.005719900131226
1617966992.01035,-69.67381,19.021349906921387
1617966992.02598,-71.04957,19.036979913711548
1617966992.0416,-69.19224,19.052599906921387
1617966992.05723,-63.23775,19.068229913711548
1617966992.07285,-53.09534,19.083849906921387
1617966992.08848,-39.54345,19.099479913711548
1617966992.1041,-24.07475,19.115099906921387
1617966992.11973,-8.486519,19.130729913711548
1617966992.13536,5.607956,19.14635992050171
1617966992.15098,17.14696,19.161979913711548
1617966992.16661,25.76367,19.17760992050171
1617966992.18223,31.66782,19.193229913711548
1617966992.19786,35.38167,19.20885992050171
1617966992.21348,37.47451,19.224479913711548
1617966992.22911,38.38657,19.24010992050171
1617966992.24474,38.39764,19.25573992729187
1617966992.26036,37.7383,19.27135992050171
1617966992.27599,36.61961,19.28698992729187
1617966992.29161,35.27863,19.30260992050171
1617966992.30724,33.96133,19.31823992729187
1617966992.32286,32.80773,19.33385992050171
1617966992.33849,31.79599,19.34948992729187
1617966992.35412,30.769,19.36511993408203
1617966992.36974,29.48213,19.38073992729187
1617966992.38537,27.73406,19.39636993408203
1617966992.40099,25.44521,19.41198992729187
1617966992.41662,22.74218,19.42761993408203
1617966992.43224,19.88442,19.44323992729187
1617966992.44787,17.20907,19.45886993408203
1617966992.4635,14.95131,19.474499940872192
1617966992.47912,13.19093,19.49011993408203
1617966992.49475,11.80366,19.505749940872192
1617966992.51037,10.52065,19.52136993408203
1617966992.526,9.028839,19.536999940872192
1617966992.54162,7.065926,19.55261993408203
1617966992.55725,4.538544,19.568249940872192
1617966992.57288,1.53672,19.583879947662354
1617966992.5885,-1.711197,19.599499940872192
1617966992.60413,-4.9123,19.615129947662354
1617966992.61975,-7.815895,19.630749940872192
1617966992.63538,-10.35236,19.646379947662354
1617966992.651,-12.61551,19.661999940872192
1617966992.66663,-14.86567,19.677629947662354
1617966992.68226,-17.4216,19.693259954452515
1617966992.69788,-20.57348,19.708879947662354
1617966992.71351,-24.54534,19.724509954452515
1617966992.72913,-29.4054,19.740129947662354
1617966992.74476,-34.97404,19.755759954452515
1617966992.76039,-40.62366,19.771389961242676
1617966992.77601,-45.20427,19.787009954452515
1617966992.79164,-47.19674,19.802639961242676
1617966992.80726,-45.10638,19.818259954452515
1617966992.82289,-38.07066,19.833889961242676
1617966992.83851,-26.32912,19.849509954452515
1617966992.85414,-11.31866,19.865139961242676
1617966992.86977,4.752838,19.880769968032837
1617966992.88539,19.66482,19.896389961242676
1617966992.90102,31.88306,19.912019968032837
1617966992.91664,40.90125,19.927639961242676
1617966992.93227,47.06841,19.943269968032837
1617966992.94789,51.08937,19.958889961242676
1617966992.96352,53.56358,19.974519968032837
1617966992.97915,54.7691,19.990149974822998
1617966992.99477,54.80219,20.005769968032837
1617966993.0104,53.85942,20.021399974822998
1617966993.02602,52.36111,20.037019968032837
1617966993.04165,50.86955,20.052649974822998
1617966993.05727,49.81058,20.068269968032837
1617966993.0729,49.29544,20.083899974822998
1617966993.08853,49.0165,20.09952998161316
1617966993.10415,48.53638,20.115149974822998
1617966993.11978,47.46759,20.13077998161316
1617966993.1354,45.72443,20.146399974822998
1617966993.15103,43.51667,20.16202998161316
1617966993.16665,41.20512,20.177649974822998
1617966993.18228,39.08272,20.19327998161316
1617966993.19791,37.24751,20.20890998840332
1617966993.21353,35.5462,20.22452998161316
1617966993.22916,33.67255,20.24015998840332
1617966993.24478,31.32384,20.25577998161316
1617966993.26041,28.34393,20.27140998840332
1617966993.27603,24.84021,20.28702998161316
1617966993.29166,21.13526,20.30265998840332
1617966993.30729,17.69014,20.31828999519348
1617966993.32291,14.91037,20.33390998840332
1617966993.33854,13.01803,20.34953999519348
1617966993.35416,11.98302,20.36515998840332
1617966993.36979,11.57764,20.38078999519348
1617966993.38541,11.52318,20.39640998840332
1617966993.40104,11.56765,20.41203999519348
1617966993.41667,11.54626,20.427670001983643
1617966993.43229,11.34875,20.44328999519348
1617966993.44792,10.89995,20.458920001983643
1617966993.46354,10.1721,20.47453999519348
1617966993.47917,9.214836,20.490170001983643
1617966993.49479,8.170486,20.50578999519348
1617966993.51042,7.193647,20.521420001983643
1617966993.52605,6.376884,20.537050008773804
1617966993.54167,5.652519,20.552670001983643
1617966993.5573,4.812172,20.568300008773804
1617966993.57292,3.592403,20.583920001983643
1617966993.58855,1.831074,20.599550008773804
1617966993.60417,-0.4372902,20.615170001983643
1617966993.6198,-3.003143,20.630800008773804
1617966993.63543,-5.570168,20.646430015563965
1617966993.65105,-7.924362,20.662050008773804
1617966993.66668,-9.969543,20.677680015563965
1617966993.6823,-11.76672,20.693300008773804
1617966993.69793,-13.41113,20.708930015563965
1617966993.71355,-14.93212,20.724550008773804
1617966993.72918,-16.26849,20.740180015563965
1617966993.74481,-17.2945,20.755810022354126
1617966993.76043,-17.92031,20.771430015563965
1617966993.77606,-18.16481,20.787060022354126
1617966993.79168,-18.20406,20.802680015563965
1617966993.80731,-18.29127,20.818310022354126
1617966993.82293,-18.63663,20.833930015563965
1617966993.83856,-19.30441,20.849560022354126
1617966993.85419,-20.20078,20.865190029144287
1617966993.86981,-21.1778,20.880810022354126
1617966993.88544,-22.14015,20.896440029144287
1617966993.90106,-23.1478,20.912060022354126
1617966993.91669,-24.34529,20.927690029144287
1617966993.93231,-25.85803,20.943310022354126
1617966993.94794,-27.6378,20.958940029144287
1617966993.96357,-29.46585,20.97457003593445
1617966993.97919,-31.0291,20.990190029144287
1617966993.99482,-32.03484,21.00582003593445
1617966994.01044,-32.37759,21.021440029144287
1617966994.02607,-32.10941,21.03707003593445
1617966994.04169,-31.40556,21.052690029144287
1617966994.05732,-30.4077,21.06832003593445
1617966994.07295,-29.17931,21.08394980430603
1617966994.08857,-27.72226,21.09957003593445
1617966994.1042,-26.07368,21.11519980430603
1617966994.11982,-24.39085,21.13082003593445
1617966994.13545,-22.91985,21.14644980430603
1617966994.15107,-21.91805,21.16207003593445
1617966994.1667,-21.49043,21.17769980430603
1617966994.18233,-21.52257,21.19332981109619
1617966994.19795,-21.7565,21.20894980430603
1617966994.21358,-21.96458,21.22457981109619
1617966994.2292,-22.07843,21.24019980430603
1617966994.24483,-22.24364,21.25582981109619
1617966994.26045,-22.70665,21.27144980430603
1617966994.27608,-23.64467,21.28707981109619
1617966994.29171,-25.07242,21.302709817886353
1617966994.30733,-26.81676,21.31832981109619
1617966994.32296,-28.64592,21.333959817886353
1617966994.33858,-30.47318,21.34957981109619
1617966994.35421,-32.42926,21.365209817886353
1617966994.36983,-34.83028,21.38082981109619
1617966994.38546,-37.98882,21.396459817886353
1617966994.40109,-42.0575,21.412089824676514
1617966994.41671,-46.84387,21.427709817886353
1617966994.43234,-51.86783,21.443339824676514
1617966994.44796,-56.47742,21.458959817886353
1617966994.46359,-59.99925,21.474589824676514
1617966994.47921,-61.94785,21.490209817886353
1617966994.49484,-62.04472,21.505839824676514
1617966994.51047,-60.26337,21.521469831466675
1617966994.52609,-56.78606,21.537089824676514
1617966994.54172,-51.9828,21.552719831466675
1617966994.55734,-46.31224,21.568339824676514
1617966994.57297,-40.28313,21.583969831466675
1617966994.58859,-34.3345,21.599589824676514
1617966994.60422,-28.76694,21.615219831466675
1617966994.61985,-23.65346,21.630849838256836
1617966994.63547,-18.86145,21.646469831466675
1617966994.6511,-14.15616,21.662099838256836
1617966994.66672,-9.388382,21.677719831466675
1617966994.68235,-4.593079,21.693349838256836
1617966994.69797,0.04446411,21.708969831466675
1617966994.7136,4.264343,21.724599838256836
1617966994.72923,7.833755,21.740229845046997
1617966994.74485,10.64618,21.755849838256836
1617966994.76048,12.64876,21.771479845046997
1617966994.7761,13.86685,21.787099838256836
1617966994.79173,14.37262,21.802729845046997
1617966994.80735,14.33269,21.818349838256836
1617966994.82298,14.04738,21.833979845046997
1617966994.83861,13.89946,21.849609851837158
1617966994.85423,14.29042,21.865229845046997
1617966994.86986,15.46727,21.880859851837158
1617966994.88548,17.50363,21.896479845046997
1617966994.90111,20.24695,21.912109851837158
1617966994.91673,23.43567,21.927729845046997
1617966994.93236,26.78468,21.943359851837158
1617966994.94799,30.02592,21.95898985862732
1617966994.96361,33.01236,21.974609851837158
1617966994.97924,35.67982,21.99023985862732
1617966994.99486,38.05113,22.005859851837158
1617966995.01049,40.22319,22.02148985862732
1617966995.02611,42.30188,22.037109851837158
1617966995.04174,44.29984,22.05273985862732
1617966995.05737,46.07907,22.06836986541748
1617966995.07299,47.45358,22.08398985862732
1617966995.08862,48.25804,22.09961986541748
1617966995.10424,48.51076,22.11523985862732
1617966995.11987,48.40349,22.13086986541748
1617966995.13549,48.14015,22.14648985862732
1617966995.15112,47.74449,22.16211986541748
1617966995.16675,47.01443,22.17774987220764
1617966995.18237,45.58775,22.19336986541748
1617966995.198,43.24748,22.20899987220764
1617966995.21362,40.12907,22.22461986541748
1617966995.22925,36.70868,22.24024987220764
1617966995.24487,33.62683,22.25586986541748
1617966995.2605,31.34071,22.27149987220764
1617966995.27613,29.92078,22.287129878997803
1617966995.29175,29.02098,22.30274987220764
1617966995.30738,28.15633,22.318379878997803
1617966995.323,26.94081,22.33399987220764
1617966995.33863,25.28679,22.349629878997803
1617966995.35425,23.39871,22.36524987220764
1617966995.36988,21.57936,22.380879878997803
1617966995.38551,20.11127,22.396509885787964
1617966995.40113,19.1492,22.412129878997803
1617966995.41676,18.72954,22.427759885787964
1617966995.43238,18.80322,22.443379878997803
1617966995.44801,19.31274,22.459009885787964
1617966995.46364,20.20819,22.474639892578125
1617966995.47926,21.44707,22.490259885787964
1617966995.49489,23.03152,22.505889892578125
1617966995.51051,24.94499,22.521509885787964
1617966995.52614,27.16623,22.537139892578125
1617966995.54176,29.6077,22.552759885787964
1617966995.55739,32.10237,22.568389892578125
1617966995.57302,34.43149,22.584019899368286
1617966995.58864,36.39539,22.599639892578125
1617966995.60427,37.82117,22.615269899368286
1617966995.61989,38.64383,22.630889892578125
1617966995.63552,38.84833,22.646519899368286
1617966995.65114,38.42802,22.662139892578125
1617966995.66677,37.36815,22.677769899368286
1617966995.6824,35.6209,22.693399906158447
1617966995.69802,33.15855,22.709019899368286
1617966995.71365,30.00177,22.724649906158447
1617966995.72927,26.29099,22.740269899368286
1617966995.7449,22.18579,22.755899906158447
1617966995.76052,17.87056,22.771519899368286
1617966995.77615,13.47356,22.787149906158447
1617966995.79178,9.061859,22.80277991294861
1617966995.8074,4.642929,22.818399906158447
1617966995.82303,0.1959229,22.83402991294861
1617966995.83865,-4.284546,22.849649906158447
1617966995.85428,-8.805725,22.86527991294861
1617966995.8699,-13.35989,22.880899906158447
1617966995.88553,-17.93134,22.89652991294861
1617966995.90116,-22.46036,22.91215991973877
1617966995.91678,-26.81754,22.92777991294861
1617966995.93241,-30.8544,22.94340991973877
1617966995.94803,-34.44049,22.95902991294861
1617966995.96366,-37.55698,22.97465991973877
1617966995.97928,-40.24783,22.99027991294861
1617966995.99491,-42.63364,23.00590991973877
1617966996.01054,-44.78265,23.02153992652893
1617966996.02616,-46.68564,23.03715991973877
1617966996.04179,-48.22836,23.05278992652893
1617966996.05741,-49.27252,23.06840991973877
1617966996.07304,-49.69913,23.08403992652893
1617966996.08866,-49.41782,23.09965991973877
1617966996.10429,-48.36856,23.11528992652893
1617966996.11992,-46.47357,23.130919933319092
1617966996.13554,-43.71835,23.14653992652893
1617966996.15117,-40.18262,23.162169933319092
1617966996.16679,-36.16711,23.17778992652893
1617966996.18242,-32.11493,23.193419933319092
1617966996.19804,-28.52347,23.20903992652893
1617966996.21367,-25.78906,23.224669933319092
1617966996.2293,-24.00153,23.240299940109253
1617966996.24492,-22.99927,23.255919933319092
1617966996.26055,-22.41364,23.271549940109253
1617966996.27617,-21.84918,23.287169933319092
1617966996.2918,-21.0015,23.302799940109253
1617966996.30742,-19.73978,23.318419933319092
1617966996.32305,-18.10318,23.334049940109253
1617966996.33868,-16.22461,23.349679946899414
1617966996.3543,-14.25708,23.365299940109253
1617966996.36993,-12.26172,23.380929946899414
1617966996.38555,-10.18741,23.396549940109253
1617966996.40118,-7.916473,23.412179946899414
1617966996.4168,-5.332367,23.427799940109253
1617966996.43243,-2.407867,23.443429946899414
1617966996.44806,0.7151489,23.459059953689575
1617966996.46368,3.738617,23.474679946899414
1617966996.47931,6.296448,23.490309953689575
1617966996.49493,8.056519,23.505929946899414
1617966996.51056,8.818878,23.521559953689575
1617966996.52618,8.520691,23.537179946899414
1617966996.54181,7.255249,23.552809953689575
1617966996.55744,5.252686,23.568439960479736
1617966996.57306,2.847778,23.584059953689575
1617966996.58869,0.4230957,23.599689960479736
1617966996.60431,-1.665833,23.615309953689575
1617966996.61994,-3.112518,23.630939960479736
1617966996.63556,-3.708923,23.646559953689575
1617966996.65119,-3.320282,23.662189960479736
1617966996.66682,-1.914368,23.677819967269897
1617966996.68244,0.3560486,23.693439960479736
1617966996.69807,3.161682,23.709069967269897
1617966996.71369,5.964966,23.724689960479736
1617966996.72932,8.198029,23.740319967269897
1617966996.74494,9.47113,23.755939960479736
1617966996.76057,9.764801,23.771569967269897
1617966996.7762,9.451691,23.78719997406006
1617966996.79182,9.134857,23.802819967269897
1617966996.80745,9.279816,23.81844997406006
1617966996.82307,9.944702,23.834069967269897
1617966996.8387,10.71246,23.84969997406006
1617966996.85432,10.89322,23.865319967269897
1617966996.86995,9.933838,23.88094997406006
1617966996.88558,7.712067,23.89657998085022
1617966996.9012,4.63089,23.91219997406006
1617966996.91683,1.409424,23.92782998085022
1617966996.93245,-1.190613,23.94344997406006
1617966996.94808,-2.686493,23.95907998085022
1617966996.9637,-2.982391,23.97469997406006
1617966996.97933,-2.336243,23.99032998085022
1617966996.99496,-1.245758,24.00595998764038
1617966997.01058,-0.281311,24.02157998085022
1617966997.02621,0.02294922,24.03720998764038
1617966997.04183,-0.7035522,24.05282998085022
1617966997.05746,-2.650909,24.06845998764038
1617966997.07308,-5.744843,24.08407998085022
1617966997.08871,-9.687469,24.09970998764038
1617966997.10434,-14.00458,24.115339994430542
1617966997.11996,-18.14508,24.13095998764038
1617966997.13559,-21.61984,24.146589994430542
1617966997.15121,-24.0704,24.16220998764038
1617966997.16684,-25.29697,24.177839994430542
1617966997.18246,-25.23318,24.19345998764038
1617966997.19809,-23.9653,24.209089994430542
1617966997.21372,-21.72739,24.224720001220703
1617966997.22934,-18.9054,24.240339994430542
1617966997.24497,-15.95657,24.255970001220703
1617966997.26059,-13.28711,24.271589994430542
1617966997.27622,-11.0871,24.287220001220703
1617966997.29184,-9.260834,24.302839994430542
1617966997.30747,-7.532013,24.318470001220703
1617966997.3231,-5.589264,24.334100008010864
1617966997.33872,-3.311249,24.349720001220703
1617966997.35435,-0.8221436,24.365350008010864
1617966997.36997,1.574646,24.380970001220703
1617966997.3856,3.530792,24.396600008010864
1617966997.40122,4.801666,24.412220001220703
1617966997.41685,5.305847,24.427850008010864
1617966997.43248,5.094513,24.443480014801025
1617966997.4481,4.280762,24.459100008010864
1617966997.46373,3.055511,24.474730014801025
1617966997.47935,1.643311,24.490350008010864
1617966997.49498,0.3048706,24.505980014801025
1617966997.5106,-0.7247925,24.521600008010864
1617966997.52623,-1.341003,24.537230014801025
1617966997.54186,-1.620239,24.552860021591187
1617966997.55748,-1.806702,24.568480014801025
1617966997.57311,-2.120911,24.584110021591187
1617966997.58873,-2.692444,24.599730014801025
1617966997.60436,-3.478149,24.615360021591187
1617966997.61999,-4.34967,24.630990028381348
1617966997.63561,-5.197632,24.646610021591187
1617966997.65124,-6.013184,24.662240028381348
1617966997.66686,-6.923523,24.677860021591187
1617966997.68249,-8.031799,24.693490028381348
1617966997.69811,-9.337463,24.709110021591187
1617966997.71374,-10.63129,24.724740028381348
1617966997.72937,-11.50134,24.74037003517151
1617966997.74499,-11.47766,24.755990028381348
1617966997.76062,-10.12567,24.77162003517151
1617966997.77624,-7.262756,24.787240028381348
1617966997.79187,-2.981323,24.80287003517151
1617966997.80749,2.321106,24.818490028381348
1617966997.82312,8.012329,24.83412003517151
1617966997.83875,13.31329,24.84974980354309
1617966997.85437,17.44739,24.86537003517151
1617966997.87,19.74872,24.88099980354309
1617966997.88562,19.7912,24.89662003517151
1617966997.90125,17.47327,24.91224980354309
1617966997.91687,13.00806,24.92787003517151
1617966997.9325,6.91272,24.94349980354309
1617966997.94813,-0.1395874,24.959129810333252
1617966997.96375,-7.394653,24.97474980354309
1617966997.97938,-14.1759,24.990379810333252
1617966997.995,-19.9856,25.00599980354309
1617966998.01063,-24.56177,25.021629810333252
1617966998.02625,-27.86969,25.03724980354309
1617966998.04188,-30.04785,25.052879810333252
1617966998.05751,-31.34869,25.068509817123413
1617966998.07313,-32.02362,25.084129810333252
1617966998.08876,-32.27655,25.099759817123413
1617966998.10438,-32.21576,25.115379810333252
1617966998.12001,-31.83398,25.131009817123413
1617966998.13563,-30.98541,25.146629810333252
1617966998.15126,-29.45264,25.162259817123413
1617966998.16689,-27.02576,25.177889823913574
1617966998.18251,-23.57562,25.193509817123413
1617966998.19814,-19.18152,25.209139823913574
1617966998.21376,-14.12427,25.224759817123413
1617966998.22939,-8.843323,25.240389823913574
1617966998.24501,-3.861877,25.256009817123413
1617966998.26064,0.3998413,25.271639823913574
1617966998.27627,3.697632,25.287269830703735
1617966998.29189,6.003418,25.302889823913574
1617966998.30752,7.462524,25.318519830703735
1617966998.32314,8.332397,25.334139823913574
1617966998.33877,8.91748,25.349769830703735
1617966998.35439,9.548157,25.365389823913574
1617966998.37002,10.51251,25.381019830703735
1617966998.38565,11.98199,25.396649837493896
1617966998.40127,13.91272,25.412269830703735
1617966998.4169,16.03625,25.427899837493896
1617966998.43252,17.8905,25.443519830703735
1617966998.44815,18.98993,25.459149837493896
1617966998.46377,18.93878,25.474769830703735
1617966998.4794,17.57068,25.490399837493896
1617966998.49503,14.96661,25.506029844284058
1617966998.51065,11.47339,25.521649837493896
1617966998.52628,7.674438,25.537279844284058
1617966998.5419,4.303894,25.552899837493896
1617966998.55753,2.109741,25.568529844284058
1617966998.57315,1.678467,25.584149837493896
1617966998.58878,3.187073,25.599779844284058
1617966998.60441,6.315674,25.61540985107422
1617966998.62003,10.28992,25.631029844284058
1617966998.63566,14.1897,25.64665985107422
1617966998.65128,17.22748,25.662279844284058
1617966998.66691,19.01929,25.67790985107422
1617966998.68253,19.63147,25.693529844284058
1617966998.69816,19.43622,25.70915985107422
1617966998.71379,18.86499,25.72478985786438
1617966998.72941,18.21423,25.74040985107422
1617966998.74504,17.57721,25.75603985786438
1617966998.76066,16.88702,25.77165985107422
1617966998.77629,16.03967,25.78728985786438
1617966998.79191,14.95746,25.80290985107422
1617966998.80754,13.60376,25.81853985786438
1617966998.82317,11.92242,25.83416986465454
1617966998.83879,9.822388,25.84978985786438
1617966998.85442,7.198059,25.86541986465454
1617966998.87004,4.005432,25.88103985786438
1617966998.88567,0.3383789,25.89666986465454
1617966998.90129,-3.6073,25.91228985786438
1617966998.91692,-7.564941,25.92791986465454
1617966998.93255,-11.28241,25.943549871444702
1617966998.94817,-14.60364,25.95916986465454
1617966998.9638,-17.46887,25.974799871444702
1617966998.97942,-19.88635,25.99041986465454
1617966998.99505,-21.86267,26.006049871444702
1617966999.01067,-23.37872,26.02166986465454
1617966999.0263,-24.38538,26.037299871444702
1617966999.04193,-24.84412,26.052929878234863
1617966999.05755,-24.79913,26.068549871444702
1617966999.07318,-24.34314,26.084179878234863
1617966999.0888,-23.5993,26.099799871444702
1617966999.10443,-22.64813,26.115429878234863
1617966999.12005,-21.52228,26.131049871444702
1617966999.13568,-20.18158,26.146679878234863
1617966999.15131,-18.60077,26.162309885025024
1617966999.16693,-16.78265,26.177929878234863
1617966999.18256,-14.82092,26.193559885025024
1617966999.19818,-12.88428,26.209179878234863
1617966999.21381,-11.17413,26.224809885025024
1617966999.22943,-9.881348,26.240429878234863
1617966999.24506,-9.082825,26.256059885025024
1617966999.26069,-8.752197,26.271689891815186
1617966999.27631,-8.763367,26.287309885025024
1617966999.29194,-8.941101,26.302939891815186
1617966999.30756,-9.148499,26.318559885025024
1617966999.32319,-9.331238,26.334189891815186
1617966999.33881,-9.497437,26.349809885025024
1617966999.35444,-9.684387,26.365439891815186
1617966999.37007,-9.859253,26.381069898605347
1617966999.38569,-9.833435,26.396689891815186
1617966999.40132,-9.299683,26.412319898605347
1617966999.41694,-7.951904,26.427939891815186
1617966999.43257,-5.615295,26.443569898605347
1617966999.44819,-2.455688,26.459189891815186
1617966999.46382,1.05481,26.474819898605347
1617966999.47945,4.258118,26.490449905395508
1617966999.49507,6.572083,26.506069898605347
1617966999.5107,7.713135,26.521699905395508
1617966999.52632,7.777466,26.537319898605347
1617966999.54195,7.167419,26.552949905395508
1617966999.55757,6.414734,26.568569898605347
1617966999.5732,5.998779,26.584199905395508
1617966999.58883,6.259033,26.59982991218567
1617966999.60445,7.34436,26.615449905395508
1617966999.62008,9.184143,26.63107991218567
1617966999.6357,11.54333,26.646699905395508
1617966999.65133,14.00391,26.66232991218567
1617966999.66695,16.09821,26.677949905395508
1617966999.68258,17.38342,26.69357991218567
1617966999.69821,17.59192,26.70920991897583
1617966999.71383,16.67346,26.72482991218567
1617966999.72946,14.78699,26.74045991897583
1617966999.74508,12.22589,26.75607991218567
1617966999.76071,9.306458,26.77170991897583
1617966999.77633,6.32135,26.78732991218567
1617966999.79196,3.506134,26.80295991897583
1617966999.80759,1.019806,26.81858992576599
1617966999.82321,-1.024536,26.83420991897583
1617966999.83884,-2.555084,26.84983992576599
1617966999.85446,-3.564331,26.86545991897583
1617966999.87009,-4.109344,26.88108992576599
1617966999.88572,-4.297089,26.896719932556152
1617966999.90134,-4.282623,26.91233992576599
1617966999.91697,-4.222382,26.927969932556152
1617966999.93259,-4.229492,26.94358992576599
1617966999.94822,-4.351166,26.959219932556152
1617966999.96384,-4.528625,26.97483992576599
1617966999.97947,-4.66449,26.990469932556152
1617966999.9951,-4.675446,27.006099939346313
1617967000.01072,-4.50708,27.021719932556152
1617967000.02635,-4.205444,27.037349939346313
1617967000.04197,-3.850647,27.052969932556152
1617967000.0576,-3.528198,27.068599939346313
1617967000.07322,-3.300903,27.084219932556152
1617967000.08885,-3.190308,27.099849939346313
1617967000.10448,-3.188873,27.115479946136475
1617967000.1201,-3.279022,27.131099939346313
1617967000.13573,-3.407196,27.146729946136475
1617967000.15135,-3.497223,27.162349939346313
1617967000.16698,-3.490204,27.177979946136475
1617967000.1826,-3.388092,27.193599939346313
1617967000.19823,-3.26062,27.209229946136475
1617967000.21386,-3.279449,27.224859952926636
1617967000.22948,-3.586853,27.240479946136475
1617967000.24511,-4.189362,27.256109952926636
1617967000.26073,-4.943115,27.271729946136475
1617967000.27636,-5.535797,27.287359952926636
1617967000.29198,-5.653076,27.302979946136475
1617967000.30761,-5.121521,27.318609952926636
1617967000.32324,-4.007385,27.334239959716797
1617967000.33886,-2.595123,27.349859952926636
1617967000.35449,-1.288635,27.365489959716797
1617967000.37011,-0.4178162,27.381109952926636
1617967000.38574,-0.1462402,27.396739959716797
1617967000.40136,-0.4395752,27.412359952926636
1617967000.41699,-1.149811,27.427989959716797
1617967000.43262,-2.082611,27.443619966506958
1617967000.44824,-3.112091,27.459239959716797
1617967000.46387,-4.165894,27.474869966506958
1617967000.47949,-5.185181,27.490489959716797
1617967000.49512,-6.150391,27.506119966506958
1617967000.51074,-7.002716,27.521739959716797
1617967000.52637,-7.711426,27.537369966506958
1617967000.542,-8.249603,27.55299997329712
1617967000.55762,-8.595154,27.568619966506958
1617967000.57325,-8.680054,27.58424997329712
1617967000.58887,-8.370026,27.599869966506958
1617967000.6045,-7.497253,27.61549997329712
1617967000.62012,-5.925537,27.631119966506958
1617967000.63575,-3.683105,27.64674997329712
1617967000.65138,-0.9902954,27.66237998008728
1617967000.667,1.752655,27.67799997329712
1617967000.68263,4.08313,27.69362998008728
1617967000.69825,5.663727,27.70924997329712
1617967000.71388,6.399506,27.72487998008728
1617967000.7295,6.459625,27.74049997329712
1617967000.74513,6.183197,27.75612998008728
1617967000.76076,5.931274,27.77175998687744
1617967000.77638,5.908081,27.78737998008728
1617967000.79201,6.146606,27.80300998687744
1617967000.80763,6.536224,27.81862998008728
1617967000.82326,6.95813,27.83425998687744
1617967000.83888,7.34317,27.84987998008728
1617967000.85451,7.699829,27.86550998687744
1617967000.87014,8.084625,27.881139993667603
1617967000.88576,8.509308,27.89675998687744
1617967000.90139,8.954468,27.912389993667603
1617967000.91701,9.359283,27.92800998687744
1617967000.93264,9.687866,27.943639993667603
1617967000.94826,9.925995,27.95925998687744
1617967000.96389,10.05029,27.974889993667603
1617967000.97952,9.992676,27.990520000457764
1617967000.99514,9.630829,28.006139993667603
1617967001.01077,8.835266,28.021770000457764
1617967001.02639,7.604706,28.037389993667603
1617967001.04202,6.148743,28.053020000457764
1617967001.05764,4.850647,28.068639993667603
1617967001.07327,4.141998,28.084270000457764
1617967001.0889,4.287842,28.099900007247925
1617967001.10452,5.265808,28.115520000457764
1617967001.12015,6.750244,28.131150007247925
1617967001.13577,8.242126,28.146770000457764
1617967001.1514,9.2677,28.162400007247925
1617967001.16702,9.537109,28.178020000457764
1617967001.18265,9.040466,28.193650007247925
1617967001.19828,7.960541,28.209280014038086
1617967001.2139,6.561279,28.224900007247925
1617967001.22953,5.062408,28.240530014038086
1617967001.24515,3.624634,28.256150007247925
1617967001.26078,2.331299,28.271780014038086
1617967001.2764,1.288574,28.287400007247925
1617967001.29203,0.6193848,28.303030014038086
1617967001.30766,0.3883362,28.318660020828247
1617967001.32328,0.5633545,28.334280014038086
1617967001.33891,0.9044189,28.349910020828247
1617967001.35453,1.08548,28.365530014038086
1617967001.37016,0.8434143,28.381160020828247
1617967001.38578,0.09719849,28.396780014038086
1617967001.40141,-0.9528809,28.412410020828247
1617967001.41704,-1.942871,28.428040027618408
1617967001.43266,-2.507233,28.443660020828247
1617967001.44829,-2.440979,28.459290027618408
1617967001.46391,-1.778564,28.474910020828247
1617967001.47954,-0.7212524,28.490540027618408
1617967001.49516,0.4503479,28.506160020828247
1617967001.51079,1.547516,28.521790027618408
1617967001.52642,2.466644,28.53742003440857
1617967001.54204,3.186157,28.553040027618408
1617967001.55767,3.720642,28.56867003440857
1617967001.57329,4.04071,28.584290027618408
1617967001.58892,4.11618,28.59992003440857
1617967001.60454,3.91153,28.615540027618408
1617967001.62017,3.453461,28.63117003440857
1617967001.6358,2.758759,28.64679980278015
1617967001.65142,1.916687,28.66242003440857
1617967001.66705,1.031708,28.67804980278015
1617967001.68267,0.2513733,28.69367003440857
1617967001.6983,-0.2481079,28.70929980278015
1617967001.71392,-0.3841248,28.72492003440857
1617967001.72955,-0.1364136,28.74054980278015
1617967001.74518,0.4141846,28.756179809570312
1617967001.7608,1.134216,28.77179980278015
1617967001.77643,1.868164,28.787429809570312
1617967001.79205,2.472076,28.80304980278015
1617967001.80768,2.80957,28.818679809570312
1617967001.8233,2.786957,28.83429980278015
1617967001.83893,2.335358,28.849929809570312
1617967001.85456,1.501495,28.865559816360474
1617967001.87018,0.4580383,28.881179809570312
1617967001.88581,-0.5176086,28.896809816360474
1617967001.90143,-1.147003,28.912429809570312
1617967001.91706,-1.22821,28.928059816360474
1617967001.93268,-0.7845764,28.943679809570312
1617967001.94831,-0.06176758,28.959309816360474
1617967001.96394,0.5342407,28.974939823150635
1617967001.97956,0.6040955,28.990559816360474
1617967001.99519,-0.07092285,29.006189823150635
1617967002.01081,-1.417206,29.021809816360474
1617967002.02644,-3.117371,29.037439823150635
1617967002.04206,-4.714569,29.053059816360474
1617967002.05769,-5.792206,29.068689823150635
1617967002.07332,-6.11618,29.084319829940796
1617967002.08894,-5.707611,29.099939823150635
1617967002.10457,-4.801666,29.115569829940796
1617967002.12019,-3.714783,29.131189823150635
1617967002.13582,-2.720154,29.146819829940796
1617967002.15144,-1.980988,29.162439823150635
1617967002.16707,-1.502289,29.178069829940796
1617967002.1827,-1.239105,29.193699836730957
1617967002.19832,-1.135773,29.209319829940796
1617967002.21395,-1.17099,29.224949836730957
1617967002.22957,-1.335876,29.240569829940796
1617967002.2452,-1.646484,29.256199836730957
1617967002.26082,-2.057831,29.271819829940796
1617967002.27645,-2.489807,29.287449836730957
1617967002.29208,-2.874878,29.303079843521118
1617967002.3077,-3.137817,29.318699836730957
1617967002.32333,-3.243896,29.334329843521118
1617967002.33895,-3.202881,29.349949836730957
1617967002.35458,-3.06076,29.365579843521118
1617967002.3702,-2.857941,29.381199836730957
1617967002.38583,-2.615326,29.396829843521118
1617967002.40146,-2.301758,29.41245985031128
1617967002.41708,-1.848419,29.428079843521118
1617967002.43271,-1.233978,29.44370985031128
1617967002.44833,-0.4933167,29.459329843521118
1617967002.46396,0.2289429,29.47495985031128
1617967002.47958,0.6942139,29.490579843521118
1617967002.49521,0.6621399,29.50620985031128
1617967002.51084,0.05050659,29.52183985710144
1617967002.52646,-1.027802,29.53745985031128
1617967002.54209,-2.271881,29.55308985710144
1617967002.55771,-3.287842,29.56870985031128
1617967002.57334,-3.816986,29.58433985710144
1617967002.58897,-3.806793,29.5999698638916
1617967002.60459,-3.452698,29.61558985710144
1617967002.62022,-3.04068,29.6312198638916
1617967002.63584,-2.820892,29.64683985710144
1617967002.65147,-2.85025,29.6624698638916
1617967002.66709,-3.029877,29.67808985710144
1617967002.68272,-3.18515,29.6937198638916
1617967002.69835,-3.228149,29.709349870681763
1617967002.71397,-3.175415,29.7249698638916
1617967002.7296,-3.133759,29.740599870681763
1617967002.74522,-3.205536,29.7562198638916
1617967002.76085,-3.411072,29.771849870681763
1617967002.77647,-3.668854,29.7874698638916
1617967002.7921,-3.835327,29.803099870681763
1617967002.80773,-3.820709,29.818729877471924
1617967002.82335,-3.59491,29.834349870681763
1617967002.83898,-3.205597,29.849979877471924
1617967002.8546,-2.745697,29.865599870681763
1617967002.87023,-2.302765,29.881229877471924
1617967002.88585,-1.913269,29.896849870681763
1617967002.90148,-1.590454,29.912479877471924
1617967002.91711,-1.294464,29.928109884262085
1617967002.93273,-0.988739,29.943729877471924
1617967002.94836,-0.6602783,29.959359884262085
1617967002.96398,-0.3257446,29.974979877471924
1617967002.97961,-0.02386475,29.990609884262085
1617967002.99523,0.2323608,30.006229877471924
1617967003.01086,0.456665,30.021859884262085
1617967003.02649,0.7116394,30.037489891052246
1617967003.04211,1.031647,30.053109884262085
1617967003.05774,1.410156,30.068739891052246
1617967003.07336,1.790741,30.084359884262085
1617967003.08899,2.077393,30.099989891052246
1617967003.10461,2.2099,30.115609884262085
1617967003.12024,2.191681,30.131239891052246
1617967003.13587,2.07309,30.146869897842407
1617967003.15149,1.920227,30.162489891052246
1617967003.16712,1.787018,30.178119897842407
1617967003.18274,1.671936,30.193739891052246
1617967003.19837,1.55957,30.209369897842407
1617967003.21399,1.440704,30.224989891052246
1617967003.22962,1.36557,30.240619897842407
1617967003.24525,1.421539,30.25624990463257
1617967003.26087,1.693298,30.271869897842407
1617967003.2765,2.178345,30.28749990463257
1617967003.29212,2.734436,30.303119897842407
1617967003.30775,3.119934,30.31874990463257
1617967003.32337,3.070404,30.334369897842407
1617967003.339,2.430206,30.34999990463257
1617967003.35463,1.246338,30.36562991142273
1617967003.37025,-0.2197571,30.38124990463257
1617967003.38588,-1.557281,30.39687991142273
1617967003.4015,-2.401978,30.41249990463257
1617967003.41713,-2.564484,30.42812991142273
1617967003.43275,-2.119781,30.44374990463257
1617967003.44838,-1.334808,30.45937991142273
1617967003.46401,-0.5401306,30.47500991821289
1617967003.47963,0.01449585,30.49062991142273
1617967003.49526,0.2510071,30.50625991821289
1617967003.51088,0.2158813,30.52187991142273
1617967003.52651,0.01370239,30.53750991821289
1617967003.54213,-0.2739868,30.55312991142273
1617967003.55776,-0.5931702,30.56875991821289
1617967003.57339,-0.9176025,30.58438992500305
1617967003.58901,-1.19696,30.60000991821289
1617967003.60464,-1.370575,30.61563992500305
1617967003.62026,-1.344055,30.63125991821289
1617967003.63589,-1.048737,30.64688992500305
1617967003.65151,-0.4635925,30.66250991821289
1617967003.66714,0.3694763,30.67813992500305
1617967003.68277,1.30661,30.693769931793213
1617967003.69839,2.198578,30.70938992500305
1617967003.71402,2.868134,30.725019931793213
1617967003.72964,3.199493,30.74063992500305
1617967003.74527,3.13623,30.756269931793213
1617967003.76089,2.735504,30.77188992500305
1617967003.77652,2.12204,30.787519931793213
1617967003.79215,1.485504,30.803149938583374
1617967003.80777,0.9894104,30.818769931793213
1617967003.8234,0.7315979,30.834399938583374
1617967003.83902,0.7470093,30.850019931793213
1617967003.85465,1.012543,30.865649938583374
1617967003.87027,1.46933,30.881269931793213
1617967003.8859,2.049652,30.896899938583374
1617967003.90153,2.678558,30.912529945373535
1617967003.91715,3.25766,30.928149938583374
1617967003.93278,3.691833,30.943779945373535
1617967003.9484,3.891937,30.959399938583374
1617967003.96403,3.817078,30.975029945373535
1617967003.97965,3.519684,30.990649938583374
1617967003.99528,3.108643,31.006279945373535
1617967004.01091,2.756073,31.021909952163696
1617967004.02653,2.582611,31.037529945373535
1617967004.04216,2.646423,31.053159952163696
1617967004.05778,2.908325,31.068779945373535
1617967004.07341,3.236206,31.084409952163696
1617967004.08903,3.497131,31.100029945373535
1617967004.10466,3.57663,31.115659952163696
1617967004.12029,3.444733,31.131289958953857
1617967004.13591,3.142426,31.146909952163696
1617967004.15154,2.754272,31.162539958953857
1617967004.16716,2.372681,31.178159952163696
1617967004.18279,2.052277,31.193789958953857
1617967004.19841,1.770569,31.209409952163696
1617967004.21404,1.436584,31.225039958953857
1617967004.22967,0.9598694,31.24066996574402
1617967004.24529,0.3066406,31.256289958953857
1617967004.26092,-0.4671326,31.27191996574402
1617967004.27654,-1.211334,31.287539958953857
1617967004.29217,-1.759155,31.30316996574402
1617967004.30779,-2.008728,31.318789958953857
1617967004.32342,-2.020935,31.33441996574402
1617967004.33905,-2.027863,31.35004997253418
1617967004.35467,-2.318237,31.36566996574402
1617967004.3703,-3.094177,31.38129997253418
1617967004.38592,-4.369568,31.39691996574402
1617967004.40155,-5.969055,31.41254997253418
1617967004.41717,-7.618134,31.42816996574402
1617967004.4328,-9.127258,31.44379997253418
1617967004.44843,-10.43747,31.45942997932434
1617967004.46405,-11.61154,31.47504997253418
1617967004.47968,-12.68732,31.49067997932434
1617967004.4953,-13.57376,31.50629997253418
1617967004.51093,-14.01459,31.52192997932434
1617967004.52655,-13.74188,31.53754997253418
1617967004.54218,-12.63705,31.55317997932434
1617967004.55781,-10.84171,31.568809986114502
1617967004.57343,-8.704742,31.58442997932434
1617967004.58906,-6.60495,31.600059986114502
1617967004.60468,-4.826019,31.61567997932434
1617967004.62031,-3.440887,31.631309986114502
1617967004.63593,-2.371155,31.64692997932434
1617967004.65156,-1.514496,31.662559986114502
1617967004.66719,-0.8174133,31.678189992904663
1617967004.68281,-0.2957764,31.693809986114502
1617967004.69844,0.06698608,31.709439992904663
1617967004.71406,0.326416,31.725059986114502
1617967004.72969,0.6161194,31.740689992904663
1617967004.74532,1.046539,31.756319999694824
1617967004.76094,1.670074,31.771939992904663
1617967004.77657,2.452759,31.787569999694824
1617967004.79219,3.279388,31.803189992904663
1617967004.80782,4.018982,31.818819999694824
1617967004.82344,4.581421,31.834439992904663
1617967004.83907,4.921173,31.850069999694824
1617967004.8547,5.044525,31.865700006484985
1617967004.87032,4.995422,31.881319999694824
1617967004.88595,4.848389,31.896950006484985
1617967004.90157,4.645508,31.912569999694824
1617967004.9172,4.417969,31.928200006484985
1617967004.93282,4.141266,31.943819999694824
1617967004.94845,3.812836,31.959450006484985
1617967004.96408,3.460205,31.975080013275146
1617967004.9797,3.209198,31.990700006484985
1617967004.99533,3.190491,32.00633001327515
1617967005.01095,3.486481,32.021950006484985
1617967005.02658,4.049286,32.03758001327515
1617967005.0422,4.688324,32.053200006484985
1617967005.05783,5.150146,32.06883001327515
1617967005.07346,5.246674,32.08446002006531
1617967005.08908,4.944031,32.10008001327515
1617967005.10471,4.33902,32.11571002006531
1617967005.12033,3.624725,32.13133001327515
1617967005.13596,2.951904,32.14696002006531
1617967005.15158,2.350616,32.16258001327515
1617967005.16721,1.767395,32.17821002006531
1617967005.18284,1.116882,32.19384002685547
1617967005.19846,0.3578796,32.20946002006531
1617967005.21409,-0.4538574,32.22509002685547
1617967005.22971,-1.181427,32.24071002006531
1617967005.24534,-1.699066,32.25634002685547
1617967005.26096,-1.918854,32.27196002006531
1617967005.27659,-1.835144,32.28759002685547
1617967005.29222,-1.49472,32.30322003364563
1617967005.30784,-1.015106,32.31884002685547
1617967005.32347,-0.5108032,32.33447003364563
1617967005.33909,-0.1098022,32.35009002685547
1617967005.35472,0.09954834,32.36572003364563
1617967005.37034,0.06018066,32.38134002685547
1617967005.38597,-0.2108459,32.39697003364563
1617967005.4016,-0.5978394,32.41259980201721
1617967005.41722,-0.9492798,32.42822003364563
1617967005.43285,-1.068054,32.44384980201721
1617967005.44847,-0.8149719,32.45947003364563
1617967005.4641,-0.1733398,32.47509980201721
1617967005.47972,0.7759094,32.49072003364563
1617967005.49535,1.905518,32.50634980201721
1617967005.51098,3.075867,32.52197980880737
1617967005.5266,4.211273,32.53759980201721
1617967005.54223,5.266449,32.55322980880737
1617967005.55785,6.172852,32.56884980201721
1617967005.57348,6.811371,32.58447980880737
1617967005.5891,7.02948,32.60009980201721
1617967005.60473,6.706848,32.61572980880737
1617967005.62036,5.856079,32.631359815597534
1617967005.63598,4.64386,32.64697980880737
1617967005.65161,3.359344,32.662609815597534
1617967005.66723,2.278107,32.67822980880737
1617967005.68286,1.597717,32.693859815597534
1617967005.69848,1.302185,32.70947980880737
1617967005.71411,1.288055,32.725109815597534
1617967005.72974,1.432434,32.740739822387695
1617967005.74536,1.687683,32.756359815597534
1617967005.76099,2.088989,32.771989822387695
1617967005.77661,2.667511,32.787609815597534
1617967005.79224,3.388702,32.803239822387695
1617967005.80786,4.091949,32.818859815597534
1617967005.82349,4.553558,32.834489822387695
1617967005.83912,4.590607,32.850119829177856
1617967005.85474,4.169647,32.865739822387695
1617967005.87037,3.424927,32.881369829177856
1617967005.88599,2.583801,32.896989822387695
1617967005.90162,1.865326,32.912619829177856
1617967005.91724,1.360931,32.928239822387695
1617967005.93287,1.048859,32.943869829177856
1617967005.9485,0.8569641,32.95949983596802
1617967005.96412,0.7221069,32.975119829177856
1617967005.97975,0.6074829,32.99074983596802
1617967005.99537,0.5394897,33.006369829177856
1617967006.011,0.5311279,33.02199983596802
1617967006.02662,0.5261841,33.037619829177856
1617967006.04225,0.4400635,33.05324983596802
1617967006.05788,0.1691284,33.06887984275818
1617967006.0735,-0.3056946,33.08449983596802
1617967006.08913,-0.9163971,33.10012984275818
1617967006.10475,-1.573715,33.11574983596802
1617967006.12038,-2.177246,33.13137984275818
1617967006.136,-2.702484,33.14699983596802
1617967006.15163,-3.18689,33.16262984275818
1617967006.16726,-3.672638,33.17825984954834
1617967006.18288,-4.140884,33.19387984275818
1617967006.19851,-4.553619,33.20950984954834
1617967006.21413,-4.888016,33.22512984275818
1617967006.22976,-5.172119,33.24075984954834
1617967006.24538,-5.541382,33.25637984275818
1617967006.26101,-6.124954,33.27200984954834
1617967006.27664,-6.9879,33.2876398563385
1617967006.29226,-8.048065,33.30325984954834
1617967006.30789,-9.072754,33.3188898563385
1617967006.32351,-9.781708,33.33450984954834
1617967006.33914,-9.909546,33.3501398563385
1617967006.35476,-9.274918,33.36575984954834
1617967006.37039,-7.797318,33.3813898563385
1617967006.38602,-5.489731,33.39701986312866
1617967006.40164,-2.468842,33.4126398563385
1617967006.41727,0.9921722,33.42826986312866
1617967006.43289,4.500183,33.4438898563385
1617967006.44852,7.595184,33.45951986312866
1617967006.46414,9.925278,33.4751398563385
1617967006.47977,11.32608,33.49076986312866
1617967006.4954,11.90031,33.50639986991882
1617967006.51102,11.95282,33.52201986312866
1617967006.52665,11.78462,33.53764986991882
1617967006.54227,11.60211,33.55326986312866
1617967006.5579,11.43898,33.56889986991882
1617967006.57352,11.21748,33.58451986312866
1617967006.58915,10.88046,33.60014986991882
1617967006.60478,10.45784,33.615779876708984
1617967006.6204,10.03723,33.63139986991882
1617967006.63603,9.675064,33.647029876708984
1617967006.65165,9.331833,33.66264986991882
1617967006.66728,8.843491,33.678279876708984
1617967006.6829,7.987274,33.69389986991882
1617967006.69853,6.616714,33.709529876708984
1617967006.71416,4.766449,33.725159883499146
1617967006.72978,2.676788,33.740779876708984
1617967006.74541,0.7440643,33.756409883499146
1617967006.76103,-0.6512909,33.772029876708984
1617967006.77666,-1.3004,33.787659883499146
1617967006.79228,-1.234192,33.803279876708984
1617967006.80791,-0.7140503,33.818909883499146
1617967006.82354,-0.08088684,33.83453989028931
1617967006.83916,0.348938,33.850159883499146
1617967006.85479,0.4380493,33.86578989028931
1617967006.87041,0.2158813,33.881409883499146
1617967006.88604,-0.1486816,33.89703989028931
1617967006.90166,-0.4645844,33.912659883499146
1617967006.91729,-0.5951385,33.92828989028931
1617967006.93292,-0.4589996,33.94391989707947
1617967006.94854,-0.06086731,33.95953989028931
1617967006.96417,0.5666962,33.97516989707947
1617967006.97979,1.348831,33.99078989028931
1617967006.99542,2.149307,34.00641989707947
1617967007.01104,2.783447,34.02203989028931
1617967007.02667,3.022156,34.03766989707947
1617967007.0423,2.728531,34.05329990386963
1617967007.05792,1.876175,34.06891989707947
1617967007.07355,0.6167145,34.08454990386963
1617967007.08917,-0.7807312,34.10016989707947
1617967007.1048,-2.017456,34.11579990386963
1617967007.12042,-2.861023,34.13141989707947
1617967007.13605,-3.249771,34.14704990386963
1617967007.15168,-3.293839,34.16267991065979
1617967007.1673,-3.208176,34.17829990386963
1617967007.18293,-3.2117,34.19392991065979
1617967007.19855,-3.466064,34.20954990386963
1617967007.21418,-3.965195,34.22517991065979
1617967007.2298,-4.574585,34.24079990386963
1617967007.24543,-5.078568,34.25642991065979
1617967007.26106,-5.253189,34.27205991744995
1617967007.27668,-4.97374,34.28767991065979
1617967007.29231,-4.25563,34.30330991744995
1617967007.30793,-3.225998,34.31892991065979
1617967007.32356,-2.06749,34.33455991744995
1617967007.33919,-0.9529877,34.35018992424011
1617967007.35481,0.02856445,34.36580991744995
1617967007.37044,0.8505707,34.38143992424011
1617967007.38606,1.497513,34.39705991744995
1617967007.40169,1.932358,34.41268992424011
1617967007.41731,2.135666,34.42830991744995
1617967007.43294,2.106873,34.44393992424011
1617967007.44857,1.923203,34.45956993103027
1617967007.46419,1.71582,34.47518992424011
1617967007.47982,1.592346,34.49081993103027
1617967007.49544,1.603897,34.50643992424011
1617967007.51107,1.699753,34.52206993103027
1617967007.52669,1.754974,34.53768992424011
1617967007.54232,1.652832,34.55331993103027
1617967007.55795,1.380096,34.568949937820435
1617967007.57357,1.034164,34.58456993103027
1617967007.5892,0.7718048,34.600199937820435
1617967007.60482,0.7014923,34.61581993103027
1617967007.62045,0.8442383,34.631449937820435
1617967007.63607,1.097626,34.64706993103027
1617967007.6517,1.288162,34.662699937820435
1617967007.66733,1.290817,34.678329944610596
1617967007.68295,1.071411,34.693949937820435
1617967007.69858,0.6719818,34.709579944610596
1617967007.7142,0.212204,34.725199937820435
1617967007.72983,-0.1985016,34.740829944610596
1617967007.74545,-0.473938,34.756449937820435
1617967007.76108,-0.5685883,34.772079944610596
1617967007.77671,-0.4789429,34.78770995140076
1617967007.79233,-0.2491455,34.803329944610596
1617967007.80796,0.04699707,34.81895995140076
1617967007.82358,0.2988586,34.834579944610596
1617967007.83921,0.3899689,34.85020995140076
1617967007.85483,0.2120361,34.865829944610596
1617967007.87046,-0.267807,34.88145995140076
1617967007.88609,-0.9870911,34.89708995819092
1617967007.90171,-1.821991,34.91270995140076
1617967007.91734,-2.629105,34.92833995819092
1617967007.93296,-3.27243,34.94395995140076
1617967007.94859,-3.66925,34.95958995819092
1617967007.96421,-3.779556,34.97520995140076
1617967007.97984,-3.635757,34.99083995819092
1617967007.99547,-3.294586,35.00646996498108
1617967008.01109,-2.881256,35.02208995819092
1617967008.02672,-2.521378,35.03771996498108
1617967008.04234,-2.326721,35.05333995819092
1617967008.05797,-2.323898,35.06896996498108
1617967008.07359,-2.430954,35.08458995819092
1617967008.08922,-2.475433,35.10021996498108
1617967008.10485,-2.312775,35.11584997177124
1617967008.12047,-1.845291,35.13146996498108
1617967008.1361,-1.140335,35.14709997177124
1617967008.15172,-0.3778076,35.16271996498108
1617967008.16735,0.244812,35.17834997177124
1617967008.18297,0.5859833,35.19396996498108
1617967008.1986,0.6699524,35.20959997177124
1617967008.21423,0.6474152,35.2252299785614
1617967008.22985,0.7237396,35.24084997177124
1617967008.24548,1.025131,35.2564799785614
1617967008.2611,1.565475,35.27209997177124
1617967008.27673,2.217255,35.2877299785614
1617967008.29235,2.775482,35.30334997177124
1617967008.30798,3.076721,35.3189799785614
1617967008.32361,3.03389,35.33460998535156
1617967008.33923,2.679779,35.3502299785614
1617967008.35486,2.126617,35.36585998535156
1617967008.37048,1.519394,35.3814799785614
1617967008.38611,0.941925,35.39710998535156
1617967008.40173,0.4589691,35.4127299785614
1617967008.41736,0.08670044,35.42835998535156
1617967008.43299,-0.169342,35.443989992141724
1617967008.44861,-0.258194,35.45960998535156
1617967008.46424,-0.1721344,35.475239992141724
1617967008.47986,0.06944275,35.49085998535156
1617967008.49549,0.4005585,35.506489992141724
1617967008.51111,0.7037201,35.52210998535156
1617967008.52674,0.8925323,35.537739992141724
1617967008.54237,0.9233398,35.553369998931885
1617967008.55799,0.803894,35.568989992141724
1617967008.57362,0.5858002,35.584619998931885
1617967008.58924,0.32724,35.600239992141724
1617967008.60487,0.03762817,35.615869998931885
1617967008.62049,-0.2889709,35.631489992141724
1617967008.63612,-0.6506653,35.647119998931885
1617967008.65175,-1.011856,35.662750005722046
1617967008.66737,-1.320618,35.678369998931885
1617967008.683,-1.533127,35.694000005722046
1617967008.69862,-1.672333,35.709619998931885
1617967008.71425,-1.805389,35.725250005722046
1617967008.72987,-1.998642,35.740869998931885
1617967008.7455,-2.295731,35.756500005722046
1617967008.76113,-2.663986,35.77213001251221
1617967008.77675,-3.008011,35.787750005722046
1617967008.79238,-3.234283,35.80338001251221
1617967008.808,-3.295227,35.819000005722046
1617967008.82363,-3.231903,35.83463001251221
1617967008.83925,-3.16188,35.850250005722046
1617967008.85488,-3.268143,35.86588001251221
1617967008.87051,-3.6633,35.88151001930237
1617967008.88613,-4.364487,35.89713001251221
1617967008.90176,-5.260788,35.91276001930237
1617967008.91738,-6.126694,35.92838001251221
1617967008.93301,-6.71048,35.94401001930237
1617967008.94863,-6.822556,35.95963001251221
1617967008.96426,-6.412064,35.97526001930237
1617967008.97989,-5.573135,35.99089002609253
1617967008.99551,-4.512009,36.00651001930237
1617967009.01114,-3.41832,36.02214002609253
1617967009.02676,-2.436691,36.03776001930237
1617967009.04239,-1.660294,36.05339002609253
1617967009.05801,-1.079208,36.06901001930237
1617967009.07364,-0.688385,36.08464002609253
1617967009.08927,-0.43396,36.10027003288269
1617967009.10489,-0.255188,36.11589002609253
1617967009.12052,-0.136322,36.13152003288269
1617967009.13614,-0.1199188,36.14714002609253
1617967009.15177,-0.3105774,36.16277003288269
1617967009.16739,-0.8036346,36.17839002609253
1617967009.18302,-1.601181,36.19402003288269
1617967009.19865,-2.537766,36.20964980125427
1617967009.21427,-3.300842,36.22527003288269
1617967009.2299,-3.544876,36.24089980125427
1617967009.24552,-3.087692,36.25652003288269
1617967009.26115,-2.020309,36.27214980125427
1617967009.27677,-0.6860352,36.28777003288269
1617967009.2924,0.4662628,36.30339980125427
1617967009.30803,1.112488,36.319029808044434
1617967009.32365,1.175049,36.33464980125427
1617967009.33928,0.852829,36.350279808044434
1617967009.3549,0.4477692,36.36589980125427
1617967009.37053,0.2089386,36.381529808044434
1617967009.38615,0.2211151,36.39714980125427
1617967009.40178,0.4095306,36.412779808044434
1617967009.41741,0.652359,36.428409814834595
1617967009.43303,0.8749847,36.444029808044434
1617967009.44866,1.099182,36.459659814834595
1617967009.46428,1.403,36.475279808044434
1617967009.47991,1.856674,36.490909814834595
1617967009.49553,2.475082,36.506529808044434
1617967009.51116,3.253265,36.522159814834595
1617967009.52679,4.199921,36.537789821624756
1617967009.54241,5.289368,36.553409814834595
1617967009.55804,6.438477,36.569039821624756
1617967009.57366,7.409821,36.584659814834595
1617967009.58929,7.858566,36.600289821624756
1617967009.60492,7.466187,36.61591982841492
1617967009.62054,6.121643,36.631539821624756
1617967009.63617,4.052963,36.64716982841492
1617967009.65179,1.775482,36.662789821624756
1617967009.66742,-0.07495117,36.67841982841492
1617967009.68304,-1.01236,36.694039821624756
1617967009.69867,-0.8933716,36.70966982841492
1617967009.7143,0.05102539,36.72529983520508
1617967009.72992,1.392151,36.74091982841492
1617967009.74555,2.72728,36.75654983520508
1617967009.76117,3.840576,36.77216982841492
1617967009.7768,4.7285,36.78779983520508
1617967009.79242,5.497116,36.80341982841492
1617967009.80805,6.187088,36.81904983520508
1617967009.82368,6.724579,36.83467984199524
1617967009.8393,6.965454,36.85029983520508
1617967009.85493,6.849716,36.86592984199524
1617967009.87055,6.517578,36.88154983520508
1617967009.88618,6.341248,36.89717984199524
1617967009.9018,6.757782,36.91279983520508
1617967009.91743,8.067734,36.92842984199524
1617967009.93306,10.26366,36.9440598487854
1617967009.94868,12.97989,36.95967984199524
1617967009.96431,15.72145,36.9753098487854
1617967009.97993,18.06209,36.99092984199524
1617967009.99556,19.80298,37.0065598487854
1617967010.01118,21.01506,37.02217984199524
1617967010.02681,21.8828,37.0378098487854
1617967010.04244,22.58327,37.05343985557556
1617967010.05806,23.18823,37.0690598487854
1617967010.07369,23.7043,37.08468985557556
1617967010.08931,24.12836,37.1003098487854
1617967010.10494,24.45447,37.11593985557556
1617967010.12056,24.68359,37.1315598487854
1617967010.13619,24.73784,37.14718985557556
1617967010.15182,24.43121,37.16281986236572
1617967010.16744,23.51743,37.17843985557556
1617967010.18307,21.81744,37.19406986236572
1617967010.19869,19.30823,37.20968985557556
1617967010.21432,16.22983,37.22531986236572
1617967010.22994,13.03456,37.24093985557556
1617967010.24557,10.28954,37.25656986236572
1617967010.2612,8.491898,37.272199869155884
1617967010.27682,7.875061,37.28781986236572
1617967010.29245,8.316467,37.303449869155884
1617967010.30807,9.332245,37.31906986236572
1617967010.3237,10.30446,37.334699869155884
1617967010.33932,10.71661,37.35031986236572
1617967010.35495,10.35365,37.365949869155884
1617967010.37058,9.326859,37.381579875946045
1617967010.3862,7.953156,37.397199869155884
1617967010.40183,6.587601,37.412829875946045
1617967010.41745,5.411407,37.428449869155884
1617967010.43308,4.426468,37.444079875946045
1617967010.4487,3.475372,37.459699869155884
1617967010.46433,2.413879,37.475329875946045
1617967010.47996,1.115692,37.490959882736206
1617967010.49558,-0.4984589,37.506579875946045
1617967010.51121,-2.512238,37.522209882736206
1617967010.52683,-5.00087,37.537829875946045
1617967010.54246,-7.995712,37.553459882736206
1617967010.55808,-11.41522,37.569079875946045
1617967010.57371,-14.94951,37.584709882736206
1617967010.58934,-18.13986,37.60033988952637
1617967010.60496,-20.48952,37.615959882736206
1617967010.62059,-21.72122,37.63158988952637
1617967010.63621,-21.84052,37.647209882736206
1617967010.65184,-21.19524,37.66283988952637
1617967010.66746,-20.31201,37.678459882736206
1617967010.68309,-19.63484,37.69408988952637
1617967010.69872,-19.39215,37.70971989631653
1617967010.71434,-19.48975,37.72533988952637
1617967010.72997,-19.6535,37.74096989631653
1617967010.74559,-19.601,37.75658988952637
1617967010.76122,-19.25429,37.77221989631653
1617967010.77684,-18.68793,37.78783988952637
1617967010.79247,-18.05946,37.80346989631653
1617967010.8081,-17.45567,37.81909990310669
1617967010.82372,-16.77785,37.83471989631653
1617967010.83935,-15.84538,37.85034990310669
1617967010.85497,-14.49365,37.86596989631653
1617967010.8706,-12.74202,37.88159990310669
1617967010.88622,-10.80469,37.89721989631653
1617967010.90185,-9.013885,37.91284990310669
1617967010.91748,-7.652054,37.92847990989685
1617967010.9331,-6.828598,37.94409990310669
1617967010.94873,-6.487549,37.95972990989685
1617967010.96435,-6.414825,37.97534990310669
1617967010.97998,-6.414337,37.99097990989685
1617967010.9956,-6.350311,38.00659990310669
1617967011.01123,-6.173508,38.02222990989685
1617967011.02686,-5.94339,38.03785991668701
1617967011.04248,-5.719391,38.05347990989685
1617967011.05811,-5.540588,38.06910991668701
1617967011.07373,-5.396301,38.08472990989685
1617967011.08936,-5.233826,38.10035991668701
1617967011.10498,-4.978302,38.11597990989685
1617967011.12061,-4.579254,38.13160991668701
1617967011.13624,-4.038147,38.14723992347717
1617967011.15186,-3.374573,38.16285991668701
1617967011.16749,-2.688019,38.17848992347717
1617967011.18311,-2.057556,38.19410991668701
1617967011.19874,-1.577362,38.20973992347717
1617967011.21436,-1.312561,38.22535991668701
1617967011.22999,-1.302795,38.24098992347717
1617967011.24562,-1.530914,38.256619930267334
1617967011.26124,-1.932281,38.27223992347717
1617967011.27687,-2.428955,38.287869930267334
1617967011.29249,-2.917542,38.30348992347717
1617967011.30812,-3.36795,38.319119930267334
1617967011.32374,-3.785095,38.33473992347717
1617967011.33937,-4.193176,38.350369930267334
1617967011.355,-4.59079,38.365999937057495
1617967011.37062,-4.93335,38.381619930267334
1617967011.38625,-5.102844,38.397249937057495
1617967011.40187,-5.010132,38.412869930267334
1617967011.4175,-4.654419,38.428499937057495
1617967011.43312,-4.149933,38.444119930267334
1617967011.44875,-3.700897,38.459749937057495
1617967011.46438,-3.456451,38.475379943847656
1617967011.48,-3.472504,38.490999937057495
1617967011.49563,-3.647736,38.506629943847656
1617967011.51125,-3.823059,38.522249937057495
1617967011.52688,-3.870544,38.537879943847656
1617967011.5425,-3.774841,38.553499937057495
1617967011.55813,-3.608032,38.569129943847656
1617967011.57376,-3.502045,38.58475995063782
1617967011.58938,-3.566895,38.600379943847656
1617967011.60501,-3.842224,38.61600995063782
1617967011.62063,-4.260513,38.631629943847656
1617967011.63626,-4.701065,38.64725995063782
1617967011.65188,-4.992874,38.662879943847656
1617967011.66751,-4.963821,38.67850995063782
1617967011.68314,-4.494354,38.69413995742798
1617967011.69876,-3.567963,38.70975995063782
1617967011.71439,-2.293137,38.72538995742798
1617967011.73001,-0.8879395,38.74100995063782
1617967011.74564,0.4276581,38.75663995742798
1617967011.76126,1.519577,38.77225995063782
1617967011.77689,2.366211,38.78788995742798
1617967011.79252,3.031067,38.80351996421814
1617967011.80814,3.57872,38.81913995742798
1617967011.82377,3.992645,38.83476996421814
1617967011.83939,4.145752,38.85038995742798
1617967011.85502,3.926559,38.86601996421814
1617967011.87065,3.293747,38.8816499710083
1617967011.88627,2.351654,38.89726996421814
1617967011.9019,1.33252,38.9128999710083
1617967011.91752,0.4688416,38.92851996421814
1617967011.93315,-0.07661438,38.9441499710083
1617967011.94877,-0.2737122,38.95976996421814
1617967011.9644,-0.1871185,38.9753999710083
1617967011.98003,0.04724121,38.99102997779846
1617967011.99565,0.3179016,39.0066499710083
1617967012.01128,0.5414886,39.02227997779846
1617967012.0269,0.6819763,39.0378999710083
1617967012.04253,0.7342377,39.05352997779846
1617967012.05815,0.7293396,39.0691499710083
1617967012.07378,0.7024536,39.08477997779846
1617967012.08941,0.7005157,39.10040998458862
1617967012.10503,0.7716522,39.11602997779846
1617967012.12066,0.9070435,39.13165998458862
1617967012.13628,1.08429,39.14727997779846
1617967012.15191,1.198639,39.16290998458862
1617967012.16753,1.159378,39.17852997779846
1617967012.18316,0.9180908,39.19415998458862
1617967012.19879,0.4930573,39.209789991378784
1617967012.21441,-0.01498413,39.22540998458862
1617967012.23004,-0.5009918,39.241039991378784
1617967012.24566,-0.8724213,39.25665998458862
1617967012.26129,-1.097153,39.272289991378784
1617967012.27691,-1.198853,39.28790998458862
1617967012.29254,-1.231155,39.303539991378784
1617967012.30817,-1.260681,39.319169998168945
1617967012.32379,-1.33046,39.334789991378784
1617967012.33942,-1.479233,39.350419998168945
1617967012.35504,-1.742615,39.366039991378784
1617967012.37067,-2.118484,39.381669998168945
1617967012.38629,-2.574921,39.397289991378784
1617967012.40192,-3.052399,39.412919998168945
1617967012.41755,-3.467987,39.428550004959106
1617967012.43317,-3.819595,39.444169998168945
1617967012.4488,-4.158478,39.459800004959106
1617967012.46442,-4.633041,39.475419998168945
1617967012.48005,-5.353241,39.491050004959106
1617967012.49567,-6.307419,39.506669998168945
1617967012.5113,-7.320084,39.522300004959106
1617967012.52693,-8.07579,39.53793001174927
1617967012.54255,-8.214432,39.553550004959106
1617967012.55818,-7.486649,39.56918001174927
1617967012.5738,-5.838318,39.584800004959106
1617967012.58943,-3.436691,39.60043001174927
1617967012.60505,-0.628067,39.616050004959106
1617967012.62068,2.156937,39.63168001174927
1617967012.63631,4.533691,39.64731001853943
1617967012.65193,6.275787,39.66293001174927
1617967012.66756,7.333206,39.67856001853943
1617967012.68318,7.834259,39.69418001174927
1617967012.69881,7.970642,39.70981001853943
1617967012.71443,7.916382,39.72543001174927
1617967012.73006,7.793304,39.74106001853943
1617967012.74569,7.69397,39.75669002532959
1617967012.76131,7.709457,39.77231001853943
1617967012.77694,7.921356,39.78794002532959
1617967012.79256,8.384674,39.80356001853943
1617967012.80819,9.003586,39.81919002532959
1617967012.82381,9.584976,39.83481001853943
1617967012.83944,9.880859,39.85044002532959
1617967012.85507,9.737671,39.86607003211975
1617967012.87069,9.169205,39.88169002532959
1617967012.88632,8.377625,39.89732003211975
1617967012.90194,7.619858,39.91294002532959
1617967012.91757,7.101898,39.92857003211975
1617967012.93319,6.867599,39.94419002532959
1617967012.94882,6.786194,39.95982003211975
1617967012.96445,6.681137,39.97544980049133
1617967012.98007,6.397202,39.99107003211975
1617967012.9957,5.863861,40.00669980049133
1617967013.01132,5.113495,40.02232003211975
1617967013.02695,4.231049,40.03794980049133
1617967013.04257,3.321045,40.05357003211975
1617967013.0582,2.473602,40.06919980049133
1617967013.07383,1.71286,40.084829807281494
1617967013.08945,0.9612732,40.10044980049133
1617967013.10508,0.1196289,40.116079807281494
1617967013.1207,-0.9087524,40.13169980049133
1617967013.13633,-2.140488,40.147329807281494
1617967013.15195,-3.497528,40.16294980049133
1617967013.16758,-4.85231,40.178579807281494
1617967013.18321,-6.120193,40.194209814071655
1617967013.19883,-7.294525,40.209829807281494
1617967013.21446,-8.382446,40.225459814071655
1617967013.23008,-9.369659,40.241079807281494
1617967013.24571,-10.10933,40.256709814071655
1617967013.26133,-10.36775,40.272329807281494
1617967013.27696,-9.985138,40.287959814071655
1617967013.29259,-8.952301,40.303589820861816
1617967013.30821,-7.501892,40.319209814071655
1617967013.32384,-6.048691,40.334839820861816
1617967013.33946,-4.990524,40.350459814071655
1617967013.35509,-4.54744,40.366089820861816
1617967013.37071,-4.729553,40.381709814071655
1617967013.38634,-5.326294,40.397339820861816
1617967013.40197,-6.065506,40.41296982765198
1617967013.41759,-6.730896,40.428589820861816
1617967013.43322,-7.160309,40.44421982765198
1617967013.44884,-7.248428,40.459839820861816
1617967013.46447,-6.912521,40.47546982765198
1617967013.48009,-6.071381,40.491089820861816
1617967013.49572,-4.679214,40.50671982765198
1617967013.51135,-2.828323,40.52234983444214
1617967013.52697,-0.73349,40.53796982765198
1617967013.5426,1.330978,40.55359983444214
1617967013.55822,3.086563,40.56921982765198
1617967013.57385,4.399475,40.58484983444214
1617967013.58947,5.25589,40.60046982765198
1617967013.6051,5.730774,40.61609983444214
1617967013.62073,5.936447,40.6317298412323
1617967013.63635,5.965469,40.64734983444214
1617967013.65198,5.889359,40.6629798412323
1617967013.6676,5.7715,40.67859983444214
1617967013.68323,5.714554,40.6942298412323
1617967013.69885,5.780045,40.70984983444214
1617967013.71448,6.004227,40.7254798412323
1617967013.73011,6.313217,40.74110984802246
1617967013.74573,6.585388,40.7567298412323
1617967013.76136,6.725906,40.77235984802246
1617967013.77698,6.72525,40.7879798412323
1617967013.79261,6.664932,40.80360984802246
1617967013.80823,6.674042,40.8192298412323
1617967013.82386,6.834442,40.83485984802246
1617967013.83949,7.114471,40.85048985481262
1617967013.85511,7.449997,40.86610984802246
1617967013.87074,7.711868,40.88173985481262
1617967013.88636,7.83699,40.89735984802246
1617967013.90199,7.808777,40.91298985481262
1617967013.91761,7.616821,40.92860984802246
1617967013.93324,7.254837,40.94423985481262
1617967013.94887,6.707672,40.95986986160278
1617967013.96449,5.958496,40.97548985481262
1617967013.98012,5.024261,40.99111986160278
1617967013.99574,4.015991,41.00673985481262
1617967014.01137,3.041107,41.02236986160278
1617967014.02699,2.199585,41.03798985481262
1617967014.04262,1.51474,41.05361986160278
1617967014.05825,0.9456329,41.069249868392944
1617967014.07387,0.4181519,41.08486986160278
1617967014.0895,-0.1102295,41.100499868392944
1617967014.10512,-0.6502533,41.11611986160278
1617967014.12075,-1.18573,41.131749868392944
1617967014.13637,-1.692474,41.14736986160278
1617967014.152,-2.180145,41.162999868392944
1617967014.16763,-2.666672,41.178629875183105
1617967014.18325,-3.175018,41.194249868392944
1617967014.19888,-3.698959,41.209879875183105
1617967014.2145,-4.218857,41.225499868392944
1617967014.23013,-4.682816,41.241129875183105
1617967014.24575,-5.053146,41.256749868392944
1617967014.26138,-5.334167,41.272379875183105
1617967014.27701,-5.581161,41.28800988197327
1617967014.29263,-5.950409,41.303629875183105
1617967014.30826,-6.633728,41.31925988197327
1617967014.32388,-7.765778,41.334879875183105
1617967014.33951,-9.327713,41.35050988197327
1617967014.35513,-11.04584,41.366129875183105
1617967014.37076,-12.41771,41.38175988197327
1617967014.38639,-12.85886,41.39738988876343
1617967014.40201,-11.95956,41.41300988197327
1617967014.41764,-9.672958,41.42863988876343
1617967014.43326,-6.373886,41.44425988197327
1617967014.44889,-2.759201,41.45988988876343
1617967014.46452,0.4855042,41.47551989555359
1617967014.48014,2.907761,41.49113988876343
1617967014.49577,4.429749,41.50676989555359
1617967014.51139,5.278061,41.52238988876343
1617967014.52702,5.743637,41.53801989555359
1617967014.54264,5.995346,41.55363988876343
1617967014.55827,6.031738,41.56926989555359
1617967014.5739,5.745987,41.58489990234375
1617967014.58952,5.082993,41.60051989555359
1617967014.60515,4.153488,41.61614990234375
1617967014.62077,3.209808,41.63176989555359
1617967014.6364,2.532501,41.64739990234375
1617967014.65202,2.269821,41.66301989555359
1617967014.66765,2.401642,41.67864990234375
1617967014.68328,2.741287,41.69427990913391
1617967014.6989,3.107376,41.70989990234375
1617967014.71453,3.375931,41.72552990913391
1617967014.73015,3.555573,41.74114990234375
1617967014.74578,3.702652,41.75677990913391
1617967014.7614,3.887024,41.77239990234375
1617967014.77703,4.066711,41.78802990913391
1617967014.79266,4.141602,41.80365991592407
1617967014.80828,3.996475,41.81927990913391
1617967014.82391,3.564072,41.83490991592407
1617967014.83953,2.893829,41.85052990913391
