timestamp,value,norm_ts
1619090734.35301,77.14752,0.9940099716186523
1619090734.36863,62.95549,1.0096299648284912
1619090734.38426,46.97214,1.0252599716186523
1619090734.39988,29.38745,1.0408799648284912
1619090734.41551,12.2728,1.0565099716186523
1619090734.43114,-1.336365,1.0721399784088135
1619090734.44676,-8.781021,1.0877599716186523
1619090734.46239,-8.932892,1.1033899784088135
1619090734.47801,-2.58606,1.1190099716186523
1619090734.49364,8.051849,1.1346399784088135
1619090734.50926,20.28079,1.1502599716186523
1619090734.52489,31.66202,1.1658899784088135
1619090734.54052,40.27736,1.1815199851989746
1619090734.55614,44.9357,1.1971399784088135
1619090734.57177,45.55508,1.2127699851989746
1619090734.58739,43.75403,1.2283899784088135
1619090734.60302,43.10013,1.2440199851989746
1619090734.61864,48.25331,1.2596399784088135
1619090734.63427,62.91705,1.2752699851989746
1619090734.6499,87.62109,1.2908999919891357
1619090734.66552,118.6446,1.3065199851989746
1619090734.68115,149.0996,1.3221499919891357
1619090734.69677,172.1108,1.3377699851989746
1619090734.7124,184.0655,1.3533999919891357
1619090734.72802,186.2285,1.3690199851989746
1619090734.74365,183.5542,1.3846499919891357
1619090734.75928,181.4226,1.4002799987792969
1619090734.7749,182.2538,1.4158999919891357
1619090734.79053,184.2041,1.4315299987792969
1619090734.80615,182.482,1.4471499919891357
1619090734.82178,172.3486,1.4627799987792969
1619090734.8374,151.9307,1.4783999919891357
1619090734.85303,123.0598,1.4940299987792969
1619090734.86866,90.26872,1.509660005569458
1619090734.88428,58.67273,1.5252799987792969
1619090734.89991,32.09174,1.540910005569458
1619090734.91553,12.33537,1.5565299987792969
1619090734.93116,-0.5133514,1.572160005569458
1619090734.94678,-7.426735,1.5877799987792969
1619090734.96241,-9.888,1.603410005569458
1619090734.97804,-9.707024,1.6190400123596191
1619090734.99366,-9.15609,1.634660005569458
1619090735.00929,-10.93527,1.6502900123596191
1619090735.02491,-17.63181,1.665910005569458
1619090735.04054,-30.99236,1.6815400123596191
1619090735.05616,-51.23363,1.697160005569458
1619090735.07179,-76.79024,1.7127900123596191
1619090735.08742,-104.6472,1.7284200191497803
1619090735.10304,-131.1481,1.7440400123596191
1619090735.11867,-152.9074,1.7596700191497803
1619090735.13429,-167.5855,1.7752900123596191
1619090735.14992,-174.2989,1.7909200191497803
1619090735.16554,-173.5311,1.8065400123596191
1619090735.18117,-166.942,1.8221700191497803
1619090735.1968,-156.833,1.8378000259399414
1619090735.21242,-145.744,1.8534200191497803
1619090735.22805,-136.0645,1.8690500259399414
1619090735.24367,-129.673,1.8846700191497803
1619090735.2593,-127.6203,1.9003000259399414
1619090735.27492,-130.0076,1.9159200191497803
1619090735.29055,-136.0754,1.9315500259399414
1619090735.30618,-144.4578,1.9471800327301025
1619090735.3218,-153.6187,1.9628000259399414
1619090735.33743,-162.1022,1.9784300327301025
1619090735.35305,-168.6244,1.9940500259399414
1619090735.36868,-172.0563,2.0096800327301025
1619090735.3843,-171.4244,2.0253000259399414
1619090735.39993,-166.1001,2.0409300327301025
1619090735.41556,-156.0626,2.0565600395202637
1619090735.43118,-142.086,2.0721800327301025
1619090735.44681,-125.7211,2.0878100395202637
1619090735.46243,-108.9206,2.1034300327301025
1619090735.47806,-93.44114,2.1190600395202637
1619090735.49368,-80.35167,2.1346800327301025
1619090735.50931,-69.73442,2.1503100395202637
1619090735.52494,-60.77879,2.165940046310425
1619090735.54056,-52.18678,2.1815600395202637
1619090735.55619,-42.64908,2.197190046310425
1619090735.57181,-31.36452,2.2128100395202637
1619090735.58744,-18.29129,2.228440046310425
1619090735.60306,-4.195992,2.2440600395202637
1619090735.61869,9.596535,2.259690046310425
1619090735.63432,21.67435,2.275320053100586
1619090735.64994,30.98056,2.290940046310425
1619090735.66557,37.08792,2.306570053100586
1619090735.68119,40.25373,2.322190046310425
1619090735.69682,41.27859,2.337820053100586
1619090735.71244,41.18362,2.353440046310425
1619090735.72807,40.99041,2.369070053100586
1619090735.7437,41.4743,2.384700059890747
1619090735.75932,43.06887,2.400320053100586
1619090735.77495,45.81202,2.415950059890747
1619090735.79057,49.2659,2.431570053100586
1619090735.8062,52.59927,2.447200059890747
1619090735.82182,54.80115,2.462820053100586
1619090735.83745,55.007,2.478450059890747
1619090735.85308,52.82413,2.494080066680908
1619090735.8687,48.44836,2.509700059890747
1619090735.88433,42.60423,2.525330066680908
1619090735.89995,36.23469,2.540950059890747
1619090735.91558,30.18702,2.556580066680908
1619090735.93121,24.96352,2.5722100734710693
1619090735.94683,20.67815,2.587830066680908
1619090735.96246,17.11638,2.6034600734710693
1619090735.97808,13.96771,2.619080066680908
1619090735.99371,10.95828,2.6347100734710693
1619090736.00933,7.907488,2.650330066680908
1619090736.02496,4.802433,2.6659600734710693
1619090736.04059,1.68573,2.6815900802612305
1619090736.05621,-1.403488,2.6972100734710693
1619090736.07184,-4.558739,2.7128400802612305
1619090736.08746,-7.960262,2.7284600734710693
1619090736.10309,-11.88109,2.7440900802612305
1619090736.11871,-16.52896,2.7597100734710693
1619090736.13434,-21.91134,2.7753400802612305
1619090736.14997,-27.76667,2.7909700870513916
1619090736.16559,-33.50121,2.8065900802612305
1619090736.18122,-38.26641,2.8222200870513916
1619090736.19684,-41.10635,2.8378400802612305
1619090736.21247,-41.2494,2.8534700870513916
1619090736.22809,-38.35171,2.8690900802612305
1619090736.24372,-32.74045,2.8847200870513916
1619090736.25935,-25.38097,2.9003500938415527
1619090736.27497,-17.61752,2.9159700870513916
1619090736.2906,-10.68268,2.9316000938415527
1619090736.30622,-5.257156,2.9472200870513916
1619090736.32185,-1.297424,2.9628500938415527
1619090736.33747,1.845901,2.9784700870513916
1619090736.3531,5.014458,2.9941000938415527
1619090736.36873,8.723679,3.009730100631714
1619090736.38435,12.84261,3.0253500938415527
1619090736.39998,16.60589,3.040980100631714
1619090736.4156,18.93507,3.0566000938415527
1619090736.43123,18.95709,3.072230100631714
1619090736.44685,16.42038,3.0878500938415527
1619090736.46248,11.88623,3.103480100631714
1619090736.47811,6.564758,3.119110107421875
1619090736.49373,1.977448,3.134730100631714
1619090736.50936,-0.5461273,3.150360107421875
1619090736.52498,-0.2760468,3.165980100631714
1619090736.54061,2.671387,3.181610107421875
1619090736.55623,7.320313,3.197230100631714
1619090736.57186,12.10883,3.212860107421875
1619090736.58749,15.30913,3.228490114212036
1619090736.60311,15.6145,3.244110107421875
1619090736.61874,12.51759,3.259740114212036
1619090736.63436,6.596741,3.275360107421875
1619090736.64999,-0.6739807,3.290990114212036
1619090736.66561,-7.437973,3.306610107421875
1619090736.68124,-12.0757,3.322240114212036
1619090736.69687,-13.77808,3.3378701210021973
1619090736.71249,-12.72035,3.353490114212036
1619090736.72812,-9.927094,3.3691201210021973
1619090736.74374,-6.760941,3.384740114212036
1619090736.75937,-4.466278,3.4003701210021973
1619090736.77499,-3.870163,3.415990114212036
1619090736.79062,-5.330017,3.4316201210021973
1619090736.80625,-8.828125,3.4472501277923584
1619090736.82187,-14.05617,3.4628701210021973
1619090736.8375,-20.52156,3.4785001277923584
1619090736.85312,-27.57889,3.4941201210021973
1619090736.86875,-34.61655,3.5097501277923584
1619090736.88437,-41.21466,3.5253701210021973
1619090736.9,-47.33994,3.5410001277923584
1619090736.91563,-53.41,3.5566301345825195
1619090736.93125,-60.09323,3.5722501277923584
1619090736.94688,-68.02228,3.5878801345825195
1619090736.9625,-77.2648,3.6035001277923584
1619090736.97813,-87.12527,3.6191301345825195
1619090736.99375,-96.10962,3.6347501277923584
1619090737.00938,-102.3226,3.6503801345825195
1619090737.02501,-104.0276,3.6660101413726807
1619090737.04063,-100.2229,3.6816301345825195
1619090737.05626,-90.99713,3.6972601413726807
1619090737.07188,-77.4668,3.7128801345825195
1619090737.08751,-61.48859,3.7285101413726807
1619090737.10313,-44.98212,3.7441301345825195
1619090737.11876,-29.53214,3.7597601413726807
1619090737.13439,-15.93472,3.775390148162842
1619090737.15001,-4.156647,3.7910101413726807
1619090737.16564,6.516632,3.806640148162842
1619090737.18126,17.12344,3.8222601413726807
1619090737.19689,28.58383,3.837890148162842
1619090737.21251,41.31592,3.8535101413726807
1619090737.22814,55.03,3.869140148162842
1619090737.24377,68.8696,3.884769916534424
1619090737.25939,81.67142,3.900390148162842
1619090737.27502,92.48315,3.916019916534424
1619090737.29064,100.9164,3.931640148162842
1619090737.30627,107.233,3.947269916534424
1619090737.32189,112.1336,3.962890148162842
1619090737.33752,116.4014,3.978519916534424
1619090737.35315,120.5217,3.994149923324585
1619090737.36877,124.5312,4.009769916534424
1619090737.3844,128.0806,4.025399923324585
1619090737.40002,130.657,4.041019916534424
1619090737.41565,131.8423,4.056649923324585
1619090737.43127,131.4753,4.072269916534424
1619090737.4469,129.6492,4.087899923324585
1619090737.46253,126.7671,4.103529930114746
1619090737.47815,123.4153,4.119149923324585
1619090737.49378,120.2552,4.134779930114746
1619090737.5094,117.7698,4.150399923324585
1619090737.52503,116.0711,4.166029930114746
1619090737.54065,114.8221,4.181649923324585
1619090737.55628,113.3962,4.197279930114746
1619090737.57191,111.1957,4.212909936904907
1619090737.58753,107.9603,4.228529930114746
1619090737.60316,103.9325,4.244159936904907
1619090737.61878,99.62448,4.259779930114746
1619090737.63441,95.50729,4.275409936904907
1619090737.65003,91.664,4.291029930114746
1619090737.66566,87.76031,4.306659936904907
1619090737.68129,83.17569,4.322289943695068
1619090737.69691,77.43753,4.337909936904907
1619090737.71254,70.42828,4.353539943695068
1619090737.72816,62.44275,4.369159936904907
1619090737.74379,54.04724,4.384789943695068
1619090737.75941,45.78412,4.400409936904907
1619090737.77504,37.98566,4.416039943695068
1619090737.79067,30.71573,4.4316699504852295
1619090737.80629,23.80566,4.447289943695068
1619090737.82192,16.94559,4.4629199504852295
1619090737.83754,9.769531,4.478539943695068
1619090737.85317,1.884277,4.4941699504852295
1619090737.86879,-7.083649,4.509789943695068
1619090737.88442,-17.48212,4.5254199504852295
1619090737.90005,-29.56973,4.541049957275391
1619090737.91567,-43.45859,4.5566699504852295
1619090737.9313,-58.94485,4.572299957275391
1619090737.94692,-75.53735,4.5879199504852295
1619090737.96255,-92.46774,4.603549957275391
1619090737.97817,-108.8809,4.6191699504852295
1619090737.9938,-124.1006,4.634799957275391
1619090738.00943,-137.8307,4.650429964065552
1619090738.02505,-150.2242,4.666049957275391
1619090738.04068,-161.5894,4.681679964065552
1619090738.0563,-171.9755,4.697299957275391
1619090738.07193,-180.7051,4.712929964065552
1619090738.08755,-186.2953,4.728549957275391
1619090738.10318,-186.7996,4.744179964065552
1619090738.11881,-180.5226,4.759809970855713
1619090738.13443,-166.79,4.775429964065552
1619090738.15006,-146.3183,4.791059970855713
1619090738.16568,-121.0765,4.806679964065552
1619090738.18131,-93.6828,4.822309970855713
1619090738.19693,-66.646,4.837929964065552
1619090738.21256,-41.81363,4.853559970855713
1619090738.22819,-20.16769,4.869189977645874
1619090738.24381,-1.944153,4.884809970855713
1619090738.25944,13.08835,4.900439977645874
1619090738.27506,25.43378,4.916059970855713
1619090738.29069,35.73727,4.931689977645874
1619090738.30631,44.73532,4.947309970855713
1619090738.32194,53.07748,4.962939977645874
1619090738.33757,61.14716,4.978569984436035
1619090738.35319,68.89517,4.994189977645874
1619090738.36882,75.87405,5.009819984436035
1619090738.38444,81.47614,5.025439977645874
1619090738.40007,85.21814,5.041069984436035
1619090738.41569,87.00372,5.056689977645874
1619090738.43132,87.17618,5.072319984436035
1619090738.44695,86.37402,5.087949991226196
1619090738.46257,85.23627,5.103569984436035
1619090738.4782,84.22348,5.119199991226196
1619090738.49382,83.45895,5.134819984436035
1619090738.50945,82.80234,5.150449991226196
1619090738.52507,81.95816,5.166069984436035
1619090738.5407,80.59149,5.181699991226196
1619090738.55633,78.44241,5.197329998016357
1619090738.57195,75.36353,5.212949991226196
1619090738.58758,71.39453,5.228579998016357
1619090738.6032,66.73303,5.244199991226196
1619090738.61883,61.78793,5.259829998016357
1619090738.63446,56.99365,5.2754600048065186
1619090738.65008,52.76801,5.291079998016357
1619090738.66571,49.30731,5.3067100048065186
1619090738.68133,46.56808,5.322329998016357
1619090738.69696,44.32181,5.3379600048065186
1619090738.71258,42.2157,5.353579998016357
1619090738.72821,39.97714,5.3692100048065186
1619090738.74384,37.39642,5.38484001159668
1619090738.75946,34.4368,5.4004600048065186
1619090738.77509,31.16437,5.41609001159668
1619090738.79071,27.7179,5.4317100048065186
1619090738.80634,24.29712,5.44734001159668
1619090738.82196,21.0853,5.4629600048065186
1619090738.83759,18.2467,5.47859001159668
1619090738.85322,15.84879,5.494220018386841
1619090738.86884,13.81656,5.50984001159668
1619090738.88447,11.85825,5.525470018386841
1619090738.90009,9.529968,5.54109001159668
1619090738.91572,6.381531,5.556720018386841
1619090738.93134,2.089508,5.57234001159668
1619090738.94697,-3.360046,5.587970018386841
1619090738.9626,-9.641144,5.603600025177002
1619090738.97822,-16.14243,5.619220018386841
1619090738.99385,-22.15231,5.634850025177002
1619090739.00947,-27.11429,5.650470018386841
1619090739.0251,-30.80612,5.666100025177002
1619090739.04072,-33.40402,5.681720018386841
1619090739.05635,-35.3927,5.697350025177002
1619090739.07198,-37.35953,5.712980031967163
1619090739.0876,-39.77402,5.728600025177002
1619090739.10323,-42.85031,5.744230031967163
1619090739.11885,-46.5336,5.759850025177002
1619090739.13448,-50.58646,5.775480031967163
1619090739.1501,-54.61224,5.791100025177002
1619090739.16573,-58.28406,5.806730031967163
1619090739.18136,-61.37372,5.822360038757324
1619090739.19698,-63.89389,5.837980031967163
1619090739.21261,-66.20993,5.853610038757324
1619090739.22823,-68.94525,5.869230031967163
1619090739.24386,-72.81927,5.884860038757324
1619090739.25948,-78.29504,5.900480031967163
1619090739.27511,-85.1619,5.916110038757324
1619090739.29074,-92.33328,5.931740045547485
1619090739.30636,-97.95949,5.947360038757324
1619090739.32199,-99.98131,5.962990045547485
1619090739.33761,-96.84766,5.978610038757324
1619090739.35324,-88.10225,5.994240045547485
1619090739.36886,-74.58278,6.009860038757324
1619090739.38449,-58.08603,6.025490045547485
1619090739.40012,-40.77394,6.0411200523376465
1619090739.41574,-24.51189,6.056740045547485
1619090739.43137,-10.43298,6.0723700523376465
1619090739.44699,1.078079,6.087990045547485
1619090739.46262,10.29236,6.1036200523376465
1619090739.47824,17.79268,6.119240045547485
1619090739.49387,24.26369,6.1348700523376465
1619090739.5095,30.30795,6.150500059127808
1619090739.52512,36.31926,6.1661200523376465
1619090739.54075,42.40242,6.181750059127808
1619090739.55637,48.38269,6.1973700523376465
1619090739.572,53.87706,6.213000059127808
1619090739.58762,58.39722,6.2286200523376465
1619090739.60325,61.59326,6.244250059127808
1619090739.61888,63.35594,6.259880065917969
1619090739.6345,63.82083,6.275500059127808
1619090739.65013,63.41919,6.291130065917969
1619090739.66575,62.63199,6.306750059127808
1619090739.68138,61.91403,6.322380065917969
1619090739.697,61.58194,6.338000059127808
1619090739.71263,61.76469,6.353630065917969
1619090739.72826,62.27921,6.36926007270813
1619090739.74388,62.69995,6.384880065917969
1619090739.75951,62.3934,6.40051007270813
1619090739.77513,60.70074,6.416130065917969
1619090739.79076,57.18851,6.43176007270813
1619090739.80638,51.86469,6.447380065917969
1619090739.82201,45.22348,6.46301007270813
1619090739.83764,38.11919,6.478640079498291
1619090739.85326,31.50099,6.49426007270813
1619090739.86889,26.00378,6.509890079498291
1619090739.88451,21.83511,6.52551007270813
1619090739.90014,18.74072,6.541140079498291
1619090739.91576,16.26619,6.55676007270813
1619090739.93139,13.98756,6.572390079498291
1619090739.94702,11.68835,6.588020086288452
1619090739.96264,9.372482,6.603640079498291
1619090739.97827,7.156189,6.619270086288452
1619090739.99389,5.160995,6.634890079498291
1619090740.00952,3.435196,6.650520086288452
1619090740.02514,1.966217,6.666140079498291
1619090740.04077,0.6749115,6.681770086288452
1619090740.0564,-0.5148773,6.697400093078613
1619090740.07202,-1.696793,6.713020086288452
1619090740.08765,-2.989502,6.728650093078613
1619090740.10327,-4.524719,6.744270086288452
1619090740.1189,-6.440506,6.759900093078613
1619090740.13452,-8.902954,6.775520086288452
1619090740.15015,-12.01154,6.791150093078613
1619090740.16578,-15.82231,6.806780099868774
1619090740.1814,-20.29549,6.822400093078613
1619090740.19703,-25.29234,6.838030099868774
1619090740.21265,-30.52708,6.853650093078613
1619090740.22828,-35.64313,6.869280099868774
1619090740.2439,-40.33443,6.884900093078613
1619090740.25953,-44.50679,6.900530099868774
1619090740.27516,-48.40052,6.9161601066589355
1619090740.29078,-52.62552,6.931780099868774
1619090740.30641,-58.03546,6.9474101066589355
1619090740.32203,-65.40593,6.963030099868774
1619090740.33766,-75.02708,6.9786601066589355
1619090740.35328,-86.32944,6.994280099868774
1619090740.36891,-97.73392,7.0099101066589355
1619090740.38454,-106.8973,7.025540113449097
1619090740.40016,-111.3754,7.0411601066589355
1619090740.41579,-109.4,7.056790113449097
1619090740.43141,-100.5896,7.0724101066589355
1619090740.44704,-86.14172,7.088040113449097
1619090740.46266,-68.45631,7.1036601066589355
1619090740.47829,-50.32809,7.119290113449097
1619090740.49392,-34.0522,7.134920120239258
1619090740.50954,-20.8688,7.150540113449097
1619090740.52517,-10.85803,7.166170120239258
1619090740.54079,-3.378014,7.181790113449097
1619090740.55642,2.495613,7.197420120239258
1619090740.57204,7.468307,7.213040113449097
1619090740.58767,12.01419,7.228670120239258
1619090740.6033,16.40477,7.244300127029419
1619090740.61892,20.84126,7.259920120239258
1619090740.63455,25.4229,7.275550127029419
1619090740.65017,30.08901,7.291170120239258
1619090740.6658,34.54852,7.306800127029419
1619090740.68142,38.32617,7.322420120239258
1619090740.69705,41.0275,7.338050127029419
1619090740.71268,42.47139,7.35368013381958
1619090740.7283,42.8926,7.369300127029419
1619090740.74393,42.82379,7.38493013381958
1619090740.75955,42.88348,7.400550127029419
1619090740.77518,43.54514,7.41618013381958
1619090740.79081,44.94463,7.431810140609741
1619090740.80643,46.90141,7.44743013381958
1619090740.82206,48.99445,7.463060140609741
1619090740.83768,50.71829,7.47868013381958
1619090740.85331,51.66674,7.494310140609741
1619090740.86893,51.59682,7.50993013381958
1619090740.88456,50.48488,7.525560140609741
1619090740.90019,48.49544,7.541190147399902
1619090740.91581,45.88198,7.556810140609741
1619090740.93144,42.92064,7.572440147399902
1619090740.94706,39.78408,7.588060140609741
1619090740.96269,36.54646,7.603690147399902
1619090740.97831,33.24683,7.619310140609741
1619090740.99394,29.88746,7.634940147399902
1619090741.00957,26.45782,7.650569915771484
1619090741.02519,22.9341,7.666190147399902
1619090741.04082,19.26209,7.681819915771484
1619090741.05644,15.38208,7.697440147399902
1619090741.07207,11.3134,7.713069915771484
1619090741.08769,7.201091,7.728690147399902
1619090741.10332,3.252048,7.744319915771484
1619090741.11895,-0.3592215,7.7599499225616455
1619090741.13457,-3.624299,7.775569915771484
1619090741.1502,-6.736889,7.7911999225616455
1619090741.16582,-10.02288,7.806819915771484
1619090741.18145,-13.78571,7.8224499225616455
1619090741.19707,-18.1833,7.838069915771484
1619090741.2127,-23.15545,7.8536999225616455
1619090741.22833,-28.48324,7.869329929351807
1619090741.24395,-33.89027,7.8849499225616455
1619090741.25958,-39.09198,7.900579929351807
1619090741.2752,-43.87965,7.9161999225616455
1619090741.29083,-48.16062,7.931829929351807
1619090741.30645,-51.94627,7.9474499225616455
1619090741.32208,-55.39901,7.963079929351807
1619090741.33771,-58.84583,7.978709936141968
1619090741.35333,-62.77025,7.994329929351807
1619090741.36896,-67.68416,8.009959936141968
1619090741.38458,-73.98227,8.025579929351807
1619090741.40021,-81.68826,8.041209936141968
1619090741.41583,-90.28486,8.056829929351807
1619090741.43146,-98.54576,8.072459936141968
1619090741.44709,-104.7359,8.088089942932129
1619090741.46271,-106.9768,8.103709936141968
1619090741.47834,-103.8107,8.119339942932129
1619090741.49396,-94.73233,8.134959936141968
1619090741.50959,-80.48715,8.150589942932129
1619090741.52521,-62.92192,8.166209936141968
1619090741.54084,-44.4057,8.181839942932129
1619090741.55647,-27.19251,8.19746994972229
1619090741.57209,-12.76409,8.213089942932129
1619090741.58772,-1.566568,8.22871994972229
1619090741.60334,6.891397,8.244339942932129
1619090741.61897,13.57005,8.25996994972229
1619090741.63459,19.46642,8.275589942932129
1619090741.65022,25.23631,8.29121994972229
1619090741.66585,31.10432,8.306849956512451
1619090741.68147,36.95244,8.32246994972229
1619090741.6971,42.52008,8.338099956512451
1619090741.71272,47.55784,8.35371994972229
1619090741.72835,51.86922,8.369349956512451
1619090741.74397,55.30827,8.38496994972229
1619090741.7596,57.7341,8.400599956512451
1619090741.77523,59.02142,8.416229963302612
1619090741.79085,59.12689,8.431849956512451
1619090741.80648,58.19021,8.447479963302612
1619090741.8221,56.56989,8.463099956512451
1619090741.83773,54.79173,8.478729963302612
1619090741.85335,53.35338,8.494349956512451
1619090741.86898,52.5254,8.509979963302612
1619090741.88461,52.27922,8.525609970092773
1619090741.90023,52.29891,8.541229963302612
1619090741.91586,52.11786,8.556859970092773
1619090741.93148,51.31841,8.572479963302612
1619090741.94711,49.73096,8.588109970092773
1619090741.96273,47.4543,8.603729963302612
1619090741.97836,44.75663,8.619359970092773
1619090741.99399,41.97218,8.634989976882935
1619090742.00961,39.29147,8.650609970092773
1619090742.02524,36.75686,8.666239976882935
1619090742.04086,34.29096,8.681859970092773
1619090742.05649,31.79403,8.697489976882935
1619090742.07211,29.24976,8.713109970092773
1619090742.08774,26.67967,8.728739976882935
1619090742.10337,24.14546,8.744369983673096
1619090742.11899,21.63147,8.759989976882935
1619090742.13462,19.05625,8.775619983673096
1619090742.15024,16.24876,8.791239976882935
1619090742.16587,13.11017,8.806869983673096
1619090742.18149,9.585148,8.822489976882935
1619090742.19712,5.738029,8.838119983673096
1619090742.21275,1.718929,8.853749990463257
1619090742.22837,-2.331066,8.869369983673096
1619090742.244,-6.274029,8.884999990463257
1619090742.25962,-10.11288,8.900619983673096
1619090742.27525,-13.9085,8.916249990463257
1619090742.29087,-17.82846,8.931869983673096
1619090742.3065,-22.09401,8.947499990463257
1619090742.32213,-26.90051,8.963129997253418
1619090742.33775,-32.29076,8.978749990463257
1619090742.35338,-38.07513,8.994379997253418
1619090742.369,-43.85331,9.009999990463257
1619090742.38463,-49.14313,9.025629997253418
1619090742.40025,-53.61665,9.041249990463257
1619090742.41588,-57.21585,9.056879997253418
1619090742.43151,-60.2691,9.072510004043579
1619090742.44713,-63.42113,9.088129997253418
1619090742.46276,-67.4149,9.103760004043579
1619090742.47838,-72.75851,9.119379997253418
1619090742.49401,-79.54331,9.135010004043579
1619090742.50963,-87.23653,9.150629997253418
1619090742.52526,-94.61443,9.166260004043579
1619090742.54089,-100.0415,9.18189001083374
1619090742.55651,-101.8211,9.197510004043579
1619090742.57214,-98.71178,9.21314001083374
1619090742.58776,-90.40077,9.228760004043579
1619090742.60339,-77.65253,9.24439001083374
1619090742.61901,-62.14122,9.260010004043579
1619090742.63464,-45.89825,9.27564001083374
1619090742.65027,-30.71243,9.291270017623901
1619090742.66589,-17.64403,9.30689001083374
1619090742.68152,-6.929276,9.322520017623901
1619090742.69714,1.80584,9.33814001083374
1619090742.71277,9.199539,9.353770017623901
1619090742.72839,15.80273,9.36939001083374
1619090742.74402,21.98357,9.385020017623901
1619090742.75965,27.87132,9.400650024414062
1619090742.77527,33.42013,9.416270017623901
1619090742.7909,38.45026,9.431900024414062
1619090742.80652,42.70757,9.447520017623901
1619090742.82215,45.95789,9.463150024414062
1619090742.83777,48.03587,9.478770017623901
1619090742.8534,48.95966,9.494400024414062
1619090742.86903,48.94217,9.510030031204224
1619090742.88465,48.35138,9.525650024414062
1619090742.90028,47.58751,9.541280031204224
1619090742.9159,47.01868,9.556900024414062
1619090742.93153,46.89179,9.572530031204224
1619090742.94715,47.27283,9.588150024414062
1619090742.96278,48.02893,9.603780031204224
1619090742.97841,48.88223,9.619410037994385
1619090742.99403,49.44987,9.635030031204224
1619090743.00966,49.29796,9.650660037994385
1619090743.02528,48.14985,9.666280031204224
1619090743.04091,45.95764,9.681910037994385
1619090743.05654,42.9323,9.697540044784546
1619090743.07216,39.53909,9.713160037994385
1619090743.08779,36.275,9.728790044784546
1619090743.10341,33.50745,9.744410037994385
1619090743.11904,31.36753,9.760040044784546
1619090743.13466,29.7142,9.775660037994385
1619090743.15029,28.19064,9.791290044784546
1619090743.16592,26.39675,9.806920051574707
1619090743.18154,23.99104,9.822540044784546
1619090743.19717,20.78453,9.838170051574707
1619090743.21279,16.80005,9.853790044784546
1619090743.22842,12.25388,9.869420051574707
1619090743.24404,7.443832,9.885040044784546
1619090743.25967,2.604797,9.900670051574707
1619090743.2753,-2.134926,9.916300058364868
1619090743.29092,-6.834099,9.931920051574707
1619090743.30655,-11.66879,9.947550058364868
1619090743.32217,-16.80836,9.963170051574707
1619090743.3378,-22.28538,9.978800058364868
1619090743.35342,-27.93559,9.994420051574707
1619090743.36905,-33.40624,10.010050058364868
1619090743.38468,-38.33857,10.02568006515503
1619090743.4003,-42.5097,10.041300058364868
1619090743.41593,-45.99763,10.05693006515503
1619090743.43155,-49.19552,10.072550058364868
1619090743.44718,-52.75224,10.08818006515503
1619090743.4628,-57.40422,10.103800058364868
1619090743.47843,-63.7008,10.11943006515503
1619090743.49406,-71.71941,10.13506007194519
1619090743.50968,-80.86013,10.15068006515503
1619090743.52531,-89.82461,10.16631007194519
1619090743.54093,-96.79784,10.18193006515503
1619090743.55656,-99.92426,10.19756007194519
1619090743.57218,-97.84238,10.21318006515503
1619090743.58781,-90.14334,10.22881007194519
1619090743.60344,-77.55994,10.244440078735352
1619090743.61906,-61.74404,10.26006007194519
1619090743.63469,-44.79695,10.275690078735352
1619090743.65031,-28.66898,10.29131007194519
1619090743.66594,-14.7541,10.306940078735352
1619090743.68156,-3.63401,10.32256007194519
1619090743.69719,4.835007,10.338190078735352
1619090743.71282,11.27757,10.353820085525513
1619090743.72844,16.5302,10.369440078735352
1619090743.74407,21.31427,10.385070085525513
1619090743.75969,26.05094,10.400690078735352
1619090743.77532,30.77605,10.416320085525513
1619090743.79094,35.20238,10.431940078735352
1619090743.80657,38.90883,10.447570085525513
1619090743.8222,41.54773,10.463200092315674
1619090743.83782,43.02451,10.478820085525513
1619090743.85345,43.52964,10.494450092315674
1619090743.86907,43.48378,10.510070085525513
1619090743.8847,43.33524,10.525700092315674
1619090743.90032,43.41457,10.541320085525513
1619090743.91595,43.81931,10.556950092315674
1619090743.93158,44.46521,10.572580099105835
1619090743.9472,45.15108,10.588200092315674
1619090743.96283,45.6727,10.603830099105835
1619090743.97845,45.86465,10.619450092315674
1619090743.99408,45.58666,10.635080099105835
1619090744.0097,44.7367,10.650700092315674
1619090744.02533,43.24456,10.666330099105835
1619090744.04096,41.07173,10.681960105895996
1619090744.05658,38.23976,10.697580099105835
1619090744.07221,34.82876,10.713210105895996
1619090744.08783,30.9673,10.728830099105835
1619090744.10346,26.79028,10.744460105895996
1619090744.11908,22.46008,10.760080099105835
1619090744.13471,18.12949,10.775710105895996
1619090744.15034,13.94933,10.791340112686157
1619090744.16596,10.02155,10.806960105895996
1619090744.18159,6.388577,10.822590112686157
1619090744.19721,2.93486,10.838210105895996
1619090744.21284,-0.5502319,10.853840112686157
1619090744.22846,-4.34901,10.869460105895996
1619090744.24409,-8.682972,10.885090112686157
1619090744.25972,-13.61109,10.900720119476318
1619090744.27534,-19.04992,10.916340112686157
1619090744.29097,-24.71882,10.931970119476318
1619090744.30659,-30.27434,10.947590112686157
1619090744.32222,-35.37001,10.963220119476318
1619090744.33784,-39.80629,10.978840112686157
1619090744.35347,-43.63634,10.994470119476318
1619090744.3691,-47.2478,11.01010012626648
1619090744.38472,-51.2736,11.025720119476318
1619090744.40035,-56.47209,11.04135012626648
1619090744.41597,-63.43233,11.056970119476318
1619090744.4316,-72.23703,11.07260012626648
1619090744.44722,-82.24667,11.088220119476318
1619090744.46285,-92.0575,11.10385012626648
1619090744.47848,-99.75294,11.11948013305664
1619090744.4941,-103.4062,11.13510012626648
1619090744.50973,-101.6145,11.15073013305664
1619090744.52535,-94.02142,11.16635012626648
1619090744.54098,-81.43893,11.18198013305664
1619090744.5566,-65.64883,11.19760012626648
1619090744.57223,-48.84269,11.21323013305664
1619090744.58786,-32.9787,11.228860139846802
1619090744.60348,-19.27311,11.24448013305664
1619090744.61911,-8.009914,11.260110139846802
1619090744.63473,1.301637,11.27573013305664
1619090744.65036,9.485838,11.291360139846802
1619090744.66598,17.26591,11.30698013305664
1619090744.68161,24.96216,11.322610139846802
1619090744.69724,32.45373,11.338240146636963
1619090744.71286,39.32827,11.353860139846802
1619090744.72849,45.1345,11.369490146636963
1619090744.74411,49.59638,11.385110139846802
1619090744.75974,52.745,11.400740146636963
1619090744.77536,54.8362,11.416360139846802
1619090744.79099,56.20914,11.431990146636963
1619090744.80662,57.15062,11.447619915008545
1619090744.82224,57.83828,11.463240146636963
1619090744.83787,58.40176,11.478869915008545
1619090744.85349,58.97122,11.494490146636963
1619090744.86912,59.67437,11.510119915008545
1619090744.88474,60.62546,11.525740146636963
1619090744.90037,61.7991,11.541369915008545
1619090744.916,62.9581,11.556999921798706
1619090744.93162,63.72225,11.572619915008545
1619090744.94725,63.67373,11.588249921798706
1619090744.96287,62.56208,11.603869915008545
1619090744.9785,60.3703,11.619499921798706
1619090744.99412,57.22771,11.635119915008545
1619090745.00975,53.36618,11.650749921798706
1619090745.02538,48.91074,11.666379928588867
1619090745.041,43.88228,11.681999921798706
1619090745.05663,38.2669,11.697629928588867
1619090745.07225,32.15888,11.713249921798706
1619090745.08788,25.77733,11.728879928588867
1619090745.1035,19.45884,11.744499921798706
1619090745.11913,13.47415,11.760129928588867
1619090745.13476,7.971684,11.775759935379028
1619090745.15038,2.978523,11.791379928588867
1619090745.16601,-1.533932,11.807009935379028
1619090745.18163,-5.596569,11.822629928588867
1619090745.19726,-9.214218,11.838259935379028
1619090745.21288,-12.47644,11.853879928588867
1619090745.22851,-15.62645,11.869509935379028
1619090745.24414,-19.00163,11.88513994216919
1619090745.25976,-22.937,11.900759935379028
1619090745.27539,-27.5309,11.91638994216919
1619090745.29101,-32.55204,11.932009935379028
1619090745.30664,-37.54496,11.94763994216919
1619090745.32226,-42.08345,11.963259935379028
1619090745.33789,-46.00959,11.97888994216919
1619090745.35352,-49.50948,11.99451994895935
1619090745.36914,-53.09317,12.01013994216919
1619090745.38477,-57.29128,12.02576994895935
1619090745.40039,-62.54427,12.04138994216919
1619090745.41602,-69.13934,12.05701994895935
1619090745.43164,-77.13519,12.07263994216919
1619090745.44727,-86.33345,12.08826994895935
1619090745.4629,-96.06255,12.103899955749512
1619090745.47852,-105.0613,12.11951994895935
1619090745.49415,-111.5545,12.135149955749512
1619090745.50977,-113.6675,12.15076994895935
1619090745.5254,-110.0209,12.166399955749512
1619090745.54102,-100.3426,12.18201994895935
1619090745.55665,-85.68476,12.197649955749512
1619090745.57228,-68.11863,12.213279962539673
1619090745.5879,-50.03757,12.228899955749512
1619090745.60353,-33.36578,12.244529962539673
1619090745.61915,-19.08816,12.260149955749512
1619090745.63478,-7.210541,12.275779962539673
1619090745.65041,2.906525,12.291409969329834
1619090745.66603,12.08937,12.307029962539673
1619090745.68166,20.93737,12.322659969329834
1619090745.69728,29.71618,12.338279962539673
1619090745.71291,38.36899,12.353909969329834
1619090745.72853,46.6916,12.369529962539673
1619090745.74416,54.44218,12.385159969329834
1619090745.75979,61.42426,12.400789976119995
1619090745.77541,67.51803,12.416409969329834
1619090745.79104,72.66981,12.432039976119995
1619090745.80666,76.82297,12.447659969329834
1619090745.82229,79.94063,12.463289976119995
1619090745.83791,81.99362,12.478909969329834
1619090745.85354,83.04031,12.494539976119995
1619090745.86917,83.2592,12.510169982910156
1619090745.88479,82.90594,12.525789976119995
1619090745.90042,82.30992,12.541419982910156
1619090745.91604,81.68669,12.557039976119995
1619090745.93167,81.05667,12.572669982910156
1619090745.94729,80.2104,12.588289976119995
1619090745.96292,78.76932,12.603919982910156
1619090745.97855,76.37857,12.619549989700317
1619090745.99417,72.88713,12.635169982910156
1619090746.0098,68.44781,12.650799989700317
1619090746.02542,63.46492,12.666419982910156
1619090746.04105,58.42612,12.682049989700317
1619090746.05667,53.69139,12.697669982910156
1619090746.0723,49.39006,12.713299989700317
1619090746.08793,45.46335,12.728929996490479
1619090746.10355,41.72101,12.744549989700317
1619090746.11918,38.02109,12.760179996490479
1619090746.1348,34.3109,12.775799989700317
1619090746.15043,30.63539,12.791429996490479
1619090746.16605,27.11455,12.807049989700317
1619090746.18168,23.86867,12.822679996490479
1619090746.19731,21.02121,12.83831000328064
1619090746.21293,18.60623,12.853929996490479
1619090746.22856,16.58185,12.86956000328064
1619090746.24418,14.74507,12.885179996490479
1619090746.25981,12.81576,12.90081000328064
1619090746.27543,10.46862,12.916429996490479
1619090746.29106,7.531731,12.93206000328064
1619090746.30669,4.051094,12.9476900100708
1619090746.32231,0.2953949,12.96331000328064
1619090746.33794,-3.40802,12.9789400100708
1619090746.35356,-6.871147,12.99456000328064
1619090746.36919,-10.1682,13.0101900100708
1619090746.38481,-13.67101,13.02581000328064
1619090746.40044,-17.82403,13.0414400100708
1619090746.41607,-22.98647,13.057070016860962
1619090746.43169,-29.1935,13.0726900100708
1619090746.44732,-36.12077,13.088320016860962
1619090746.46294,-43.17452,13.1039400100708
1619090746.47857,-49.70271,13.119570016860962
1619090746.49419,-55.21567,13.1351900100708
1619090746.50982,-59.54617,13.150820016860962
1619090746.52545,-62.89918,13.166450023651123
1619090746.54107,-65.7691,13.182070016860962
1619090746.5567,-68.87257,13.197700023651123
1619090746.57232,-73.00449,13.213320016860962
1619090746.58795,-78.84691,13.228950023651123
1619090746.60357,-86.80335,13.244570016860962
1619090746.6192,-96.62389,13.260200023651123
1619090746.63483,-107.2439,13.275830030441284
1619090746.65045,-116.7883,13.291450023651123
1619090746.66608,-122.888,13.307080030441284
1619090746.6817,-123.3976,13.322700023651123
1619090746.69733,-117.087,13.338330030441284
1619090746.71295,-104.1946,13.353950023651123
1619090746.72858,-86.37392,13.369580030441284
1619090746.74421,-66.21737,13.385210037231445
1619090746.75983,-46.39278,13.400830030441284
1619090746.77546,-28.88776,13.416460037231445
1619090746.79108,-14.62195,13.432080030441284
1619090746.80671,-3.439697,13.447710037231445
1619090746.82233,5.485794,13.463330030441284
1619090746.83796,13.22885,13.478960037231445
1619090746.85359,20.67369,13.494590044021606
1619090746.86921,28.32914,13.510210037231445
1619090746.88484,36.23754,13.525840044021606
1619090746.90046,44.12766,13.541460037231445
1619090746.91609,51.5013,13.557090044021606
1619090746.93171,57.83955,13.572710037231445
1619090746.94734,62.78141,13.588340044021606
1619090746.96297,66.15112,13.603970050811768
1619090746.97859,68.00111,13.619590044021606
1619090746.99422,68.5423,13.635220050811768
1619090747.00984,68.10153,13.650840044021606
1619090747.02547,67.02779,13.666470050811768
1619090747.04109,65.70917,13.682090044021606
1619090747.05672,64.49487,13.697720050811768
1619090747.07235,63.60716,13.713350057601929
1619090747.08797,63.12495,13.728970050811768
1619090747.1036,62.89111,13.744600057601929
1619090747.11922,62.61996,13.760220050811768
1619090747.13485,61.99785,13.775850057601929
1619090747.15047,60.81192,13.791470050811768
1619090747.1661,59.01164,13.807100057601929
1619090747.18173,56.70518,13.82273006439209
1619090747.19735,54.10373,13.838350057601929
1619090747.21298,51.41075,13.85398006439209
1619090747.2286,48.76505,13.869600057601929
1619090747.24423,46.20486,13.88523006439209
1619090747.25985,43.67809,13.900850057601929
1619090747.27548,41.09364,13.91648006439209
1619090747.29111,38.39449,13.932110071182251
1619090747.30673,35.60204,13.94773006439209
1619090747.32236,32.76291,13.963360071182251
1619090747.33798,29.92027,13.97898006439209
1619090747.35361,27.0437,13.994610071182251
1619090747.36923,23.97565,14.01023006439209
1619090747.38486,20.50919,14.025860071182251
1619090747.40049,16.54681,14.041490077972412
1619090747.41611,12.15759,14.057110071182251
1619090747.43174,7.567856,14.072740077972412
1619090747.44736,3.016991,14.088360071182251
1619090747.46299,-1.41481,14.103990077972412
1619090747.47861,-5.934402,14.119610071182251
1619090747.49424,-10.91375,14.135240077972412
1619090747.50987,-16.66877,14.150870084762573
1619090747.52549,-23.18961,14.166490077972412
1619090747.54112,-30.02526,14.182120084762573
1619090747.55674,-36.4614,14.197740077972412
1619090747.57237,-41.80589,14.213370084762573
1619090747.58799,-45.75138,14.228990077972412
1619090747.60362,-48.55428,14.244620084762573
1619090747.61925,-50.96635,14.260250091552734
1619090747.63487,-53.92022,14.275870084762573
1619090747.6505,-58.26015,14.291500091552734
1619090747.66612,-64.45638,14.307120084762573
1619090747.68175,-72.46889,14.322750091552734
1619090747.69737,-81.68082,14.338370084762573
1619090747.713,-90.92103,14.354000091552734
1619090747.72863,-98.53516,14.369630098342896
1619090747.74425,-102.675,14.385250091552734
1619090747.75988,-101.7391,14.400880098342896
1619090747.7755,-94.91701,14.416500091552734
1619090747.79113,-82.54909,14.432130098342896
1619090747.80675,-66.10641,14.447750091552734
1619090747.82238,-47.78989,14.463380098342896
1619090747.83801,-29.90121,14.479010105133057
1619090747.85363,-14.11721,14.494630098342896
1619090747.86926,-1.228409,14.510260105133057
1619090747.88488,8.852547,14.525880098342896
1619090747.90051,16.75706,14.541510105133057
1619090747.91614,23.27026,14.557140111923218
1619090747.93176,29.07559,14.572760105133057
1619090747.94739,34.60896,14.588390111923218
1619090747.96301,40.08596,14.604010105133057
1619090747.97864,45.46011,14.619640111923218
1619090747.99426,50.52389,14.635260105133057
1619090748.00989,54.91635,14.650890111923218
1619090748.02552,58.2841,14.666520118713379
1619090748.04114,60.39214,14.682140111923218
1619090748.05677,61.21562,14.697770118713379
1619090748.07239,60.93595,14.713390111923218
1619090748.08802,59.9019,14.729020118713379
1619090748.10364,58.53449,14.744640111923218
1619090748.11927,57.24709,14.760270118713379
1619090748.1349,56.34722,14.77590012550354
1619090748.15052,55.92632,14.791520118713379
1619090748.16615,55.80785,14.80715012550354
1619090748.18177,55.52926,14.822770118713379
1619090748.1974,54.49866,14.83840012550354
1619090748.21302,52.18835,14.854020118713379
1619090748.22865,48.36457,14.86965012550354
1619090748.24428,43.2244,14.885280132293701
1619090748.2599,37.36875,14.90090012550354
1619090748.27553,31.56594,14.916530132293701
1619090748.29115,26.4846,14.93215012550354
1619090748.30678,22.46124,14.947780132293701
1619090748.3224,19.45505,14.96340012550354
1619090748.33803,17.05309,14.979030132293701
1619090748.35366,14.70332,14.994660139083862
1619090748.36928,11.88817,15.010280132293701
1619090748.38491,8.333382,15.025910139083862
1619090748.40053,4.108849,15.041530132293701
1619090748.41616,-0.4188423,15.057160139083862
1619090748.43178,-4.715515,15.072780132293701
1619090748.44741,-8.363243,15.088410139083862
1619090748.46304,-11.24696,15.104040145874023
1619090748.47866,-13.6754,15.119660139083862
1619090748.49429,-16.21907,15.135290145874023
1619090748.50991,-19.51247,15.150910139083862
1619090748.52554,-23.89204,15.166540145874023
1619090748.54116,-29.36026,15.182160139083862
1619090748.55679,-35.49819,15.197790145874023
1619090748.57242,-41.71978,15.213419914245605
1619090748.58804,-47.48994,15.229040145874023
1619090748.60367,-52.49426,15.244669914245605
1619090748.61929,-56.76457,15.260290145874023
1619090748.63492,-60.65632,15.275919914245605
1619090748.65054,-64.79866,15.291540145874023
1619090748.66617,-69.8954,15.307169914245605
1619090748.6818,-76.53815,15.322799921035767
1619090748.69742,-84.81749,15.338419914245605
1619090748.71305,-94.07674,15.354049921035767
1619090748.72867,-102.8349,15.369669914245605
1619090748.7443,-109.064,15.385299921035767
1619090748.75992,-110.7827,15.400919914245605
1619090748.77555,-106.7072,15.416549921035767
1619090748.79118,-96.77344,15.432179927825928
1619090748.8068,-82.16074,15.447799921035767
1619090748.82243,-64.85037,15.463429927825928
1619090748.83805,-47.00297,15.479049921035767
1619090748.85368,-30.34632,15.494679927825928
1619090748.8693,-15.82929,15.510299921035767
1619090748.88493,-3.62365,15.525929927825928
1619090748.90056,6.583374,15.541559934616089
1619090748.91618,15.34797,15.557179927825928
1619090748.93181,23.22826,15.572809934616089
1619090748.94743,30.68658,15.588429927825928
1619090748.96306,37.96602,15.604059934616089
1619090748.97868,45.11232,15.619679927825928
1619090748.99431,51.89566,15.635309934616089
1619090749.00994,57.86312,15.65093994140625
1619090749.02556,62.5748,15.666559934616089
1619090749.04119,65.69618,15.68218994140625
1619090749.05681,67.26045,15.697809934616089
1619090749.07244,67.61452,15.71343994140625
1619090749.08806,67.32965,15.729059934616089
1619090749.10369,66.991,15.74468994140625
1619090749.11932,67.01614,15.760319948196411
1619090749.13494,67.57616,15.77593994140625
1619090749.15057,68.5441,15.791569948196411
1619090749.16619,69.64566,15.80718994140625
1619090749.18182,70.50619,15.822819948196411
1619090749.19744,70.77986,15.83843994140625
1619090749.21307,70.23872,15.854069948196411
1619090749.2287,68.89121,15.869699954986572
1619090749.24432,66.99923,15.885319948196411
1619090749.25995,65.02498,15.900949954986572
1619090749.27557,63.4659,15.916569948196411
1619090749.2912,62.64317,15.932199954986572
1619090749.30682,62.5552,15.947819948196411
1619090749.32245,62.85937,15.963449954986572
1619090749.33808,62.94009,15.979079961776733
1619090749.3537,62.14523,15.994699954986572
1619090749.36933,59.93725,16.010329961776733
1619090749.38495,56.10182,16.025949954986572
1619090749.40058,50.70188,16.041579961776733
1619090749.4162,44.09283,16.057199954986572
1619090749.43183,36.69263,16.072829961776733
1619090749.44746,28.94109,16.088459968566895
1619090749.46308,21.04447,16.104079961776733
1619090749.47871,13.06201,16.119709968566895
1619090749.49433,4.913924,16.135329961776733
1619090749.50996,-3.433825,16.150959968566895
1619090749.52558,-11.82339,16.166579961776733
1619090749.54121,-19.9212,16.182209968566895
1619090749.55684,-27.27492,16.197839975357056
1619090749.57246,-33.61835,16.213459968566895
1619090749.58809,-39.00923,16.229089975357056
1619090749.60371,-43.8528,16.244709968566895
1619090749.61934,-48.75047,16.260339975357056
1619090749.63496,-54.11388,16.275959968566895
1619090749.65059,-59.91665,16.291589975357056
1619090749.66622,-65.62414,16.307219982147217
1619090749.68184,-70.47295,16.322839975357056
1619090749.69747,-73.75642,16.338469982147217
1619090749.71309,-75.257,16.354089975357056
1619090749.72872,-75.31395,16.369719982147217
1619090749.74434,-74.67109,16.385339975357056
1619090749.75997,-74.23488,16.400969982147217
1619090749.7756,-74.8011,16.416599988937378
1619090749.79122,-76.97087,16.432219982147217
1619090749.80685,-81.10869,16.447849988937378
1619090749.82247,-87.31201,16.463469982147217
1619090749.8381,-95.17238,16.479099988937378
1619090749.85372,-103.5974,16.494719982147217
1619090749.86935,-110.815,16.510349988937378
1619090749.88498,-114.6005,16.52597999572754
1619090749.9006,-113.0175,16.541599988937378
1619090749.91623,-105.0407,16.55722999572754
1619090749.93185,-91.01706,16.572849988937378
1619090749.94748,-72.52724,16.58847999572754
1619090749.9631,-51.83944,16.604099988937378
1619090749.97873,-31.102,16.61972999572754
1619090749.99436,-11.81447,16.6353600025177
1619090750.00998,5.309998,16.65097999572754
1619090750.02561,20.12459,16.6666100025177
1619090750.04123,32.60028,16.68222999572754
1619090750.05686,42.5701,16.6978600025177
1619090750.07248,49.64179,16.71347999572754
1619090750.08811,53.40344,16.7291100025177
1619090750.10374,53.71917,16.74474000930786
1619090750.11936,50.90762,16.7603600025177
1619090750.13499,45.84552,16.77599000930786
1619090750.15061,39.72509,16.7916100025177
1619090750.16624,33.81197,16.80724000930786
1619090750.18186,28.91833,16.8228600025177
1619090750.19749,25.2764,16.83849000930786
1619090750.21312,22.47627,16.854120016098022
1619090750.22874,19.74974,16.86974000930786
1619090750.24437,16.45189,16.885370016098022
1619090750.25999,12.43226,16.90099000930786
1619090750.27562,8.083403,16.916620016098022
1619090750.29124,4.127245,16.93224000930786
1619090750.30687,1.146545,16.947870016098022
1619090750.3225,-0.8003254,16.963500022888184
1619090750.33812,-2.27892,16.979120016098022
1619090750.35375,-4.300669,16.994750022888184
1619090750.36937,-7.860886,17.010370016098022
1619090750.385,-13.51779,17.026000022888184
1619090750.40062,-21.12997,17.041620016098022
1619090750.41625,-29.92416,17.057250022888184
1619090750.43188,-38.80008,17.072880029678345
1619090750.4475,-46.79393,17.088500022888184
1619090750.46313,-53.43017,17.104130029678345
1619090750.47875,-58.88309,17.119750022888184
1619090750.49438,-63.88046,17.135380029678345
1619090750.51001,-69.3866,17.151010036468506
1619090750.52563,-76.22746,17.166630029678345
1619090750.54126,-84.78783,17.182260036468506
1619090750.55688,-94.94061,17.197880029678345
1619090750.57251,-106.1498,17.213510036468506
1619090750.58813,-117.7352,17.229130029678345
1619090750.60376,-129.1408,17.244760036468506
1619090750.61939,-140.0949,17.260390043258667
1619090750.63501,-150.6956,17.276010036468506
1619090750.65064,-161.434,17.291640043258667
1619090750.66626,-173.005,17.307260036468506
1619090750.68189,-186.0949,17.322890043258667
1619090750.69751,-201.0656,17.338510036468506
1619090750.71314,-217.5211,17.354140043258667
1619090750.72877,-234.0137,17.369770050048828
1619090750.74439,-248.0133,17.385390043258667
1619090750.76002,-256.2966,17.401020050048828
1619090750.77564,-255.6787,17.416640043258667
1619090750.79127,-244.0029,17.432270050048828
1619090750.80689,-220.8845,17.447890043258667
1619090750.82252,-187.8665,17.463520050048828
1619090750.83815,-147.929,17.47915005683899
1619090750.85377,-104.5346,17.494770050048828
1619090750.8694,-60.63718,17.51040005683899
1619090750.88502,-18.12811,17.526020050048828
1619090750.90065,22.16074,17.54165005683899
1619090750.91627,60.04523,17.557270050048828
1619090750.9319,95.55356,17.57290005683899
1619090750.94753,128.7023,17.58853006362915
1619090750.96315,159.6064,17.60415005683899
1619090750.97878,188.7944,17.61978006362915
1619090750.9944,217.36,17.63540005683899
1619090751.01003,246.8794,17.65103006362915
1619090751.02565,279.131,17.66665005683899
1619090751.04128,315.848,17.68228006362915
1619090751.05691,358.3331,17.69791007041931
1619090751.07253,406.8474,17.71353006362915
1619090751.08816,459.9183,17.72916007041931
1619090751.10378,513.7526,17.74478006362915
1619090751.11941,562.627,17.76041007041931
1619090751.13503,600.1678,17.77603006362915
1619090751.15066,621.3347,17.79166007041931
1619090751.16629,624.1967,17.807290077209473
1619090751.18191,610.5704,17.82291007041931
1619090751.19754,585.143,17.838540077209473
1619090751.21316,553.5781,17.85416007041931
1619090751.22879,520.625,17.869790077209473
1619090751.24441,489.1581,17.88541007041931
1619090751.26004,460.3059,17.901040077209473
1619090751.27567,434.1304,17.916670083999634
1619090751.29129,410.1544,17.932290077209473
1619090751.30692,387.37,17.947920083999634
1619090751.32254,363.8733,17.963540077209473
1619090751.33817,336.977,17.979170083999634
1619090751.35379,303.8363,17.994790077209473
1619090751.36942,262.7565,18.010420083999634
1619090751.38505,214.1656,18.026050090789795
1619090751.40067,160.7555,18.041670083999634
1619090751.4163,106.6075,18.057300090789795
1619090751.43192,55.82029,18.072920083999634
1619090751.44755,11.212,18.088550090789795
1619090751.46317,-26.35026,18.104170083999634
1619090751.4788,-57.69605,18.119800090789795
1619090751.49443,-84.6282,18.135430097579956
1619090751.51005,-108.933,18.151050090789795
1619090751.52568,-131.7646,18.166680097579956
1619090751.5413,-153.3764,18.182300090789795
1619090751.55693,-173.3628,18.197930097579956
1619090751.57255,-191.1049,18.213550090789795
1619090751.58818,-206.1949,18.229180097579956
1619090751.60381,-218.8879,18.244810104370117
1619090751.61943,-230.0823,18.260430097579956
1619090751.63506,-241.1798,18.276060104370117
1619090751.65068,-253.821,18.291680097579956
1619090751.66631,-269.6459,18.307310104370117
1619090751.68193,-289.9318,18.322930097579956
1619090751.69756,-315.0116,18.338560104370117
1619090751.71319,-343.7363,18.35419011116028
1619090751.72881,-373.154,18.369810104370117
1619090751.74444,-399.0075,18.38544011116028
1619090751.76006,-416.8527,18.401060104370117
1619090751.77569,-423.6223,18.41669011116028
1619090751.79131,-418.8058,18.432310104370117
1619090751.80694,-404.5725,18.44794011116028
1619090751.82257,-384.7724,18.46357011795044
1619090751.83819,-363.3102,18.47919011116028
1619090751.85382,-342.7702,18.49482011795044
1619090751.86944,-323.9761,18.51044011116028
1619090751.88507,-306.5753,18.52607011795044
1619090751.90069,-289.999,18.54169011116028
1619090751.91632,-274.1681,18.55732011795044
1619090751.93195,-259.6131,18.5729501247406
1619090751.94757,-246.9104,18.58857011795044
1619090751.9632,-236.1299,18.6042001247406
1619090751.97882,-226.6583,18.61982011795044
1619090751.99445,-217.5641,18.6354501247406
1619090752.01007,-208.1561,18.65107011795044
1619090752.0257,-198.4903,18.6667001247406
1619090752.04133,-189.3643,18.68233013153076
1619090752.05695,-182.0446,18.6979501247406
1619090752.07258,-177.6332,18.71358013153076
1619090752.0882,-176.4651,18.7292001247406
1619090752.10383,-177.7618,18.74483013153076
1619090752.11945,-179.6012,18.7604501247406
1619090752.13508,-179.3716,18.77608013153076
1619090752.15071,-174.3877,18.791710138320923
1619090752.16633,-162.8058,18.80733013153076
1619090752.18196,-144.1891,18.822960138320923
1619090752.19758,-119.7907,18.83858013153076
1619090752.21321,-92.17453,18.854210138320923
1619090752.22883,-64.44522,18.86983013153076
1619090752.24446,-39.29819,18.885460138320923
1619090752.26009,-18.33603,18.901090145111084
1619090752.27571,-1.845032,18.916710138320923
1619090752.29134,10.94211,18.932340145111084
1619090752.30696,21.26733,18.947960138320923
1619090752.32259,30.2851,18.963590145111084
1619090752.33821,38.72894,18.979210138320923
1619090752.35384,46.9032,18.994840145111084
1619090752.36947,54.8273,19.010469913482666
1619090752.38509,62.42792,19.026090145111084
1619090752.40072,69.61664,19.041719913482666
1619090752.41634,76.29489,19.057340145111084
1619090752.43197,82.35381,19.072969913482666
1619090752.44759,87.6344,19.088590145111084
1619090752.46322,92.05261,19.104219913482666
1619090752.47885,95.69627,19.119849920272827
1619090752.49447,98.8382,19.135469913482666
1619090752.5101,101.9032,19.151099920272827
1619090752.52572,105.2558,19.166719913482666
1619090752.54135,108.9869,19.182349920272827
1619090752.55697,112.7908,19.197969913482666
1619090752.5726,116.0438,19.213599920272827
1619090752.58823,118.0134,19.22922992706299
1619090752.60385,118.1436,19.244849920272827
1619090752.61948,116.2874,19.26047992706299
1619090752.6351,112.6988,19.276099920272827
1619090752.65073,107.9621,19.29172992706299
1619090752.66635,102.6679,19.307349920272827
1619090752.68198,97.25085,19.32297992706299
1619090752.69761,91.88116,19.33860993385315
1619090752.71323,86.56106,19.35422992706299
1619090752.72886,81.25952,19.36985993385315
1619090752.74448,76.01737,19.38547992706299
1619090752.76011,70.94822,19.40110993385315
1619090752.77574,66.15719,19.41673994064331
1619090752.79136,61.63857,19.43235993385315
1619090752.80699,57.17905,19.44798994064331
1619090752.82261,52.45412,19.46360993385315
1619090752.83824,47.07482,19.47923994064331
1619090752.85386,40.78784,19.49485993385315
1619090752.86949,33.47655,19.51048994064331
1619090752.88512,25.26527,19.52611994743347
1619090752.90074,16.48943,19.54173994064331
1619090752.91637,7.566589,19.55736994743347
1619090752.93199,-1.037949,19.57298994064331
1619090752.94762,-9.018097,19.58861994743347
1619090752.96324,-16.28993,19.60423994064331
1619090752.97887,-23.07376,19.61986994743347
1619090752.9945,-29.8576,19.635499954223633
1619090753.01012,-37.33897,19.65111994743347
1619090753.02575,-46.23766,19.666749954223633
1619090753.04137,-56.92172,19.68236994743347
1619090753.057,-69.12343,19.697999954223633
1619090753.07262,-81.67461,19.71361994743347
1619090753.08825,-92.56561,19.729249954223633
1619090753.10388,-99.3143,19.744879961013794
1619090753.1195,-99.71219,19.760499954223633
1619090753.13513,-92.56842,19.776129961013794
1619090753.15075,-78.1734,19.791749954223633
1619090753.16638,-58.29416,19.807379961013794
1619090753.182,-35.66827,19.822999954223633
1619090753.19763,-13.25446,19.838629961013794
1619090753.21326,6.548035,19.854259967803955
1619090753.22888,22.34476,19.869879961013794
1619090753.24451,33.82828,19.885509967803955
1619090753.26013,41.59015,19.901129961013794
1619090753.27576,46.75409,19.916759967803955
1619090753.29138,50.64041,19.932379961013794
1619090753.30701,54.41083,19.948009967803955
1619090753.32264,58.79739,19.963639974594116
1619090753.33826,63.94519,19.979259967803955
1619090753.35389,69.52237,19.994889974594116
1619090753.36951,74.91687,20.010509967803955
1619090753.38514,79.56036,20.026139974594116
1619090753.40076,83.2504,20.041759967803955
1619090753.41639,86.07846,20.057389974594116
1619090753.43202,88.38702,20.073019981384277
1619090753.44764,90.46524,20.088639974594116
1619090753.46327,92.44772,20.104269981384277
1619090753.47889,94.23364,20.119889974594116
1619090753.49452,95.61911,20.135519981384277
1619090753.51014,96.37189,20.151139974594116
1619090753.52577,96.26666,20.166769981384277
1619090753.5414,95.10071,20.18239998817444
1619090753.55702,92.70224,20.198019981384277
1619090753.57265,88.94284,20.21364998817444
1619090753.58827,83.79993,20.229269981384277
1619090753.6039,77.45798,20.24489998817444
1619090753.61952,70.23813,20.260519981384277
1619090753.63515,62.58569,20.27614998817444
1619090753.65078,54.9556,20.2917799949646
1619090753.6664,47.71021,20.30739998817444
1619090753.68203,41.09375,20.3230299949646
1619090753.69765,35.0914,20.33864998817444
1619090753.71328,29.48889,20.3542799949646
1619090753.7289,23.9122,20.36989998817444
1619090753.74453,18.00864,20.3855299949646
1619090753.76016,11.61691,20.40116000175476
1619090753.77578,4.850861,20.4167799949646
1619090753.79141,-1.973297,20.43241000175476
1619090753.80703,-8.577759,20.4480299949646
1619090753.82266,-14.87991,20.46366000175476
1619090753.83828,-21.09668,20.4792799949646
1619090753.85391,-27.54147,20.49491000175476
1619090753.86954,-34.38474,20.510540008544922
1619090753.88516,-41.45801,20.52616000175476
1619090753.90079,-48.33118,20.541790008544922
1619090753.91641,-54.56451,20.55741000175476
1619090753.93204,-60.0741,20.573040008544922
1619090753.94766,-65.26056,20.58866000175476
1619090753.96329,-70.88611,20.604290008544922
1619090753.97892,-77.69806,20.619920015335083
1619090753.99454,-85.97888,20.635540008544922
1619090754.01017,-95.22516,20.651170015335083
1619090754.02579,-104.0059,20.666790008544922
1619090754.04142,-110.1745,20.682420015335083
1619090754.05704,-111.3609,20.698040008544922
1619090754.07267,-105.6322,20.713670015335083
1619090754.0883,-92.19983,20.729300022125244
1619090754.10392,-71.80438,20.744920015335083
1619090754.11955,-46.71484,20.760550022125244
1619090754.13517,-20.20367,20.776170015335083
1619090754.1508,4.326477,20.791800022125244
1619090754.16642,24.2829,20.807420015335083
1619090754.18205,38.54761,20.823050022125244
1619090754.19768,47.59125,20.838680028915405
1619090754.2133,53.06293,20.854300022125244
1619090754.22893,57.07971,20.869930028915405
1619090754.24455,61.46558,20.885550022125244
1619090754.26018,67.27881,20.901180028915405
1619090754.2758,74.64856,20.916800022125244
1619090754.29143,82.92883,20.932430028915405
1619090754.30706,90.9801,20.948060035705566
1619090754.32268,97.51605,20.963680028915405
1619090754.33831,101.4539,20.979310035705566
1619090754.35393,102.1502,20.994930028915405
1619090754.36956,99.52936,21.010560035705566
1619090754.38518,94.10345,21.026180028915405
1619090754.40081,86.83551,21.041810035705566
1619090754.41644,78.93079,21.057440042495728
1619090754.43206,71.5567,21.073060035705566
1619090754.44769,65.60236,21.088690042495728
1619090754.46331,61.50153,21.104310035705566
1619090754.47894,59.22052,21.119940042495728
1619090754.49456,58.35938,21.135560035705566
1619090754.51019,58.23169,21.151190042495728
1619090754.52582,58.04132,21.16682004928589
1619090754.54144,57.08582,21.182440042495728
1619090754.55707,54.92474,21.19807004928589
1619090754.57269,51.54449,21.213690042495728
1619090754.58832,47.3327,21.22932004928589
1619090754.60394,42.87018,21.244940042495728
1619090754.61957,38.66095,21.26057004928589
1619090754.6352,34.89459,21.27620005607605
1619090754.65082,31.4129,21.29182004928589
1619090754.66645,27.91852,21.30745005607605
1619090754.68207,24.25439,21.32307004928589
1619090754.6977,20.61383,21.33870005607605
1619090754.71332,17.52631,21.35432004928589
1619090754.72895,15.55676,21.36995005607605
1619090754.74458,15.00983,21.38558006286621
1619090754.7602,15.75159,21.40120005607605
1619090754.77583,17.21136,21.41683006286621
1619090754.79145,18.62952,21.43245005607605
1619090754.80708,19.33154,21.44808006286621
1619090754.8227,18.82983,21.46370005607605
1619090754.83833,16.78662,21.47933006286621
1619090754.85396,12.93872,21.494960069656372
1619090754.86958,7.069275,21.51058006286621
1619090754.88521,-0.8254395,21.526210069656372
1619090754.90083,-10.39386,21.54183006286621
1619090754.91646,-20.86145,21.557460069656372
1619090754.93208,-31.19989,21.57308006286621
1619090754.94771,-40.43646,21.588710069656372
1619090754.96334,-48.02234,21.604340076446533
1619090754.97896,-54.1228,21.619960069656372
1619090754.99459,-59.48279,21.635590076446533
1619090755.01021,-65.21332,21.651210069656372
1619090755.02584,-72.43823,21.666840076446533
1619090755.04147,-81.95331,21.682470083236694
1619090755.05709,-94.0448,21.698090076446533
1619090755.07272,-108.324,21.713720083236694
1619090755.08834,-123.6243,21.729340076446533
1619090755.10397,-138.0455,21.744970083236694
1619090755.11959,-149.2079,21.760590076446533
1619090755.13522,-154.7509,21.776220083236694
1619090755.15085,-153.024,21.791850090026855
1619090755.16647,-143.5906,21.807470083236694
1619090755.1821,-127.3762,21.823100090026855
1619090755.19772,-106.4221,21.838720083236694
1619090755.21335,-83.16116,21.854350090026855
1619090755.22897,-59.78922,21.869970083236694
1619090755.2446,-37.77322,21.885600090026855
1619090755.26023,-17.83881,21.901230096817017
1619090755.27585,-0.1125488,21.916850090026855
1619090755.29148,15.51306,21.932480096817017
1619090755.3071,29.20142,21.948100090026855
1619090755.32273,41.09125,21.963730096817017
1619090755.33835,51.27255,21.979350090026855
1619090755.35398,59.77887,21.994980096817017
1619090755.36961,66.55511,22.010610103607178
1619090755.38523,71.51129,22.026230096817017
1619090755.40086,74.5907,22.041860103607178
1619090755.41648,75.97644,22.057480096817017
1619090755.43211,76.12958,22.073110103607178
1619090755.44773,75.75165,22.088730096817017
1619090755.46336,75.56451,22.104360103607178
1619090755.47899,75.98645,22.11999011039734
1619090755.49461,77.02795,22.135610103607178
1619090755.51024,78.2851,22.15124011039734
1619090755.52586,79.1684,22.166860103607178
1619090755.54149,79.22742,22.18249011039734
1619090755.55711,78.35864,22.198110103607178
1619090755.57274,76.73419,22.21374011039734
1619090755.58837,74.64706,22.2293701171875
1619090755.60399,72.23776,22.24499011039734
1619090755.61962,69.42435,22.2606201171875
1619090755.63524,65.97488,22.27624011039734
1619090755.65087,61.72928,22.2918701171875
1619090755.66649,56.71948,22.30749011039734
1619090755.68212,51.25757,22.3231201171875
1619090755.69775,45.72833,22.33875012397766
1619090755.71337,40.36566,22.3543701171875
1619090755.729,35.17566,22.37000012397766
1619090755.74462,29.94,22.3856201171875
1619090755.76025,24.38052,22.40125012397766
1619090755.77587,18.44485,22.4168701171875
1619090755.7915,12.40598,22.43250012397766
1619090755.80713,6.835388,22.448130130767822
1619090755.82275,2.365082,22.46375012397766
1619090755.83838,-0.6142578,22.479380130767822
1619090755.854,-2.224976,22.49500012397766
1619090755.86963,-3.085602,22.510630130767822
1619090755.88525,-4.166809,22.52625012397766
1619090755.90088,-6.391144,22.541880130767822
1619090755.91651,-10.35919,22.557510137557983
1619090755.93213,-16.08527,22.573130130767822
1619090755.94776,-23.12524,22.588760137557983
1619090755.96338,-30.7644,22.604380130767822
1619090755.97901,-38.39041,22.620010137557983
1619090755.99463,-45.72314,22.635630130767822
1619090756.01026,-52.88846,22.651260137557983
1619090756.02589,-60.39685,22.666890144348145
1619090756.04151,-68.92065,22.682510137557983
1619090756.05714,-78.98465,22.698140144348145
1619090756.07276,-90.56366,22.713760137557983
1619090756.08839,-102.82,22.729390144348145
1619090756.10401,-113.942,22.745010137557983
1619090756.11964,-121.411,22.760640144348145
1619090756.13527,-122.6746,22.776270151138306
1619090756.15089,-115.9881,22.791890144348145
1619090756.16652,-101.1527,22.807520151138306
1619090756.18214,-79.72012,22.823140144348145
1619090756.19777,-54.5918,22.838770151138306
1619090756.21339,-29.14767,22.854390144348145
1619090756.22902,-6.351196,22.870020151138306
1619090756.24465,11.88403,22.885649919509888
1619090756.26027,24.83209,22.901270151138306
1619090756.2759,32.65314,22.916899919509888
1619090756.29152,36.11322,22.932520151138306
1619090756.30715,36.27325,22.948149919509888
1619090756.32277,34.44815,22.963770151138306
1619090756.3384,32.11459,22.979399919509888
1619090756.35403,30.69684,22.99502992630005
1619090756.36965,31.21323,23.010649919509888
1619090756.38528,33.88858,23.02627992630005
1619090756.4009,38.08438,23.041899919509888
1619090756.41653,42.41046,23.05752992630005
1619090756.43215,45.32892,23.073149919509888
1619090756.44778,45.71515,23.08877992630005
1619090756.46341,43.35156,23.10440993309021
1619090756.47903,38.98044,23.12002992630005
1619090756.49466,33.96246,23.13565993309021
1619090756.51028,29.6524,23.15127992630005
1619090756.52591,26.93378,23.16690993309021
1619090756.54153,25.89557,23.18252992630005
1619090756.55716,25.9502,23.19815993309021
1619090756.57279,26.23587,23.21378993988037
1619090756.58841,25.96881,23.22940993309021
1619090756.60404,24.66104,23.24503993988037
1619090756.61966,22.16293,23.26065993309021
1619090756.63529,18.48923,23.27628993988037
1619090756.65091,13.69775,23.29190993309021
1619090756.66654,7.898163,23.30753993988037
1619090756.68217,1.352539,23.323169946670532
1619090756.69779,-5.466461,23.33878993988037
1619090756.71342,-11.92288,23.354419946670532
1619090756.72904,-17.43524,23.37003993988037
1619090756.74467,-21.84235,23.385669946670532
1619090756.76029,-25.46851,23.40128993988037
1619090756.77592,-29.00443,23.416919946670532
1619090756.79155,-33.12787,23.432549953460693
1619090756.80717,-38.07306,23.448169946670532
1619090756.8228,-43.36249,23.463799953460693
1619090756.83842,-47.93723,23.479419946670532
1619090756.85405,-50.57886,23.495049953460693
1619090756.86967,-50.5195,23.510669946670532
1619090756.8853,-47.9093,23.526299953460693
1619090756.90093,-43.5784,23.541929960250854
1619090756.91655,-38.38974,23.557549953460693
1619090756.93218,-32.30676,23.573179960250854
1619090756.9478,-23.74878,23.588799953460693
1619090756.96343,-9.814972,23.604429960250854
1619090756.97905,12.78271,23.620049953460693
1619090756.99468,46.6568,23.635679960250854
1619090757.01031,92.99042,23.651309967041016
1619090757.02593,151.395,23.666929960250854
1619090757.04156,220.0328,23.682559967041016
1619090757.05718,295.4449,23.698179960250854
1619090757.07281,372.3036,23.713809967041016
1619090757.08843,443.4575,23.729429960250854
1619090757.10406,500.8927,23.745059967041016
1619090757.11969,537.797,23.760689973831177
1619090757.13531,550.9357,23.776309967041016
1619090757.15094,542.0322,23.791939973831177
1619090757.16656,517.2396,23.807559967041016
1619090757.18219,484.8043,23.823189973831177
1619090757.19781,451.9599,23.838809967041016
1619090757.21344,422.7098,23.854439973831177
1619090757.22907,397.6764,23.870069980621338
1619090757.24469,375.4,23.885689973831177
1619090757.26032,354.1866,23.901319980621338
1619090757.27594,333.3722,23.916939973831177
1619090757.29157,313.1845,23.932569980621338
1619090757.30719,293.9001,23.948189973831177
1619090757.32282,275.0624,23.963819980621338
1619090757.33845,255.3257,23.9794499874115
1619090757.35407,233.0776,23.995069980621338
1619090757.3697,207.3107,24.0106999874115
1619090757.38532,178.0554,24.026319980621338
1619090757.40095,146.4251,24.0419499874115
1619090757.41657,114.0251,24.057569980621338
1619090757.4322,82.09888,24.0731999874115
1619090757.44783,50.94299,24.08882999420166
1619090757.46345,19.80099,24.1044499874115
1619090757.47908,-12.80499,24.12007999420166
1619090757.4947,-48.29062,24.1356999874115
1619090757.51033,-87.28152,24.15132999420166
1619090757.52595,-129.2432,24.1669499874115
1619090757.54158,-172.4663,24.18257999420166
1619090757.55721,-214.7656,24.19821000099182
1619090757.57283,-254.1828,24.21382999420166
1619090757.58846,-289.6713,24.22946000099182
1619090757.60408,-321.2764,24.24507999420166
1619090757.61971,-349.8375,24.26071000099182
1619090757.63534,-376.5549,24.276340007781982
1619090757.65096,-402.5713,24.29196000099182
1619090757.66659,-428.8963,24.307590007781982
1619090757.68221,-456.3317,24.32321000099182
1619090757.69784,-485.2238,24.338840007781982
1619090757.71346,-515.0546,24.35446000099182
1619090757.72909,-543.8432,24.370090007781982
1619090757.74472,-568.1087,24.385720014572144
1619090757.76034,-583.6845,24.401340007781982
1619090757.77597,-587.1047,24.416970014572144
1619090757.79159,-577.1225,24.432590007781982
1619090757.80722,-555.3381,24.448220014572144
1619090757.82284,-525.6804,24.463840007781982
1619090757.83847,-492.9266,24.479470014572144
1619090757.8541,-461.1011,24.495100021362305
1619090757.86972,-432.4548,24.510720014572144
1619090757.88535,-407.5163,24.526350021362305
1619090757.90097,-385.7742,24.541970014572144
1619090757.9166,-366.3809,24.557600021362305
1619090757.93222,-348.5323,24.573220014572144
1619090757.94785,-331.4276,24.588850021362305
1619090757.96348,-314.1691,24.604480028152466
1619090757.9791,-295.9697,24.620100021362305
1619090757.99473,-276.5576,24.635730028152466
1619090758.01035,-256.3765,24.651350021362305
1619090758.02598,-236.3693,24.666980028152466
1619090758.0416,-217.2552,24.682600021362305
1619090758.05723,-198.7521,24.698230028152466
1619090758.07286,-179.3264,24.713860034942627
1619090758.08848,-156.6299,24.729480028152466
1619090758.10411,-128.3616,24.745110034942627
1619090758.11973,-93.10767,24.760730028152466
1619090758.13536,-50.96271,24.776360034942627
1619090758.15098,-3.807007,24.791980028152466
1619090758.16661,44.59534,24.807610034942627
1619090758.18224,88.92194,24.823240041732788
1619090758.19786,123.2678,24.838860034942627
1619090758.21349,142.7393,24.854490041732788
1619090758.22911,145.291,24.870110034942627
1619090758.24474,132.9163,24.885740041732788
1619090758.26036,111.3169,24.901360034942627
1619090758.27599,87.96924,24.916990041732788
1619090758.29162,69.37964,24.93262004852295
1619090758.30724,58.88898,24.948240041732788
1619090758.32287,56.11401,24.96387004852295
1619090758.33849,58.20343,24.979490041732788
1619090758.35412,61.90729,24.99512004852295
1619090758.36974,65.24438,25.010740041732788
1619090758.38537,67.95081,25.02637004852295
1619090758.401,70.66461,25.04200005531311
1619090758.41662,73.78973,25.05762004852295
1619090758.43225,77.00427,25.07325005531311
1619090758.44787,79.53668,25.08887004852295
1619090758.4635,80.90906,25.10450005531311
1619090758.47912,81.45892,25.12012004852295
1619090758.49475,82.10468,25.13575005531311
1619090758.51038,83.83392,25.15138006210327
1619090758.526,86.96112,25.16700005531311
1619090758.54163,90.85889,25.18263006210327
1619090758.55725,94.32123,25.19825005531311
1619090758.57288,96.28345,25.21388006210327
1619090758.5885,96.42145,25.22950005531311
1619090758.60413,95.33426,25.24513006210327
1619090758.61976,94.18686,25.260760068893433
1619090758.63538,93.96762,25.27638006210327
1619090758.65101,94.96228,25.292010068893433
1619090758.66663,96.56665,25.30763006210327
1619090758.68226,97.68246,25.323260068893433
1619090758.69788,97.39816,25.33888006210327
1619090758.71351,95.54932,25.354510068893433
1619090758.72914,92.83936,25.370140075683594
1619090758.74476,90.49924,25.385760068893433
1619090758.76039,89.76315,25.401390075683594
1619090758.77601,91.31799,25.417010068893433
1619090758.79164,95.10809,25.432640075683594
1619090758.80726,100.42,25.448260068893433
1619090758.82289,106.289,25.463890075683594
1619090758.83852,111.7497,25.479520082473755
1619090758.85414,116.0729,25.495140075683594
1619090758.86977,118.8274,25.510770082473755
1619090758.88539,119.8453,25.526390075683594
1619090758.90102,119.2614,25.542020082473755
1619090758.91664,117.2771,25.557640075683594
1619090758.93227,113.9435,25.573270082473755
1619090758.9479,108.9746,25.588900089263916
1619090758.96352,101.7687,25.604520082473755
1619090758.97915,91.71786,25.620150089263916
1619090758.99477,78.63675,25.635770082473755
1619090759.0104,63.05051,25.651400089263916
1619090759.02602,46.0567,25.667020082473755
1619090759.04165,28.93124,25.682650089263916
1619090759.05728,12.53778,25.698280096054077
1619090759.0729,-3.0224,25.713900089263916
1619090759.08853,-18.44965,25.729530096054077
1619090759.10415,-35.01379,25.745150089263916
1619090759.11978,-54.16187,25.760780096054077
1619090759.1354,-77.04517,25.776400089263916
1619090759.15103,-104.0114,25.792030096054077
1619090759.16666,-134.1365,25.80766010284424
1619090759.18228,-164.9302,25.823280096054077
1619090759.19791,-192.7108,25.83891010284424
1619090759.21353,-213.5525,25.854530096054077
1619090759.22916,-224.7554,25.87016010284424
1619090759.24478,-226.1128,25.885780096054077
1619090759.26041,-220.074,25.90141010284424
1619090759.27604,-210.5809,25.9170401096344
1619090759.29166,-201.0061,25.93266010284424
1619090759.30729,-192.3384,25.9482901096344
1619090759.32291,-182.6905,25.96391010284424
1619090759.33854,-168.658,25.9795401096344
1619090759.35416,-147.6264,25.99516010284424
1619090759.36979,-119.6354,26.0107901096344
1619090759.38542,-87.67595,26.02642011642456
1619090759.40104,-56.18094,26.0420401096344
1619090759.41667,-28.63765,26.05767011642456
1619090759.43229,-5.816116,26.0732901096344
1619090759.44792,14.34055,26.08892011642456
1619090759.46354,35.12604,26.1045401096344
1619090759.47917,58.86378,26.12017011642456
1619090759.4948,85.44835,26.13580012321472
1619090759.51042,112.5262,26.15142011642456
1619090759.52605,137.0626,26.16705012321472
1619090759.54167,157.2657,26.18267011642456
1619090759.5573,173.4544,26.19830012321472
1619090759.57292,187.5811,26.21392011642456
1619090759.58855,201.6275,26.22955012321472
1619090759.60418,215.9398,26.245180130004883
1619090759.6198,228.647,26.26080012321472
1619090759.63543,236.3506,26.276430130004883
1619090759.65105,235.6902,26.29205012321472
1619090759.66668,224.933,26.307680130004883
1619090759.6823,204.725,26.32330012321472
1619090759.69793,177.779,26.338930130004883
1619090759.71356,147.7644,26.354560136795044
1619090759.72918,118.0785,26.370180130004883
1619090759.74481,91.04437,26.385810136795044
1619090759.76043,67.74547,26.401430130004883
1619090759.77606,48.45609,26.417060136795044
1619090759.79168,33.19827,26.432680130004883
1619090759.80731,22.14355,26.448310136795044
1619090759.82294,15.55421,26.463940143585205
1619090759.83856,13.6041,26.479560136795044
1619090759.85419,16.05482,26.495190143585205
1619090759.86981,22.08507,26.510810136795044
1619090759.88544,30.34406,26.526440143585205
1619090759.90107,39.03942,26.542070150375366
1619090759.91669,46.15839,26.557690143585205
1619090759.93232,49.6668,26.573320150375366
1619090759.94794,47.74995,26.588940143585205
1619090759.96357,39.17098,26.604570150375366
1619090759.97919,23.7085,26.620190143585205
1619090759.99482,2.53508,26.635820150375366
1619090760.01045,-21.7724,26.65144991874695
1619090760.02607,-45.71025,26.667070150375366
1619090760.0417,-65.80069,26.68269991874695
1619090760.05732,-79.70699,26.698320150375366
1619090760.07295,-86.89441,26.71394991874695
1619090760.08857,-88.66112,26.729570150375366
1619090760.1042,-87.41344,26.74519991874695
1619090760.11983,-85.69101,26.76082992553711
1619090760.13545,-85.40149,26.77644991874695
1619090760.15108,-87.48632,26.79207992553711
1619090760.1667,-92.0242,26.80769991874695
1619090760.18233,-98.50715,26.82332992553711
1619090760.19795,-106.1104,26.83894991874695
1619090760.21358,-113.9708,26.85457992553711
1619090760.22921,-121.1995,26.87020993232727
1619090760.24483,-127.0748,26.88582992553711
1619090760.26046,-131.2995,26.90145993232727
1619090760.27608,-134.1945,26.91707992553711
1619090760.29171,-136.8371,26.93270993232727
1619090760.30733,-140.5799,26.94832992553711
1619090760.32296,-146.4499,26.96395993232727
1619090760.33859,-154.3953,26.97958993911743
1619090760.35421,-162.8906,26.99520993232727
1619090760.36984,-169.1739,27.01083993911743
1619090760.38546,-169.9676,27.02645993232727
1619090760.40109,-162.6438,27.04208993911743
1619090760.41671,-146.2458,27.05770993232727
1619090760.43234,-121.9162,27.07333993911743
1619090760.44797,-92.56453,27.088969945907593
1619090760.46359,-61.86315,27.10458993911743
1619090760.47922,-33.05935,27.120219945907593
1619090760.49484,-8.086863,27.13583993911743
1619090760.51047,12.63964,27.151469945907593
1619090760.52609,29.78682,27.16708993911743
1619090760.54172,44.4404,27.182719945907593
1619090760.55735,57.47993,27.198349952697754
1619090760.57297,69.40771,27.213969945907593
1619090760.5886,80.3213,27.229599952697754
1619090760.60422,90.07433,27.245219945907593
1619090760.61985,98.4142,27.260849952697754
1619090760.63547,104.9917,27.276469945907593
1619090760.6511,109.4771,27.292099952697754
1619090760.66673,111.6035,27.307729959487915
1619090760.68235,111.3808,27.323349952697754
1619090760.69798,109.1725,27.338979959487915
1619090760.7136,105.6742,27.354599952697754
1619090760.72923,101.7696,27.370229959487915
1619090760.74485,98.2852,27.385849952697754
1619090760.76048,95.77326,27.401479959487915
1619090760.77611,94.47253,27.417109966278076
1619090760.79173,94.29928,27.432729959487915
1619090760.80736,94.96495,27.448359966278076
1619090760.82298,96.01028,27.463979959487915
1619090760.83861,96.88374,27.479609966278076
1619090760.85423,96.93654,27.495229959487915
1619090760.86986,95.48996,27.510859966278076
1619090760.88549,92.04971,27.526489973068237
1619090760.90111,86.45197,27.542109966278076
1619090760.91674,79.1017,27.557739973068237
1619090760.93236,70.91246,27.573359966278076
1619090760.94799,63.11441,27.588989973068237
1619090760.96361,56.88458,27.604609966278076
1619090760.97924,52.91705,27.620239973068237
1619090760.99487,51.20453,27.6358699798584
1619090761.01049,51.0159,27.651489973068237
1619090761.02612,51.26936,27.6671199798584
1619090761.04174,50.93774,27.682739973068237
1619090761.05737,49.43745,27.6983699798584
1619090761.07299,46.67729,27.713989973068237
1619090761.08862,42.94775,27.7296199798584
1619090761.10425,38.60747,27.74524998664856
1619090761.11987,33.8302,27.7608699798584
1619090761.1355,28.58369,27.77649998664856
1619090761.15112,22.70117,27.7921199798584
1619090761.16675,16.09946,27.80774998664856
1619090761.18237,8.910461,27.8233699798584
1619090761.198,1.587982,27.83899998664856
1619090761.21363,-5.266037,27.85462999343872
1619090761.22925,-11.05693,27.87024998664856
1619090761.24488,-15.42241,27.88587999343872
1619090761.2605,-18.40492,27.90149998664856
1619090761.27613,-20.49873,27.91712999343872
1619090761.29175,-22.50099,27.93274998664856
1619090761.30738,-25.27594,27.94837999343872
1619090761.32301,-29.45233,27.964010000228882
1619090761.33863,-35.21504,27.97962999343872
1619090761.35426,-42.2634,27.995260000228882
1619090761.36988,-50.02287,28.01087999343872
1619090761.38551,-57.93063,28.026510000228882
1619090761.40113,-65.74515,28.04212999343872
1619090761.41676,-73.72501,28.057760000228882
1619090761.43239,-82.5654,28.073390007019043
1619090761.44801,-93.15569,28.089010000228882
1619090761.46364,-106.1175,28.104640007019043
1619090761.47926,-121.3163,28.120260000228882
1619090761.49489,-137.5293,28.135890007019043
1619090761.51051,-152.367,28.151510000228882
1619090761.52614,-162.6968,28.167140007019043
1619090761.54177,-165.4234,28.182770013809204
1619090761.55739,-158.4067,28.198390007019043
1619090761.57302,-141.1942,28.214020013809204
1619090761.58864,-115.3322,28.229640007019043
1619090761.60427,-84.03622,28.245270013809204
1619090761.61989,-51.36247,28.260890007019043
1619090761.63552,-21.09615,28.276520013809204
1619090761.65115,4.175903,28.292150020599365
1619090761.66677,23.5269,28.307770013809204
1619090761.6824,37.53273,28.323400020599365
1619090761.69802,47.70039,28.339020013809204
1619090761.71365,55.6685,28.354650020599365
1619090761.72927,62.62607,28.370270013809204
1619090761.7449,69.04109,28.385900020599365
1619090761.76053,74.7867,28.401530027389526
1619090761.77615,79.44801,28.417150020599365
1619090761.79178,82.70071,28.432780027389526
1619090761.8074,84.4619,28.448400020599365
1619090761.82303,84.908,28.464030027389526
1619090761.83865,84.31984,28.479650020599365
1619090761.85428,83.01009,28.495280027389526
1619090761.86991,81.30208,28.510910034179688
1619090761.88553,79.59756,28.526530027389526
1619090761.90116,78.37114,28.542160034179688
1619090761.91678,78.10379,28.557780027389526
1619090761.93241,79.10469,28.573410034179688
1619090761.94803,81.27673,28.589030027389526
1619090761.96366,84.04306,28.604660034179688
1619090761.97929,86.4254,28.62029004096985
1619090761.99491,87.24881,28.635910034179688
1619090762.01054,85.54271,28.65154004096985
1619090762.02616,80.88083,28.667160034179688
1619090762.04179,73.59102,28.68279004096985
1619090762.05742,64.67078,28.69842004776001
1619090762.07304,55.5076,28.71404004096985
1619090762.08867,47.35786,28.72967004776001
1619090762.10429,40.9203,28.74529004096985
1619090762.11992,36.12578,28.76092004776001
1619090762.13554,32.22755,28.77654004096985
1619090762.15117,28.18527,28.79217004776001
1619090762.1668,23.13921,28.80780005455017
1619090762.18242,16.76305,28.82342004776001
1619090762.19805,9.337921,28.83905005455017
1619090762.21367,1.616623,28.85467004776001
1619090762.2293,-5.586136,28.87030005455017
1619090762.24492,-11.74409,28.88592004776001
1619090762.26055,-16.81715,28.90155005455017
1619090762.27618,-21.22424,28.917180061340332
1619090762.2918,-25.61067,28.93280005455017
1619090762.30743,-30.53691,28.948430061340332
1619090762.32305,-36.24355,28.96405005455017
1619090762.33868,-42.57687,28.979680061340332
1619090762.3543,-49.10359,28.99530005455017
1619090762.36993,-55.3466,29.010930061340332
1619090762.38556,-60.94406,29.026560068130493
1619090762.40118,-65.91762,29.042180061340332
1619090762.41681,-70.6953,29.057810068130493
1619090762.43243,-76.0843,29.073430061340332
1619090762.44806,-83.12326,29.089060068130493
1619090762.46368,-92.67064,29.104680061340332
1619090762.47931,-104.926,29.120310068130493
1619090762.49494,-118.9302,29.135940074920654
1619090762.51056,-132.3855,29.151560068130493
1619090762.52619,-142.0255,29.167190074920654
1619090762.54181,-144.5261,29.182810068130493
1619090762.55744,-137.7148,29.198440074920654
1619090762.57306,-121.3863,29.214060068130493
1619090762.58869,-97.53983,29.229690074920654
1619090762.60432,-69.67244,29.245320081710815
1619090762.61994,-41.62935,29.260940074920654
1619090762.63557,-16.39447,29.276570081710815
1619090762.65119,4.525513,29.292190074920654
1619090762.66682,21.10854,29.307820081710815
1619090762.68244,34.24792,29.323440074920654
1619090762.69807,45.04149,29.339070081710815
1619090762.7137,54.27699,29.354700088500977
1619090762.72932,62.29987,29.370320081710815
1619090762.74495,69.09689,29.385950088500977
1619090762.76057,74.54123,29.401570081710815
1619090762.7762,78.56,29.417200088500977
1619090762.79182,81.17639,29.432820081710815
1619090762.80745,82.47656,29.448450088500977
1619090762.82308,82.55569,29.464080095291138
1619090762.8387,81.53693,29.479700088500977
1619090762.85433,79.66446,29.495330095291138
1619090762.86995,77.26526,29.510950088500977
1619090762.88558,74.87997,29.526580095291138
1619090762.9012,73.16455,29.542200088500977
1619090762.91683,72.67508,29.557830095291138
1619090762.93246,73.67963,29.5734601020813
1619090762.94808,75.98251,29.589080095291138
1619090762.96371,78.91318,29.6047101020813
1619090762.97933,81.52466,29.620330095291138
1619090762.99496,82.9115,29.6359601020813
1619090763.01058,82.43994,29.651580095291138
1619090763.02621,79.92508,29.6672101020813
1619090763.04184,75.62738,29.68284010887146
1619090763.05746,70.04941,29.6984601020813
1619090763.07309,63.85425,29.71409010887146
1619090763.08871,57.6503,29.7297101020813
1619090763.10434,51.84976,29.74534010887146
1619090763.11996,46.5849,29.7609601020813
1619090763.13559,41.70474,29.77659010887146
1619090763.15122,36.8157,29.79222011566162
1619090763.16684,31.43671,29.80784010887146
1619090763.18247,25.24103,29.82347011566162
1619090763.19809,18.1998,29.83909010887146
1619090763.21372,10.61136,29.85472011566162
1619090763.22934,2.997223,29.87034010887146
1619090763.24497,-4.186981,29.88597011566162
1619090763.2606,-10.76744,29.901600122451782
1619090763.27622,-17.01471,29.91722011566162
1619090763.29185,-23.50792,29.932850122451782
1619090763.30747,-30.93547,29.94847011566162
1619090763.3231,-39.74492,29.964100122451782
1619090763.33872,-49.93658,29.97972011566162
1619090763.35435,-60.97775,29.995350122451782
1619090763.36998,-72.00415,30.010980129241943
1619090763.3856,-82.13925,30.026600122451782
1619090763.40123,-90.76878,30.042230129241943
1619090763.41685,-97.8326,30.057850122451782
1619090763.43248,-103.8346,30.073480129241943
1619090763.4481,-109.7614,30.089100122451782
1619090763.46373,-116.8646,30.104730129241943
1619090763.47936,-126.2876,30.120360136032104
1619090763.49498,-138.5766,30.135980129241943
1619090763.51061,-153.2025,30.151610136032104
1619090763.52623,-168.2735,30.167230129241943
1619090763.54186,-180.658,30.182860136032104
1619090763.55748,-186.7043,30.198480129241943
1619090763.57311,-183.3634,30.214110136032104
1619090763.58874,-169.2853,30.229740142822266
1619090763.60436,-145.4055,30.245360136032104
1619090763.61999,-114.7527,30.260990142822266
1619090763.63561,-81.43802,30.276610136032104
1619090763.65124,-49.40564,30.292240142822266
1619090763.66686,-21.39865,30.307860136032104
1619090763.68249,1.477417,30.323490142822266
1619090763.69812,19.50833,30.339120149612427
1619090763.71374,33.79083,30.354740142822266
1619090763.72937,45.60809,30.370370149612427
1619090763.74499,56.0751,30.385990142822266
1619090763.76062,65.90634,30.401620149612427
1619090763.77624,75.43295,30.417240142822266
1619090763.79187,84.58667,30.432870149612427
1619090763.8075,92.94769,30.44849991798401
1619090763.82312,99.90756,30.464120149612427
1619090763.83875,104.8651,30.47974991798401
1619090763.85437,107.4421,30.495370149612427
1619090763.87,107.6288,30.51099991798401
1619090763.88562,105.8416,30.526620149612427
1619090763.90125,102.8286,30.54224991798401
1619090763.91688,99.509,30.55787992477417
1619090763.9325,96.76065,30.57349991798401
1619090763.94813,95.25015,30.58912992477417
1619090763.96375,95.15857,30.60474991798401
1619090763.97938,96.15671,30.62037992477417
1619090763.995,97.43448,30.63599991798401
1619090764.01063,97.95032,30.65162992477417
1619090764.02626,96.82001,30.66725993156433
1619090764.04188,93.6087,30.68287992477417
1619090764.05751,88.50443,30.69850993156433
1619090764.07313,82.18634,30.71412992477417
1619090764.08876,75.54767,30.72975993156433
1619090764.10438,69.34329,30.74537992477417
1619090764.12001,64.01245,30.76100993156433
1619090764.13564,59.64227,30.776639938354492
1619090764.15126,56.02203,30.79225993156433
1619090764.16689,52.81564,30.807889938354492
1619090764.18251,49.67056,30.82350993156433
1619090764.19814,46.28992,30.839139938354492
1619090764.21376,42.48611,30.85475993156433
1619090764.22939,38.23404,30.870389938354492
1619090764.24502,33.67603,30.886019945144653
1619090764.26064,29.069,30.901639938354492
1619090764.27627,24.7124,30.917269945144653
1619090764.29189,20.85916,30.932889938354492
1619090764.30752,17.59259,30.948519945144653
1619090764.32314,14.81186,30.964139938354492
1619090764.33877,12.19409,30.979769945144653
1619090764.3544,9.293121,30.995399951934814
1619090764.37002,5.64679,31.011019945144653
1619090764.38565,0.9316406,31.026649951934814
1619090764.40127,-4.913666,31.042269945144653
1619090764.4169,-11.61798,31.057899951934814
1619090764.43252,-18.6207,31.073519945144653
1619090764.44815,-25.31616,31.089149951934814
1619090764.46378,-31.26727,31.104779958724976
1619090764.4794,-36.51633,31.120399951934814
1619090764.49503,-41.52628,31.136029958724976
1619090764.51065,-47.02507,31.151649951934814
1619090764.52628,-53.65245,31.167279958724976
1619090764.5419,-61.60724,31.182899951934814
1619090764.55753,-70.57729,31.198529958724976
1619090764.57316,-79.83665,31.214159965515137
1619090764.58878,-88.57388,31.229779958724976
1619090764.60441,-96.21054,31.245409965515137
1619090764.62003,-102.6135,31.261029958724976
1619090764.63566,-108.0772,31.276659965515137
1619090764.65128,-113.338,31.292279958724976
1619090764.66691,-119.3648,31.307909965515137
1619090764.68254,-127.1906,31.323539972305298
1619090764.69816,-137.49,31.339159965515137
1619090764.71379,-150.1429,31.354789972305298
1619090764.72941,-163.7532,31.370409965515137
1619090764.74504,-175.5352,31.386039972305298
1619090764.76067,-181.8773,31.40166997909546
1619090764.77629,-179.4139,31.417289972305298
1619090764.79192,-166.3519,31.43291997909546
1619090764.80754,-143.3103,31.448539972305298
1619090764.82317,-113.2075,31.46416997909546
1619090764.83879,-80.36476,31.479789972305298
1619090764.85442,-49.00977,31.49541997909546
1619090764.87005,-22.03358,31.51104998588562
1619090764.88567,-0.4379883,31.52666997909546
1619090764.9013,16.3719,31.54229998588562
1619090764.91692,29.81592,31.55791997909546
1619090764.93255,41.3721,31.57354998588562
1619090764.94817,52.05324,31.58916997909546
1619090764.9638,62.35526,31.60479998588562
1619090764.97943,72.30763,31.62042999267578
1619090764.99505,81.65436,31.63604998588562
1619090765.01068,89.93925,31.65167999267578
1619090765.0263,96.62936,31.66729998588562
1619090765.04193,101.2759,31.68292999267578
1619090765.05755,103.6516,31.69854998588562
1619090765.07318,103.8442,31.71417999267578
1619090765.08881,102.2943,31.729809999465942
1619090765.10443,99.65175,31.74542999267578
1619090765.12006,96.64317,31.761059999465942
1619090765.13568,93.93925,31.77667999267578
1619090765.15131,92.05629,31.792309999465942
1619090765.16693,91.24695,31.80792999267578
1619090765.18256,91.42126,31.823559999465942
1619090765.19819,92.06461,31.839190006256104
1619090765.21381,92.39529,31.854809999465942
1619090765.22944,91.57468,31.870440006256104
1619090765.24506,89.0914,31.886059999465942
1619090765.26069,84.94684,31.901690006256104
1619090765.27631,79.71536,31.917309999465942
1619090765.29194,74.24466,31.932940006256104
1619090765.30757,69.26114,31.948570013046265
1619090765.32319,65.13602,31.964190006256104
1619090765.33882,61.71063,31.979820013046265
1619090765.35444,58.53242,31.995440006256104
1619090765.37007,55.07716,32.011070013046265
1619090765.38569,51.01886,32.0266900062561
1619090765.40132,46.30836,32.042320013046265
1619090765.41695,41.09651,32.057950019836426
1619090765.43257,35.66576,32.073570013046265
1619090765.4482,30.29897,32.089200019836426
1619090765.46382,25.24033,32.104820013046265
1619090765.47945,20.6685,32.120450019836426
1619090765.49507,16.69829,32.136070013046265
1619090765.5107,13.34874,32.151700019836426
1619090765.52633,10.47852,32.16733002662659
1619090765.54195,7.838654,32.182950019836426
1619090765.55758,5.077347,32.19858002662659
1619090765.5732,1.81604,32.214200019836426
1619090765.58883,-2.205444,32.22983002662659
1619090765.60445,-7.038773,32.245450019836426
1619090765.62008,-12.46664,32.26108002662659
1619090765.63571,-18.06912,32.27671003341675
1619090765.65133,-23.39055,32.29233002662659
1619090765.66696,-28.1779,32.30796003341675
1619090765.68258,-32.5287,32.32358002662659
1619090765.69821,-36.88327,32.33921003341675
1619090765.71383,-41.8822,32.35483002662659
1619090765.72946,-48.04822,32.37046003341675
1619090765.74509,-55.51849,32.38609004020691
1619090765.76071,-63.9789,32.40171003341675
1619090765.77634,-72.76927,32.41734004020691
1619090765.79196,-81.18793,32.43296003341675
1619090765.80759,-88.7822,32.44859004020691
1619090765.82321,-95.50941,32.46421003341675
1619090765.83884,-101.7794,32.47984004020691
1619090765.85447,-108.412,32.49547004699707
1619090765.87009,-116.4043,32.51109004020691
1619090765.88572,-126.5836,32.52672004699707
1619090765.90134,-139.0596,32.54234004020691
1619090765.91697,-152.7936,32.55797004699707
1619090765.93259,-165.3845,32.57359004020691
1619090765.94822,-173.5252,32.58922004699707
1619090765.96385,-173.9041,32.60485005378723
1619090765.97947,-164.3659,32.62047004699707
1619090765.9951,-144.9096,32.63610005378723
1619090766.01072,-117.7307,32.65172004699707
1619090766.02635,-86.62381,32.66735005378723
1619090766.04197,-55.70398,32.68297004699707
1619090766.0576,-28.19501,32.69860005378723
1619090766.07323,-5.721252,32.71423006057739
1619090766.08885,11.71356,32.72985005378723
1619090766.10448,25.13718,32.74548006057739
1619090766.1201,35.95126,32.76110005378723
1619090766.13573,45.35254,32.77673006057739
1619090766.15135,54.1447,32.79235005378723
1619090766.16698,62.67484,32.80798006057739
1619090766.18261,70.87875,32.823610067367554
1619090766.19823,78.42416,32.83923006057739
1619090766.21386,84.79024,32.854860067367554
1619090766.22948,89.45111,32.87048006057739
1619090766.24511,92.07512,32.886110067367554
1619090766.26073,92.66711,32.90173006057739
1619090766.27636,91.60023,32.917360067367554
1619090766.29199,89.55304,32.932990074157715
1619090766.30761,87.31523,32.948610067367554
1619090766.32324,85.52519,32.964240074157715
1619090766.33886,84.56232,32.979860067367554
1619090766.35449,84.44609,32.995490074157715
1619090766.37011,84.85808,33.011110067367554
1619090766.38574,85.27309,33.026740074157715
1619090766.40137,85.11859,33.042370080947876
1619090766.41699,83.91254,33.057990074157715
1619090766.43262,81.47539,33.073620080947876
1619090766.44824,77.92526,33.089240074157715
1619090766.46387,73.60246,33.104870080947876
1619090766.47949,68.94128,33.120490074157715
1619090766.49512,64.2757,33.136120080947876
1619090766.51075,59.72444,33.15175008773804
1619090766.52637,55.25154,33.167370080947876
1619090766.542,50.74915,33.18300008773804
1619090766.55762,46.13409,33.198620080947876
1619090766.57325,41.44992,33.21425008773804
1619090766.58887,36.79875,33.229870080947876
1619090766.6045,32.25652,33.24550008773804
1619090766.62013,27.85976,33.2611300945282
1619090766.63575,23.52489,33.27675008773804
1619090766.65138,19.04648,33.2923800945282
1619090766.667,14.2574,33.30800008773804
1619090766.68263,9.053955,33.3236300945282
1619090766.69825,3.474472,33.33925008773804
1619090766.71388,-2.326889,33.3548800945282
1619090766.72951,-8.125,33.37051010131836
1619090766.74513,-13.77452,33.3861300945282
1619090766.76076,-19.26723,33.40176010131836
1619090766.77638,-24.78145,33.4173800945282
1619090766.79201,-30.66083,33.43301010131836
1619090766.80763,-37.18779,33.4486300945282
1619090766.82326,-44.46069,33.46426010131836
1619090766.83889,-52.29944,33.47989010810852
1619090766.85451,-60.23888,33.49551010131836
1619090766.87014,-67.7094,33.51114010810852
1619090766.88576,-74.26207,33.52676010131836
1619090766.90139,-79.75209,33.54239010810852
1619090766.91702,-84.46815,33.55802011489868
1619090766.93264,-89.14423,33.57364010810852
1619090766.94827,-94.78433,33.58927011489868
1619090766.96389,-102.3911,33.60489010810852
1619090766.97952,-112.5712,33.62052011489868
1619090766.99514,-125.0127,33.63614010810852
1619090767.01077,-138.1743,33.65177011489868
1619090767.0264,-149.3536,33.66740012168884
1619090767.04202,-155.2679,33.68302011489868
1619090767.05765,-153.0462,33.69865012168884
1619090767.07327,-141.2562,33.71427011489868
1619090767.0889,-120.5029,33.72990012168884
1619090767.10452,-93.34149,33.74552011489868
1619090767.12015,-63.532,33.76115012168884
1619090767.13578,-34.77985,33.776780128479004
1619090767.1514,-9.841797,33.79240012168884
1619090767.16703,10.03062,33.808030128479004
1619090767.18265,25.02541,33.82365012168884
1619090767.19828,36.20876,33.839280128479004
1619090767.2139,44.91551,33.85490012168884
1619090767.22953,52.27069,33.870530128479004
1619090767.24516,58.95178,33.886160135269165
1619090767.26078,65.16832,33.901780128479004
1619090767.27641,70.82777,33.917410135269165
1619090767.29203,75.65941,33.933030128479004
1619090767.30766,79.34967,33.948660135269165
1619090767.32328,81.69209,33.964280128479004
1619090767.33891,82.68648,33.979910135269165
1619090767.35454,82.50977,33.995540142059326
1619090767.37016,81.51106,34.011160135269165
1619090767.38579,80.13959,34.026790142059326
1619090767.40141,78.84178,34.042410135269165
1619090767.41704,77.96974,34.058040142059326
1619090767.43266,77.70094,34.073660135269165
1619090767.44829,77.97672,34.089290142059326
1619090767.46392,78.52309,34.10492014884949
1619090767.47954,78.9176,34.120540142059326
1619090767.49517,78.63123,34.13617014884949
1619090767.51079,77.17833,34.151790142059326
1619090767.52642,74.29108,34.16742014884949
1619090767.54204,69.9751,34.183040142059326
1619090767.55767,64.58728,34.19867014884949
1619090767.5733,58.6946,34.21429991722107
1619090767.58892,52.89972,34.22992014884949
1619090767.60455,47.64902,34.24554991722107
1619090767.62017,43.04581,34.26117014884949
1619090767.6358,38.90448,34.27679991722107
1619090767.65142,34.90466,34.29242014884949
1619090767.66705,30.72374,34.30804991722107
1619090767.68268,26.13707,34.32367992401123
1619090767.6983,21.07855,34.33929991722107
1619090767.71393,15.548,34.35492992401123
1619090767.72955,9.63884,34.37054991722107
1619090767.74518,3.524078,34.38617992401123
1619090767.7608,-2.602585,34.40179991722107
1619090767.77643,-8.514145,34.41742992401123
1619090767.79206,-14.06732,34.43305993080139
1619090767.80768,-19.29271,34.44867992401123
1619090767.82331,-24.48978,34.46430993080139
1619090767.83893,-30.07627,34.47992992401123
1619090767.85456,-36.49558,34.49555993080139
1619090767.87018,-43.97534,34.51117992401123
1619090767.88581,-52.37397,34.52680993080139
1619090767.90144,-61.2404,34.54243993759155
1619090767.91706,-69.92643,34.55805993080139
1619090767.93269,-77.88112,34.57368993759155
1619090767.94831,-84.86237,34.58930993080139
1619090767.96394,-91.04748,34.60493993759155
1619090767.97956,-97.02991,34.62055993080139
1619090767.99519,-103.6695,34.63618993759155
1619090768.01082,-111.9321,34.651819944381714
1619090768.02644,-122.5305,34.66743993759155
1619090768.04207,-135.5431,34.683069944381714
1619090768.05769,-150.0018,34.69868993759155
1619090768.07332,-163.7641,34.714319944381714
1619090768.08894,-173.8103,34.72993993759155
1619090768.10457,-176.9392,34.745569944381714
1619090768.1202,-170.8056,34.761199951171875
1619090768.13582,-154.8712,34.776819944381714
1619090768.15145,-130.6889,34.792449951171875
1619090768.16707,-101.5172,34.808069944381714
1619090768.1827,-71.2566,34.823699951171875
1619090768.19832,-43.20699,34.839319944381714
1619090768.21395,-19.28281,34.854949951171875
1619090768.22958,0.1589966,34.870579957962036
1619090768.2452,15.92242,34.886199951171875
1619090768.26083,29.27737,34.901829957962036
1619090768.27645,41.36029,34.917449951171875
1619090768.29208,52.88715,34.933079957962036
1619090768.3077,64.09857,34.948699951171875
1619090768.32333,74.83507,34.964329957962036
1619090768.33896,84.67677,34.9799599647522
1619090768.35458,93.05331,34.995579957962036
1619090768.37021,99.40343,35.0112099647522
1619090768.38583,103.3476,35.026829957962036
1619090768.40146,104.8379,35.0424599647522
1619090768.41708,104.2102,35.058079957962036
1619090768.43271,102.1451,35.0737099647522
1619090768.44834,99.45657,35.08933997154236
1619090768.46396,96.90088,35.1049599647522
1619090768.47959,94.98393,35.12058997154236
1619090768.49521,93.87172,35.1362099647522
1619090768.51084,93.41377,35.15183997154236
1619090768.52646,93.24146,35.1674599647522
1619090768.54209,92.8324,35.18308997154236
1619090768.55772,91.70065,35.19871997833252
1619090768.57334,89.52101,35.21433997154236
1619090768.58897,86.21466,35.22996997833252
1619090768.60459,81.96925,35.24558997154236
1619090768.62022,77.19603,35.26121997833252
1619090768.63584,72.3656,35.27683997154236
1619090768.65147,67.89423,35.29246997833252
1619090768.6671,64.00214,35.30809998512268
1619090768.68272,60.65173,35.32371997833252
1619090768.69835,57.61075,35.33934998512268
1619090768.71397,54.55598,35.35496997833252
1619090768.7296,51.18527,35.37059998512268
1619090768.74522,47.3275,35.38621997833252
1619090768.76085,42.99222,35.40184998512268
1619090768.77648,38.34076,35.41747999191284
1619090768.7921,33.62646,35.43309998512268
1619090768.80773,29.12593,35.44872999191284
1619090768.82335,25.01445,35.46434998512268
1619090768.83898,21.35321,35.47997999191284
1619090768.8546,18.03722,35.49559998512268
1619090768.87023,14.8434,35.51122999191284
1619090768.88586,11.46828,35.526859998703
1619090768.90148,7.64035,35.54247999191284
1619090768.91711,3.174438,35.558109998703
1619090768.93273,-1.969162,35.57372999191284
1619090768.94836,-7.639763,35.589359998703
1619090768.96398,-13.584,35.60497999191284
1619090768.97961,-19.47038,35.620609998703
1619090768.99524,-25.05477,35.636240005493164
1619090769.01086,-30.20806,35.651859998703
1619090769.02649,-35.02915,35.667490005493164
1619090769.04211,-39.78185,35.683109998703
1619090769.05774,-44.86523,35.698740005493164
1619090769.07336,-50.65939,35.714359998703
1619090769.08899,-57.36361,35.729990005493164
1619090769.10462,-64.92942,35.745620012283325
1619090769.12024,-72.99296,35.761240005493164
1619090769.13587,-81.03532,35.776870012283325
1619090769.15149,-88.52719,35.792490005493164
1619090769.16712,-95.1611,35.808120012283325
1619090769.18274,-101.0077,35.823740005493164
1619090769.19837,-106.5863,35.839370012283325
1619090769.214,-112.77,35.855000019073486
1619090769.22962,-120.5991,35.870620012283325
1619090769.24525,-130.8713,35.886250019073486
1619090769.26087,-143.648,35.901870012283325
1619090769.2765,-157.834,35.917500019073486
1619090769.29212,-171.0384,35.933120012283325
1619090769.30775,-179.9327,35.948750019073486
1619090769.32338,-181.1455,35.96438002586365
1619090769.339,-172.3982,35.980000019073486
1619090769.35463,-153.4274,35.99563002586365
1619090769.37025,-126.2626,36.011250019073486
1619090769.38588,-94.60892,36.02688002586365
1619090769.4015,-62.65243,36.042500019073486
1619090769.41713,-33.84316,36.05813002586365
1619090769.43276,-10.04073,36.07376003265381
1619090769.44838,8.581718,36.08938002586365
1619090769.46401,23.03078,36.10501003265381
1619090769.47963,34.74471,36.12063002586365
1619090769.49526,45.04938,36.13626003265381
1619090769.51089,54.75933,36.15189003944397
1619090769.52651,64.23089,36.16751003265381
1619090769.54214,73.43359,36.18314003944397
1619090769.55776,82.06,36.19876003265381
1619090769.57339,89.63297,36.21439003944397
1619090769.58901,95.65187,36.23001003265381
1619090769.60464,99.70969,36.24564003944397
1619090769.62027,101.6387,36.26127004623413
1619090769.63589,101.6148,36.27689003944397
1619090769.65152,100.0816,36.29252004623413
1619090769.66714,97.70026,36.30814003944397
1619090769.68277,95.12895,36.32377004623413
1619090769.69839,92.90938,36.33939003944397
1619090769.71402,91.3894,36.35502004623413
1619090769.72965,90.63235,36.37065005302429
1619090769.74527,90.3881,36.38627004623413
1619090769.7609,90.13535,36.40190005302429
1619090769.77652,89.31216,36.41752004623413
1619090769.79215,87.42387,36.43315005302429
1619090769.80777,84.28443,36.44877004623413
1619090769.8234,80.06472,36.46440005302429
1619090769.83903,75.20839,36.48003005981445
1619090769.85465,70.29265,36.49565005302429
1619090769.87028,65.78751,36.51128005981445
1619090769.8859,61.95462,36.52690005302429
1619090769.90153,58.82108,36.54253005981445
1619090769.91715,56.23507,36.55815005302429
1619090769.93278,53.89451,36.57378005981445
1619090769.94841,51.48961,36.589410066604614
1619090769.96403,48.71528,36.60503005981445
1619090769.97966,45.35846,36.620660066604614
1619090769.99528,41.39538,36.63628005981445
1619090770.01091,36.93455,36.651910066604614
1619090770.02653,32.21783,36.66753005981445
1619090770.04216,27.48898,36.683160066604614
1619090770.05779,22.93768,36.698790073394775
1619090770.07341,18.62267,36.714410066604614
1619090770.08904,14.52856,36.730040073394775
1619090770.10466,10.55398,36.745660066604614
1619090770.12029,6.537308,36.761290073394775
1619090770.13591,2.337997,36.776910066604614
1619090770.15154,-2.209175,36.792540073394775
1619090770.16717,-7.171806,36.80817008018494
1619090770.18279,-12.48808,36.823790073394775
1619090770.19842,-17.97989,36.83942008018494
1619090770.21404,-23.41216,36.855040073394775
1619090770.22967,-28.61637,36.87067008018494
1619090770.24529,-33.60983,36.886290073394775
1619090770.26092,-38.66875,36.90192008018494
1619090770.27655,-44.19698,36.9175500869751
1619090770.29217,-50.546,36.93317008018494
1619090770.3078,-57.8222,36.9488000869751
1619090770.32342,-65.78664,36.96442008018494
1619090770.33905,-73.87292,36.9800500869751
1619090770.35467,-81.41322,36.99567008018494
1619090770.3703,-87.94498,37.0113000869751
1619090770.38593,-93.4011,37.02693009376526
1619090770.40155,-98.24,37.0425500869751
1619090770.41718,-103.3533,37.05818009376526
1619090770.4328,-109.8587,37.0738000869751
1619090770.44843,-118.6995,37.08943009376526
1619090770.46405,-130.2462,37.1050500869751
1619090770.47968,-143.8496,37.12068009376526
1619090770.49531,-157.685,37.13631010055542
1619090770.51093,-168.8904,37.15193009376526
1619090770.52656,-174.2071,37.16756010055542
1619090770.54218,-170.963,37.18318009376526
1619090770.55781,-157.9559,37.19881010055542
1619090770.57343,-136.0441,37.21443009376526
1619090770.58906,-107.94,37.23006010055542
1619090770.60469,-77.38365,37.24569010734558
1619090770.62031,-48.07853,37.26131010055542
1619090770.63594,-22.65405,37.27694010734558
1619090770.65156,-2.205807,37.29256010055542
1619090770.66719,13.54553,37.30819010734558
1619090770.68281,25.73816,37.32381010055542
1619090770.69844,35.74725,37.33944010734558
1619090770.71407,44.7238,37.35507011413574
1619090770.72969,53.3913,37.37069010734558
1619090770.74532,62.03349,37.38632011413574
1619090770.76094,70.53264,37.40194010734558
1619090770.77657,78.46927,37.41757011413574
1619090770.79219,85.29897,37.43319010734558
1619090770.80782,90.51802,37.44882011413574
1619090770.82345,93.83554,37.4644501209259
1619090770.83907,95.29408,37.48007011413574
1619090770.8547,95.26262,37.4957001209259
1619090770.87032,94.30582,37.51132011413574
1619090770.88595,93.08938,37.5269501209259
1619090770.90157,92.19578,37.54257011413574
1619090770.9172,92.02013,37.5582001209259
1619090770.93283,92.69373,37.573830127716064
1619090770.94845,94.02596,37.5894501209259
1619090770.96408,95.52227,37.605080127716064
1619090770.9797,96.48308,37.6207001209259
1619090770.99533,96.19684,37.636330127716064
1619090771.01095,94.16371,37.6519501209259
1619090771.02658,90.35921,37.667580127716064
1619090771.04221,85.20482,37.683210134506226
1619090771.05783,79.46555,37.698830127716064
1619090771.07346,73.95972,37.714460134506226
1619090771.08908,69.18962,37.730080127716064
1619090771.10471,65.22626,37.745710134506226
1619090771.12033,61.71851,37.761330127716064
1619090771.13596,58.07168,37.776960134506226
1619090771.15159,53.72848,37.79259014129639
1619090771.16721,48.38599,37.808210134506226
1619090771.18284,42.04461,37.82384014129639
1619090771.19846,34.93909,37.839460134506226
1619090771.21409,27.37683,37.85509014129639
1619090771.22971,19.55759,37.870710134506226
1619090771.24534,11.54481,37.88634014129639
1619090771.26097,3.297686,37.90197014808655
1619090771.27659,-5.19458,37.91759014129639
1619090771.29222,-13.8215,37.93322014808655
1619090771.30784,-22.30285,37.94884014129639
1619090771.32347,-30.19857,37.96447014808655
1619090771.33909,-37.07557,37.98009014129639
1619090771.35472,-42.65647,37.99572014808655
1619090771.37035,-46.98429,38.01134991645813
1619090771.38597,-50.47273,38.02697014808655
1619090771.4016,-53.79202,38.04259991645813
1619090771.41722,-57.63084,38.05822014808655
1619090771.43285,-62.40439,38.07384991645813
1619090771.44847,-68.13662,38.08947014808655
1619090771.4641,-74.40344,38.10509991645813
1619090771.47973,-80.55896,38.12072992324829
1619090771.49535,-85.96563,38.13634991645813
1619090771.51098,-90.25705,38.15197992324829
1619090771.5266,-93.49092,38.16759991645813
1619090771.54223,-96.15675,38.18322992324829
1619090771.55785,-99.08629,38.19884991645813
1619090771.57348,-103.2559,38.21447992324829
1619090771.58911,-109.4603,38.23010993003845
1619090771.60473,-117.8768,38.24572992324829
1619090771.62036,-127.6468,38.26135993003845
1619090771.63598,-136.7441,38.27697992324829
1619090771.65161,-142.2676,38.29260993003845
1619090771.66723,-141.2163,38.30822992324829
1619090771.68286,-131.5762,38.32385993003845
1619090771.69849,-113.1608,38.33948993682861
1619090771.71411,-87.8783,38.35510993003845
1619090771.72974,-59.14043,38.37073993682861
1619090771.74536,-30.74967,38.38635993003845
1619090771.76099,-5.76086,38.40198993682861
1619090771.77662,14.26553,38.417619943618774
1619090771.79224,29.32883,38.43323993682861
1619090771.80787,40.47077,38.448869943618774
1619090771.82349,49.07673,38.46448993682861
1619090771.83912,56.28471,38.480119943618774
1619090771.85474,62.70361,38.49573993682861
1619090771.87037,68.43671,38.511369943618774
1619090771.886,73.29037,38.526999950408936
1619090771.90162,76.97264,38.542619943618774
1619090771.91725,79.28786,38.558249950408936
1619090771.93287,80.2607,38.573869943618774
1619090771.9485,80.08508,38.589499950408936
1619090771.96412,79.10632,38.605119943618774
1619090771.97975,77.70161,38.620749950408936
1619090771.99538,76.18479,38.6363799571991
1619090772.011,74.81978,38.651999950408936
1619090772.02663,73.82632,38.6676299571991
1619090772.04225,73.35703,38.683249950408936
1619090772.05788,73.49929,38.6988799571991
1619090772.0735,74.15644,38.714499950408936
1619090772.08913,74.91051,38.7301299571991
1619090772.10476,75.1152,38.74575996398926
1619090772.12038,74.04059,38.7613799571991
1619090772.13601,71.16895,38.77700996398926
1619090772.15163,66.40135,38.7926299571991
1619090772.16726,60.19524,38.80825996398926
1619090772.18288,53.36049,38.8238799571991
1619090772.19851,46.82543,38.83950996398926
1619090772.21414,41.2453,38.85513997077942
1619090772.22976,36.82269,38.87075996398926
1619090772.24539,33.27748,38.88638997077942
1619090772.26101,29.96326,38.90200996398926
1619090772.27664,26.1278,38.91763997077942
1619090772.29226,21.20808,38.93325996398926
1619090772.30789,15.04736,38.94888997077942
1619090772.32352,7.979616,38.96451997756958
1619090772.33914,0.7070103,38.98013997077942
1619090772.35477,-5.975978,38.99576997756958
1619090772.37039,-11.56938,39.01138997077942
1619090772.38602,-16.0843,39.02701997756958
1619090772.40164,-20.12585,39.04263997077942
1619090772.41727,-24.60847,39.05826997756958
1619090772.4329,-30.37428,39.07389998435974
1619090772.44852,-37.80681,39.08951997756958
1619090772.46415,-46.7058,39.10514998435974
1619090772.47977,-56.33487,39.12076997756958
1619090772.4954,-65.78151,39.13639998435974
1619090772.51102,-74.28752,39.15201997756958
1619090772.52665,-81.4922,39.16764998435974
1619090772.54228,-87.54534,39.1832799911499
1619090772.5579,-93.05839,39.19889998435974
1619090772.57353,-98.97059,39.2145299911499
1619090772.58915,-106.3765,39.23014998435974
1619090772.60478,-116.178,39.2457799911499
1619090772.6204,-128.5839,39.26139998435974
1619090772.63603,-142.6145,39.2770299911499
1619090772.65166,-156.0135,39.29265999794006
1619090772.66728,-165.4532,39.3082799911499
1619090772.68291,-167.5829,39.32390999794006
1619090772.69853,-160.1252,39.3395299911499
1619090772.71416,-142.8268,39.35515999794006
1619090772.72978,-117.7079,39.3707799911499
1619090772.74541,-88.39825,39.38640999794006
1619090772.76104,-58.92981,39.402040004730225
1619090772.77666,-32.4579,39.41765999794006
1619090772.79229,-10.58479,39.433290004730225
1619090772.80791,6.775844,39.44890999794006
1619090772.82354,20.74674,39.464540004730225
1619090772.83916,32.74794,39.48015999794006
1619090772.85479,43.90123,39.495790004730225
1619090772.87042,54.80066,39.511420011520386
1619090772.88604,65.54253,39.527040004730225
1619090772.90167,75.87836,39.542670011520386
1619090772.91729,85.34176,39.558290004730225
1619090772.93292,93.3228,39.573920011520386
1619090772.94854,99.21466,39.589540004730225
1619090772.96417,102.5459,39.605170011520386
1619090772.9798,103.1958,39.62080001831055
1619090772.99542,101.5008,39.636420011520386
1619090773.01105,98.20542,39.65205001831055
1619090773.02667,94.28482,39.667670011520386
1619090773.0423,90.6965,39.68330001831055
1619090773.05792,88.14259,39.698920011520386
1619090773.07355,86.88249,39.71455001831055
1619090773.08918,86.78269,39.73018002510071
1619090773.1048,87.32298,39.74580001831055
1619090773.12043,87.74066,39.76143002510071
1619090773.13605,87.26008,39.77705001831055
1619090773.15168,85.27201,39.79268002510071
1619090773.1673,81.56877,39.80830001831055
1619090773.18293,76.38885,39.82393002510071
1619090773.19856,70.41801,39.83956003189087
1619090773.21418,64.50182,39.85518002510071
1619090773.22981,59.36501,39.87081003189087
1619090773.24543,55.29529,39.88643002510071
1619090773.26106,52.08532,39.90206003189087
1619090773.27668,49.18159,39.91768002510071
1619090773.29231,45.93742,39.93331003189087
1619090773.30794,41.99047,39.94894003868103
1619090773.32356,37.35265,39.96456003189087
1619090773.33919,32.39589,39.98019003868103
1619090773.35481,27.57126,39.99581003189087
1619090773.37044,23.19072,40.01144003868103
1619090773.38606,19.22459,40.02706003189087
1619090773.40169,15.36195,40.04269003868103
1619090773.41732,11.18321,40.05832004547119
1619090773.43294,6.338087,40.07394003868103
1619090773.44857,0.7547163,40.08957004547119
1619090773.46419,-5.393825,40.10519003868103
1619090773.47982,-11.75846,40.12082004547119
1619090773.49544,-17.96358,40.13644003868103
1619090773.51107,-23.79002,40.15207004547119
1619090773.5267,-29.29497,40.16770005226135
1619090773.54232,-34.77819,40.18332004547119
1619090773.55795,-40.6629,40.19895005226135
1619090773.57357,-47.347,40.21457004547119
1619090773.5892,-54.9643,40.23020005226135
1619090773.60482,-63.31555,40.24582004547119
1619090773.62045,-71.87534,40.26145005226135
1619090773.63608,-80.00626,40.277080059051514
1619090773.6517,-87.19846,40.29270005226135
1619090773.66733,-93.32627,40.308330059051514
1619090773.68295,-98.70879,40.32395005226135
1619090773.69858,-104.077,40.339580059051514
1619090773.7142,-110.401,40.35520005226135
1619090773.72983,-118.6223,40.370830059051514
1619090773.74546,-129.27,40.386460065841675
1619090773.76108,-142.0756,40.402080059051514
1619090773.77671,-155.6587,40.417710065841675
1619090773.79233,-167.5468,40.433330059051514
1619090773.80796,-174.5985,40.448960065841675
1619090773.82358,-173.8841,40.464580059051514
1619090773.83921,-163.6926,40.480210065841675
1619090773.85484,-144.2747,40.495840072631836
1619090773.87046,-117.8357,40.511460065841675
1619090773.88609,-87.90451,40.527090072631836
1619090773.90171,-58.19115,40.542710065841675
1619090773.91734,-31.48257,40.558340072631836
1619090773.93296,-9.105456,40.573960065841675
1619090773.94859,9.061523,40.589590072631836
1619090773.96422,24.00534,40.605220079422
1619090773.97984,36.91052,40.620840072631836
1619090773.99547,48.69749,40.636470079422
1619090774.01109,59.79715,40.652090072631836
1619090774.02672,70.24802,40.667720079422
1619090774.04235,79.83128,40.68335008621216
1619090774.05797,88.19866,40.698970079422
1619090774.0736,94.96254,40.71460008621216
1619090774.08922,99.77875,40.730220079422
1619090774.10485,102.3703,40.74585008621216
1619090774.12047,102.7031,40.761470079422
1619090774.1361,101.0758,40.77710008621216
1619090774.15173,98.11593,40.79273009300232
1619090774.16735,94.68846,40.80835008621216
1619090774.18298,91.70416,40.82398009300232
1619090774.1986,89.81545,40.83960008621216
1619090774.21423,89.23893,40.85523009300232
1619090774.22985,89.69123,40.87085008621216
1619090774.24548,90.48341,40.88648009300232
1619090774.26111,90.80062,40.90211009979248
1619090774.27673,90.00446,40.91773009300232
1619090774.29236,87.7598,40.93336009979248
1619090774.30798,84.13412,40.94898009300232
1619090774.32361,79.4699,40.96461009979248
1619090774.33923,74.26742,40.98023009300232
1619090774.35486,69.03783,40.99586009979248
1619090774.37049,64.20326,41.01149010658264
1619090774.38611,59.99174,41.02711009979248
1619090774.40174,56.37891,41.04274010658264
1619090774.41736,53.13655,41.05836009979248
1619090774.43299,49.86737,41.07399010658264
1619090774.44861,46.2458,41.08961009979248
1619090774.46424,42.13715,41.10524010658264
1619090774.47987,37.67536,41.1208701133728
1619090774.49549,33.21899,41.13649010658264
1619090774.51112,29.11728,41.1521201133728
1619090774.52674,25.52773,41.16774010658264
1619090774.54237,22.33558,41.1833701133728
1619090774.55799,19.22335,41.19899010658264
1619090774.57362,15.81135,41.2146201133728
1619090774.58925,11.80573,41.230250120162964
1619090774.60487,7.054639,41.2458701133728
1619090774.6205,1.573996,41.261500120162964
1619090774.63612,-4.46758,41.2771201133728
1619090774.65175,-10.72848,41.292750120162964
1619090774.66737,-16.80579,41.3083701133728
1619090774.683,-22.33551,41.324000120162964
1619090774.69863,-27.21222,41.339630126953125
1619090774.71425,-31.69639,41.355250120162964
1619090774.72988,-36.34823,41.370880126953125
1619090774.7455,-41.82684,41.386500120162964
1619090774.76113,-48.52075,41.402130126953125
1619090774.77675,-56.32091,41.417750120162964
1619090774.79238,-64.65804,41.433380126953125
1619090774.80801,-72.73996,41.449010133743286
1619090774.82363,-79.92685,41.464630126953125
1619090774.83926,-85.97882,41.480260133743286
1619090774.85488,-91.22217,41.495880126953125
1619090774.87051,-96.38676,41.511510133743286
1619090774.88613,-102.4708,41.527130126953125
1619090774.90176,-110.4471,41.542760133743286
1619090774.91739,-120.8903,41.55839014053345
1619090774.93301,-133.5652,41.574010133743286
1619090774.94864,-147.1454,41.58964014053345
1619090774.96426,-159.1946,41.605260133743286
1619090774.97989,-166.6499,41.62089014053345
1619090774.99551,-166.633,41.636510133743286
1619090775.01114,-157.396,41.65214014053345
1619090775.02677,-139.0599,41.66777014732361
1619090775.04239,-113.6618,41.68339014053345
1619090775.05802,-84.61451,41.69902014732361
1619090775.07364,-55.69011,41.71464014053345
1619090775.08927,-29.98704,41.73027014732361
1619090775.10489,-9.236809,41.74589014053345
1619090775.12052,6.393435,41.76152014732361
1619090775.13615,17.93689,41.77714991569519
1619090775.15177,27.08743,41.79277014732361
1619090775.1674,35.45402,41.80839991569519
1619090775.18302,44.092,41.82402014732361
1619090775.19865,53.21812,41.83964991569519
1619090775.21427,62.21793,41.85527014732361
1619090775.2299,69.93993,41.87089991569519
1619090775.24553,75.18817,41.88652992248535
1619090775.26115,77.27314,41.90214991569519
1619090775.27678,76.34863,41.91777992248535
1619090775.2924,73.50801,41.93339991569519
1619090775.30803,70.39903,41.94902992248535
1619090775.32365,68.64268,41.96464991569519
1619090775.33928,69.26426,41.98027992248535
1619090775.35491,72.34563,41.99590992927551
1619090775.37053,77.08702,42.01152992248535
1619090775.38616,82.08592,42.02715992927551
1619090775.40178,85.77039,42.04277992248535
1619090775.41741,86.70551,42.05840992927551
