timestamp,value,norm_ts
1619376484.44195,-0.9411335,5.298360109329224
1619376484.45757,32.7849,5.3139801025390625
1619376484.4732,62.62239,5.329610109329224
1619376484.48883,87.06913,5.345240116119385
1619376484.50445,105.4781,5.360860109329224
1619376484.52008,117.7382,5.376490116119385
1619376484.5357,124.0694,5.392110109329224
1619376484.55133,125.0078,5.407740116119385
1619376484.56695,121.4263,5.423360109329224
1619376484.58258,114.5464,5.438990116119385
1619376484.59821,105.7997,5.454620122909546
1619376484.61383,96.54064,5.470240116119385
1619376484.62946,87.77148,5.485870122909546
1619376484.64508,79.97211,5.501490116119385
1619376484.66071,73.13146,5.517120122909546
1619376484.67633,66.93246,5.532740116119385
1619376484.69196,61.02196,5.548370122909546
1619376484.70759,55.22936,5.564000129699707
1619376484.72321,49.61445,5.579620122909546
1619376484.73884,44.37573,5.595250129699707
1619376484.75446,39.68979,5.610870122909546
1619376484.77009,35.49678,5.626500129699707
1619376484.78571,31.45189,5.642120122909546
1619376484.80134,26.95287,5.657750129699707
1619376484.81697,21.30772,5.673380136489868
1619376484.83259,13.97899,5.689000129699707
1619376484.84822,4.771812,5.704630136489868
1619376484.86384,-6.083046,5.720250129699707
1619376484.87947,-18.02028,5.735880136489868
1619376484.89509,-30.3334,5.751500129699707
1619376484.91072,-42.43446,5.767130136489868
1619376484.92635,-54.05119,5.782760143280029
1619376484.94197,-65.28861,5.798380136489868
1619376484.9576,-76.61529,5.814010143280029
1619376484.97322,-88.71991,5.829630136489868
1619376484.98885,-102.2898,5.845260143280029
1619376485.00447,-117.7601,5.860880136489868
1619376485.0201,-134.9407,5.876510143280029
1619376485.03573,-152.6911,5.892139911651611
1619376485.05135,-168.821,5.907760143280029
1619376485.06698,-180.3412,5.923389911651611
1619376485.0826,-184.1742,5.939010143280029
1619376485.09823,-178.0581,5.954639911651611
1619376485.11385,-161.3609,5.970260143280029
1619376485.12948,-135.3651,5.985889911651611
1619376485.14511,-103.005,6.0015199184417725
1619376485.16073,-67.99178,6.017139911651611
1619376485.17636,-33.8849,6.0327699184417725
1619376485.19198,-3.400185,6.048389911651611
1619376485.20761,21.81492,6.0640199184417725
1619376485.22323,41.02464,6.079639911651611
1619376485.23886,54.03581,6.0952699184417725
1619376485.25449,61.00621,6.110899925231934
1619376485.27011,62.39276,6.1265199184417725
1619376485.28574,59.0461,6.142149925231934
1619376485.30136,52.21827,6.1577699184417725
1619376485.31699,43.46429,6.173399925231934
1619376485.33261,34.31544,6.1890199184417725
1619376485.34824,25.98289,6.204649925231934
1619376485.36387,19.13683,6.220279932022095
1619376485.37949,13.87577,6.235899925231934
1619376485.39512,9.895874,6.251529932022095
1619376485.41074,6.763596,6.267149925231934
1619376485.42637,4.132133,6.282779932022095
1619376485.44199,1.876808,6.298399925231934
1619376485.45762,0.03903198,6.314029932022095
1619376485.47325,-1.317474,6.329659938812256
1619376485.48887,-2.303207,6.345279932022095
1619376485.5045,-3.322098,6.360909938812256
1619376485.52012,-5.025734,6.376529932022095
1619376485.53575,-8.177002,6.392159938812256
1619376485.55138,-13.35591,6.407789945602417
1619376485.567,-20.71307,6.423409938812256
1619376485.58263,-29.85561,6.439039945602417
1619376485.59825,-39.94678,6.454659938812256
1619376485.61388,-49.98611,6.470289945602417
1619376485.6295,-59.23566,6.485909938812256
1619376485.64513,-67.45804,6.501539945602417
1619376485.66076,-75.03453,6.517169952392578
1619376485.67638,-82.78041,6.532789945602417
1619376485.69201,-91.68855,6.548419952392578
1619376485.70763,-102.5892,6.564039945602417
1619376485.72326,-115.8543,6.579669952392578
1619376485.73888,-131.1091,6.595289945602417
1619376485.75451,-146.968,6.610919952392578
1619376485.77014,-161.037,6.626549959182739
1619376485.78576,-170.1846,6.642169952392578
1619376485.80139,-171.2814,6.657799959182739
1619376485.81701,-162.1064,6.673419952392578
1619376485.83264,-142.1859,6.689049959182739
1619376485.84826,-113.0455,6.704669952392578
1619376485.86389,-77.80817,6.720299959182739
1619376485.87952,-40.2588,6.7359299659729
1619376485.89514,-3.837823,6.751549959182739
1619376485.91077,29.0364,6.7671799659729
1619376485.92639,57.02779,6.782799959182739
1619376485.94202,79.57623,6.7984299659729
1619376485.95764,96.45368,6.814049959182739
1619376485.97327,107.5573,6.8296799659729
1619376485.9889,113.0306,6.8453099727630615
1619376486.00452,113.446,6.8609299659729
1619376486.02015,109.9429,6.8765599727630615
1619376486.03577,104.0395,6.8921799659729
1619376486.0514,97.25995,6.9078099727630615
1619376486.06702,90.75153,6.9234299659729
1619376486.08265,85.03394,6.9390599727630615
1619376486.09828,80.12612,6.954689979553223
1619376486.1139,75.80363,6.9703099727630615
1619376486.12953,71.91412,6.985939979553223
1619376486.14515,68.55357,7.0015599727630615
1619376486.16078,66.02224,7.017189979553223
1619376486.1764,64.55858,7.0328099727630615
1619376486.19203,64.11137,7.048439979553223
1619376486.20766,64.1937,7.064069986343384
1619376486.22328,63.95156,7.079689979553223
1619376486.23891,62.406,7.095319986343384
1619376486.25453,58.80768,7.110939979553223
1619376486.27016,52.89709,7.126569986343384
1619376486.28578,45.01091,7.142189979553223
1619376486.30141,35.98065,7.157819986343384
1619376486.31704,26.80774,7.173449993133545
1619376486.33266,18.29369,7.189069986343384
1619376486.34829,10.70096,7.204699993133545
1619376486.36391,3.677002,7.220319986343384
1619376486.37954,-3.65004,7.235949993133545
1619376486.39516,-12.3764,7.251569986343384
1619376486.41079,-23.49677,7.267199993133545
1619376486.42642,-37.64102,7.282829999923706
1619376486.44204,-54.82707,7.298449993133545
1619376486.45767,-74.31847,7.314079999923706
1619376486.47329,-94.47437,7.329699993133545
1619376486.48892,-112.7468,7.345329999923706
1619376486.50454,-125.9807,7.360949993133545
1619376486.52017,-131.0727,7.376579999923706
1619376486.5358,-125.7761,7.392210006713867
1619376486.55142,-109.4992,7.407829999923706
1619376486.56705,-83.56807,7.423460006713867
1619376486.58267,-50.95158,7.439079999923706
1619376486.5983,-15.42413,7.454710006713867
1619376486.61392,19.40463,7.470329999923706
1619376486.62955,50.84094,7.485960006713867
1619376486.64518,77.31343,7.501590013504028
1619376486.6608,98.22723,7.517210006713867
1619376486.67643,113.5542,7.532840013504028
1619376486.69205,123.4913,7.548460006713867
1619376486.70768,128.3714,7.564090013504028
1619376486.7233,128.7289,7.579710006713867
1619376486.73893,125.4208,7.595340013504028
1619376486.75456,119.6381,7.6109700202941895
1619376486.77018,112.7102,7.626590013504028
1619376486.78581,105.8271,7.6422200202941895
1619376486.80143,99.78429,7.657840013504028
1619376486.81706,94.89345,7.6734700202941895
1619376486.83268,91.04073,7.689090013504028
1619376486.84831,87.94702,7.7047200202941895
1619376486.86394,85.40936,7.720350027084351
1619376486.87956,83.3929,7.7359700202941895
1619376486.89519,82.03052,7.751600027084351
1619376486.91081,81.39798,7.7672200202941895
1619376486.92644,81.30569,7.782850027084351
1619376486.94206,81.17671,7.7984700202941895
1619376486.95769,80.10162,7.814100027084351
1619376486.97332,77.0804,7.829730033874512
1619376486.98894,71.38991,7.845350027084351
1619376487.00457,62.8877,7.860980033874512
1619376487.02019,52.12296,7.876600027084351
1619376487.03582,40.17412,7.892230033874512
1619376487.05144,28.32045,7.907850027084351
1619376487.06707,17.56403,7.923480033874512
1619376487.0827,8.314255,7.939110040664673
1619376487.09832,0.2528229,7.954730033874512
1619376487.11395,-7.543579,7.970360040664673
1619376487.12957,-16.27008,7.985980033874512
1619376487.1452,-27.05881,8.001610040664673
1619376487.16082,-40.62099,8.017230033874512
1619376487.17645,-56.98499,8.032860040664673
1619376487.19208,-75.27654,8.048490047454834
1619376487.2077,-93.61908,8.064110040664673
1619376487.22333,-109.272,8.079740047454834
1619376487.23895,-119.0753,8.095360040664673
1619376487.25458,-120.2282,8.110990047454834
1619376487.2702,-111.1175,8.126610040664673
1619376487.28583,-91.91032,8.142240047454834
1619376487.30146,-64.62152,8.157870054244995
1619376487.31708,-32.58208,8.173490047454834
1619376487.33271,0.4738007,8.189120054244995
1619376487.34833,31.28767,8.204740047454834
1619376487.36396,57.62492,8.220370054244995
1619376487.37958,78.34842,8.235990047454834
1619376487.39521,93.16696,8.251620054244995
1619376487.41084,102.3054,8.267250061035156
1619376487.42646,106.3055,8.282870054244995
1619376487.44209,106.0141,8.298500061035156
1619376487.45771,102.5529,8.314120054244995
1619376487.47334,97.20847,8.329750061035156
1619376487.48896,91.21167,8.345370054244995
1619376487.50459,85.40505,8.361000061035156
1619376487.52022,80.10634,8.376630067825317
1619376487.53584,75.1562,8.392250061035156
1619376487.55147,70.16673,8.407880067825317
1619376487.56709,64.82936,8.423500061035156
1619376487.58272,59.14031,8.439130067825317
1619376487.59834,53.41827,8.454750061035156
1619376487.61397,48.08086,8.470380067825317
1619376487.6296,43.45871,8.486010074615479
1619376487.64522,39.53691,8.501630067825317
1619376487.66085,35.91885,8.517260074615479
1619376487.67647,31.91364,8.532880067825317
1619376487.6921,26.77181,8.548510074615479
1619376487.70773,19.91151,8.56414008140564
1619376487.72335,11.13517,8.579760074615479
1619376487.73898,0.7327118,8.59539008140564
1619376487.7546,-10.63696,8.611010074615479
1619376487.77023,-22.13045,8.62664008140564
1619376487.78585,-33.08951,8.642260074615479
1619376487.80148,-43.28277,8.65789008140564
1619376487.81711,-53.0622,8.6735200881958
1619376487.83273,-63.2672,8.68914008140564
1619376487.84836,-74.94769,8.7047700881958
1619376487.86398,-88.98689,8.72039008140564
1619376487.87961,-105.6815,8.7360200881958
1619376487.89523,-124.4198,8.75164008140564
1619376487.91086,-143.5174,8.7672700881958
1619376487.92649,-160.3508,8.782900094985962
1619376487.94211,-171.8142,8.7985200881958
1619376487.95774,-175.0782,8.814150094985962
1619376487.97336,-168.3953,8.8297700881958
1619376487.98899,-151.7141,8.845400094985962
1619376488.00461,-126.7698,8.8610200881958
1619376488.02024,-96.64983,8.876650094985962
1619376488.03587,-64.96867,8.892280101776123
1619376488.05149,-34.97778,8.907900094985962
1619376488.06712,-9.000175,8.923530101776123
1619376488.08274,11.742,8.939150094985962
1619376488.09837,26.89755,8.954780101776123
1619376488.11399,36.59994,8.970400094985962
1619376488.12962,41.2548,8.986030101776123
1619376488.14525,41.43148,9.001660108566284
1619376488.16087,37.94582,9.017280101776123
1619376488.1765,31.83826,9.032910108566284
1619376488.19212,24.28867,9.048530101776123
1619376488.20775,16.375,9.064160108566284
1619376488.22337,8.834297,9.079780101776123
1619376488.239,1.975273,9.095410108566284
1619376488.25463,-4.239571,9.111040115356445
1619376488.27025,-9.956535,9.126660108566284
1619376488.28588,-15.19225,9.142290115356445
1619376488.3015,-19.70142,9.157910108566284
1619376488.31713,-23.08581,9.173540115356445
1619376488.33275,-25.08459,9.189160108566284
1619376488.34838,-25.88905,9.204790115356445
1619376488.36401,-26.29209,9.220420122146606
1619376488.37963,-27.51801,9.236040115356445
1619376488.39526,-30.78732,9.251670122146606
1619376488.41088,-36.7963,9.267290115356445
1619376488.42651,-45.37664,9.282920122146606
1619376488.44213,-55.52948,9.298540115356445
1619376488.45776,-65.82536,9.314170122146606
1619376488.47339,-74.92854,9.329800128936768
1619376488.48901,-82.15424,9.345420122146606
1619376488.50464,-87.66767,9.361050128936768
1619376488.52026,-92.38833,9.376670122146606
1619376488.53589,-97.69505,9.392300128936768
1619376488.55151,-104.9632,9.407920122146606
1619376488.56714,-115.1854,9.423550128936768
1619376488.58277,-128.5776,9.439180135726929
1619376488.59839,-144.3124,9.454800128936768
1619376488.61402,-160.3767,9.470430135726929
1619376488.62964,-173.7655,9.486050128936768
1619376488.64527,-181.051,9.501680135726929
1619376488.66089,-179.2143,9.517300128936768
1619376488.67652,-166.5473,9.532930135726929
1619376488.69215,-143.2128,9.54856014251709
1619376488.70777,-111.2425,9.564180135726929
1619376488.7234,-73.95807,9.57981014251709
1619376488.73902,-35.08584,9.595430135726929
1619376488.75465,2.133873,9.61106014251709
1619376488.77027,35.38447,9.626680135726929
1619376488.7859,63.3303,9.64231014251709
1619376488.80153,85.37161,9.657939910888672
1619376488.81715,101.2968,9.67356014251709
1619376488.83278,111.136,9.689189910888672
1619376488.8484,115.2352,9.70481014251709
1619376488.86403,114.4108,9.720439910888672
1619376488.87965,109.9902,9.73606014251709
1619376488.89528,103.6328,9.751689910888672
1619376488.91091,96.94221,9.767319917678833
1619376488.92653,91.02982,9.782939910888672
1619376488.94216,86.32634,9.798569917678833
1619376488.95778,82.60748,9.814189910888672
1619376488.97341,79.36333,9.829819917678833
1619376488.98903,76.17948,9.845439910888672
1619376489.00466,72.98907,9.861069917678833
1619376489.02029,70.06618,9.876699924468994
1619376489.03591,67.77911,9.892319917678833
1619376489.05154,66.29649,9.907949924468994
1619376489.06716,65.43173,9.923569917678833
1619376489.08279,64.60214,9.939199924468994
1619376489.09841,62.98225,9.954819917678833
1619376489.11404,59.80254,9.970449924468994
1619376489.12967,54.56722,9.986079931259155
1619376489.14529,47.22848,10.001699924468994
1619376489.16092,38.17834,10.017329931259155
1619376489.17654,28.10593,10.032949924468994
1619376489.19217,17.74867,10.048579931259155
1619376489.20779,7.570068,10.064199924468994
1619376489.22342,-2.361954,10.079829931259155
1619376489.23905,-12.45741,10.095459938049316
1619376489.25467,-23.42752,10.111079931259155
1619376489.2703,-36.07672,10.126709938049316
1619376489.28592,-50.97957,10.142329931259155
1619376489.30155,-68.10609,10.157959938049316
1619376489.31717,-86.50314,10.173579931259155
1619376489.3328,-104.14,10.189209938049316
1619376489.34843,-118.0524,10.204839944839478
1619376489.36405,-124.9269,10.220459938049316
1619376489.37968,-122.0402,10.236089944839478
1619376489.3953,-108.1081,10.251709938049316
1619376489.41093,-83.82794,10.267339944839478
1619376489.42655,-51.69753,10.282959938049316
1619376489.44218,-15.28841,10.298589944839478
1619376489.45781,21.73465,10.314219951629639
1619376489.47343,56.41823,10.329839944839478
1619376489.48906,86.82808,10.345469951629639
1619376489.50468,111.8971,10.361089944839478
1619376489.52031,131.112,10.376719951629639
1619376489.53593,144.2206,10.392339944839478
1619376489.55156,151.193,10.407969951629639
1619376489.56719,152.4052,10.4235999584198
1619376489.58281,148.7982,10.439219951629639
1619376489.59844,141.8432,10.4548499584198
1619376489.61406,133.3366,10.470469951629639
1619376489.62969,124.9548,10.4860999584198
1619376489.64531,117.861,10.501719951629639
1619376489.66094,112.4572,10.5173499584198
1619376489.67657,108.3878,10.532979965209961
1619376489.69219,104.8568,10.5485999584198
1619376489.70782,101.0192,10.564229965209961
1619376489.72344,96.37987,10.5798499584198
1619376489.73907,90.9102,10.595479965209961
1619376489.75469,84.92406,10.6110999584198
1619376489.77032,78.76001,10.626729965209961
1619376489.78595,72.49606,10.642359972000122
1619376489.80157,65.84103,10.657979965209961
1619376489.8172,58.26059,10.673609972000122
1619376489.83282,49.24724,10.689229965209961
1619376489.84845,38.56198,10.704859972000122
1619376489.86407,26.35471,10.720479965209961
1619376489.8797,13.02023,10.736109972000122
1619376489.89533,-1.001984,10.751739978790283
1619376489.91095,-15.41536,10.767359972000122
1619376489.92658,-30.11057,10.782989978790283
1619376489.9422,-45.1071,10.798609972000122
1619376489.95783,-60.45331,10.814239978790283
1619376489.97345,-76.20692,10.829859972000122
1619376489.98908,-92.45145,10.845489978790283
1619376490.00471,-109.2621,10.861119985580444
1619376490.02033,-126.513,10.876739978790283
1619376490.03596,-143.519,10.892369985580444
1619376490.05158,-158.7563,10.907989978790283
1619376490.06721,-169.8498,10.923619985580444
1619376490.08283,-174.037,10.939239978790283
1619376490.09846,-169.0215,10.954869985580444
1619376490.11409,-153.8313,10.970499992370605
1619376490.12971,-129.3179,10.986119985580444
1619376490.14534,-97.9847,11.001749992370605
1619376490.16096,-63.24255,11.017369985580444
1619376490.17659,-28.45183,11.032999992370605
1619376490.19221,3.816071,11.048619985580444
1619376490.20784,32.0327,11.064249992370605
1619376490.22347,55.49649,11.079879999160767
1619376490.23909,73.91205,11.095499992370605
1619376490.25472,87.09212,11.111129999160767
1619376490.27034,94.93826,11.126749992370605
1619376490.28597,97.64639,11.142379999160767
1619376490.30159,95.94648,11.157999992370605
1619376490.31722,91.16303,11.173629999160767
1619376490.33285,84.96078,11.189260005950928
1619376490.34847,78.9175,11.204879999160767
1619376490.3641,74.09741,11.220510005950928
1619376490.37972,70.82435,11.236129999160767
1619376490.39535,68.75821,11.251760005950928
1619376490.41098,67.25668,11.267390012741089
1619376490.4266,65.73522,11.283010005950928
1619376490.44223,63.93861,11.298640012741089
1619376490.45785,61.93736,11.314260005950928
1619376490.47348,59.87997,11.329890012741089
1619376490.4891,57.67734,11.345510005950928
1619376490.50473,54.83688,11.361140012741089
1619376490.52036,50.54554,11.37677001953125
1619376490.53598,44.02261,11.392390012741089
1619376490.55161,34.91123,11.40802001953125
1619376490.56723,23.49165,11.423640012741089
1619376490.58286,10.62305,11.43927001953125
1619376490.59848,-2.659401,11.454890012741089
1619376490.61411,-15.58483,11.47052001953125
1619376490.62974,-27.93224,11.486150026321411
1619376490.64536,-40.01781,11.50177001953125
1619376490.66099,-52.46537,11.517400026321411
1619376490.67661,-65.86195,11.53302001953125
1619376490.69224,-80.53156,11.548650026321411
1619376490.70786,-96.46585,11.56427001953125
1619376490.72349,-113.1833,11.579900026321411
1619376490.73912,-129.6418,11.595530033111572
1619376490.75474,-144.0947,11.611150026321411
1619376490.77037,-154.1444,11.626780033111572
1619376490.78599,-157.1407,11.642400026321411
1619376490.80162,-150.9766,11.658030033111572
1619376490.81724,-134.8422,11.673650026321411
1619376490.83287,-109.7488,11.689280033111572
1619376490.8485,-78.38541,11.704910039901733
1619376490.86412,-44.32514,11.720530033111572
1619376490.87975,-11.03785,11.736160039901733
1619376490.89537,18.91916,11.751780033111572
1619376490.911,44.1435,11.767410039901733
1619376490.92662,64.15091,11.783030033111572
1619376490.94225,78.86748,11.798660039901733
1619376490.95788,88.284,11.814290046691895
1619376490.9735,92.43651,11.829910039901733
1619376490.98913,91.58981,11.845540046691895
1619376491.00475,86.51486,11.861160039901733
1619376491.02038,78.48948,11.876790046691895
1619376491.036,69.05919,11.892410039901733
1619376491.05163,59.64759,11.908040046691895
1619376491.06726,51.17827,11.923670053482056
1619376491.08288,43.91168,11.939290046691895
1619376491.09851,37.59515,11.954920053482056
1619376491.11413,31.75332,11.970540046691895
1619376491.12976,26.03255,11.986170053482056
1619376491.14538,20.36651,12.001790046691895
1619376491.16101,14.94571,12.017420053482056
1619376491.17664,9.988522,12.033050060272217
1619376491.19226,5.478619,12.048670053482056
1619376491.20789,1.034302,12.064300060272217
1619376491.22351,-4.047058,12.079920053482056
1619376491.23914,-10.46953,12.095550060272217
1619376491.25476,-18.63808,12.111170053482056
1619376491.27039,-28.39097,12.126800060272217
1619376491.28602,-39.06242,12.142430067062378
1619376491.30164,-49.75098,12.158050060272217
1619376491.31727,-59.75339,12.173680067062378
1619376491.33289,-68.87345,12.189300060272217
1619376491.34852,-77.60933,12.204930067062378
1619376491.36414,-86.95651,12.220550060272217
1619376491.37977,-98.09883,12.236180067062378
1619376491.3954,-111.9225,12.251810073852539
1619376491.41102,-128.5702,12.267430067062378
1619376491.42665,-147.1346,12.283060073852539
1619376491.44227,-165.5609,12.298680067062378
1619376491.4579,-180.8953,12.314310073852539
1619376491.47352,-189.8288,12.329930067062378
1619376491.48915,-189.4834,12.345560073852539
1619376491.50478,-178.1626,12.3611900806427
1619376491.5204,-155.8479,12.376810073852539
1619376491.53603,-124.2426,12.3924400806427
1619376491.55165,-86.36915,12.408060073852539
1619376491.56728,-45.85352,12.4236900806427
1619376491.5829,-6.214493,12.439310073852539
1619376491.59853,29.65993,12.4549400806427
1619376491.61416,59.76472,12.470570087432861
1619376491.62978,82.94207,12.4861900806427
1619376491.64541,98.75922,12.501820087432861
1619376491.66103,107.3839,12.5174400806427
1619376491.67666,109.5517,12.533070087432861
1619376491.69228,106.5031,12.5486900806427
1619376491.70791,99.91386,12.564320087432861
1619376491.72354,91.59959,12.579950094223022
1619376491.73916,83.16402,12.595570087432861
1619376491.75479,75.64582,12.611200094223022
1619376491.77041,69.33947,12.626820087432861
1619376491.78604,63.88654,12.642450094223022
1619376491.80166,58.63264,12.658070087432861
1619376491.81729,53.07947,12.673700094223022
1619376491.83292,47.16539,12.689330101013184
1619376491.84854,41.29356,12.704950094223022
1619376491.86417,36.05324,12.720580101013184
1619376491.87979,31.79462,12.736200094223022
1619376491.89542,28.28358,12.751830101013184
1619376491.91104,24.7366,12.767450094223022
1619376491.92667,20.06839,12.783080101013184
1619376491.9423,13.38095,12.798710107803345
1619376491.95792,4.428314,12.814330101013184
1619376491.97355,-6.253677,12.829960107803345
1619376491.98917,-17.47484,12.845580101013184
1619376492.0048,-27.88115,12.861210107803345
1619376492.02042,-36.44659,12.876830101013184
1619376492.03605,-42.88071,12.892460107803345
1619376492.05168,-47.69894,12.908090114593506
1619376492.0673,-52.07805,12.923710107803345
1619376492.08293,-57.48199,12.939340114593506
1619376492.09855,-65.24475,12.954960107803345
1619376492.11418,-76.10222,12.970590114593506
1619376492.1298,-89.77467,12.986210107803345
1619376492.14543,-104.5934,13.001840114593506
1619376492.16106,-117.5136,13.017470121383667
1619376492.17668,-124.6949,13.033090114593506
1619376492.19231,-122.4991,13.048720121383667
1619376492.20793,-108.7769,13.064340114593506
1619376492.22356,-83.70735,13.079970121383667
1619376492.23918,-49.92456,13.095590114593506
1619376492.25481,-11.63362,13.111220121383667
1619376492.27044,26.74754,13.126850128173828
1619376492.28606,61.87334,13.142470121383667
1619376492.30169,92.07431,13.158100128173828
1619376492.31731,117.127,13.173720121383667
1619376492.33294,137.4994,13.189350128173828
1619376492.34856,153.5416,13.204970121383667
1619376492.36419,165.179,13.220600128173828
1619376492.37982,172.0992,13.23623013496399
1619376492.39544,174.1661,13.251850128173828
1619376492.41107,171.8336,13.26748013496399
1619376492.42669,166.0968,13.283100128173828
1619376492.44232,158.2366,13.29873013496399
1619376492.45794,149.3592,13.314350128173828
1619376492.47357,140.1174,13.32998013496399
1619376492.4892,130.6852,13.34561014175415
1619376492.50482,121.0156,13.36123013496399
1619376492.52045,111.1474,13.37686014175415
1619376492.53607,101.4031,13.39248013496399
1619376492.5517,92.40103,13.40811014175415
1619376492.56733,84.75818,13.423739910125732
1619376492.58295,78.78265,13.43936014175415
1619376492.59858,74.19101,13.454989910125732
1619376492.6142,70.1174,13.47061014175415
1619376492.62983,65.29189,13.486239910125732
1619376492.64545,58.50865,13.50186014175415
1619376492.66108,49.01057,13.517489910125732
1619376492.67671,36.80978,13.533119916915894
1619376492.69233,22.68684,13.548739910125732
1619376492.70796,7.904968,13.564369916915894
1619376492.72358,-6.205872,13.579989910125732
1619376492.73921,-18.75183,13.595619916915894
1619376492.75483,-29.55905,13.611239910125732
1619376492.77046,-39.20992,13.626869916915894
1619376492.78609,-48.8197,13.642499923706055
1619376492.80171,-59.67029,13.658119916915894
1619376492.81734,-72.80293,13.673749923706055
1619376492.83296,-88.61432,13.689369916915894
1619376492.84859,-106.5676,13.704999923706055
1619376492.86421,-125.0318,13.720619916915894
1619376492.87984,-141.3684,13.736249923706055
1619376492.89547,-152.3544,13.751879930496216
1619376492.91109,-154.9021,13.767499923706055
1619376492.92672,-146.935,13.783129930496216
1619376492.94234,-128.0831,13.798749923706055
1619376492.95797,-99.90892,13.814379930496216
1619376492.97359,-65.4827,13.829999923706055
1619376492.98922,-28.55565,13.845629930496216
1619376493.00485,7.453705,13.861259937286377
1619376493.02047,40.06909,13.876879930496216
1619376493.0361,67.92863,13.892509937286377
1619376493.05172,90.49171,13.908129930496216
1619376493.06735,107.6252,13.923759937286377
1619376493.08297,119.3224,13.939379930496216
1619376493.0986,125.7033,13.955009937286377
1619376493.11423,127.1823,13.970639944076538
1619376493.12985,124.5753,13.986259937286377
1619376493.14548,119.0746,14.001889944076538
1619376493.1611,111.9482,14.017509937286377
1619376493.17673,104.2189,14.033139944076538
1619376493.19235,96.43578,14.048759937286377
1619376493.20798,88.71322,14.064389944076538
1619376493.22361,80.92487,14.0800199508667
1619376493.23923,73.02738,14.095639944076538
1619376493.25486,65.25264,14.1112699508667
1619376493.27048,58.07905,14.126889944076538
1619376493.28611,52.02952,14.1425199508667
1619376493.30173,47.34515,14.158139944076538
1619376493.31736,43.75224,14.1737699508667
1619376493.33299,40.40231,14.18939995765686
1619376493.34861,36.08434,14.2050199508667
1619376493.36424,29.58615,14.22064995765686
1619376493.37986,20.1617,14.2362699508667
1619376493.39549,7.828724,14.25189995765686
1619376493.41111,-6.602802,14.2675199508667
1619376493.42674,-21.77526,14.28314995765686
1619376493.44237,-36.34105,14.298779964447021
1619376493.45799,-49.45118,14.31439995765686
1619376493.47362,-61.09751,14.330029964447021
1619376493.48924,-72.05939,14.34564995765686
1619376493.50487,-83.60028,14.361279964447021
1619376493.52049,-96.98853,14.37689995765686
1619376493.53612,-113.043,14.392529964447021
1619376493.55175,-131.7786,14.408159971237183
1619376493.56737,-152.2164,14.423779964447021
1619376493.583,-172.3318,14.439409971237183
1619376493.59862,-189.239,14.455029964447021
1619376493.61425,-199.6755,14.470659971237183
1619376493.62987,-200.7267,14.486279964447021
1619376493.6455,-190.6876,14.501909971237183
1619376493.66113,-169.6862,14.517539978027344
1619376493.67675,-139.7991,14.533159971237183
1619376493.69238,-104.5313,14.548789978027344
1619376493.708,-67.92169,14.564409971237183
1619376493.72363,-33.56436,14.580039978027344
1619376493.73925,-3.998051,14.595659971237183
1619376493.75488,19.38712,14.611289978027344
1619376493.77051,36.1412,14.626919984817505
1619376493.78613,46.39404,14.642539978027344
1619376493.80176,50.65692,14.658169984817505
1619376493.81738,49.85234,14.673789978027344
1619376493.83301,45.30653,14.689419984817505
1619376493.84863,38.62623,14.705039978027344
1619376493.86426,31.41628,14.720669984817505
1619376493.87989,24.88434,14.736299991607666
1619376493.89551,19.63052,14.751919984817505
1619376493.91114,15.59332,14.767549991607666
1619376493.92676,12.33094,14.783169984817505
1619376493.94239,9.375845,14.798799991607666
1619376493.95801,6.551447,14.814419984817505
1619376493.97364,4.130169,14.830049991607666
1619376493.98927,2.698517,14.845679998397827
1619376494.00489,2.89459,14.861299991607666
1619376494.02052,5.074606,14.876929998397827
1619376494.03614,9.000477,14.892549991607666
1619376494.05177,13.77929,14.908179998397827
1619376494.06739,18.01,14.923799991607666
1619376494.08302,20.19847,14.939429998397827
1619376494.09865,19.2444,14.955060005187988
1619376494.11427,14.81225,14.970679998397827
1619376494.1299,7.423666,14.986310005187988
1619376494.14552,-1.769405,15.001929998397827
1619376494.16115,-11.49072,15.017560005187988
1619376494.17677,-20.83638,15.033179998397827
1619376494.1924,-29.56735,15.048810005187988
1619376494.20803,-38.19698,15.06444001197815
1619376494.22365,-47.71835,15.080060005187988
1619376494.23928,-59.22205,15.09569001197815
1619376494.2549,-73.34519,15.111310005187988
1619376494.27053,-89.78488,15.12694001197815
1619376494.28615,-106.9226,15.142560005187988
1619376494.30178,-121.8856,15.15819001197815
1619376494.31741,-131.0171,15.17382001876831
1619376494.33303,-130.8335,15.18944001197815
1619376494.34866,-119.1135,15.20507001876831
1619376494.36428,-95.6964,15.22069001197815
1619376494.37991,-62.62243,15.23632001876831
1619376494.39553,-23.54761,15.25194001197815
1619376494.41116,17.31518,15.26757001876831
1619376494.42679,56.2408,15.283200025558472
1619376494.44241,90.60428,15.29882001876831
1619376494.45804,118.9221,15.314450025558472
1619376494.47366,140.5588,15.33007001876831
1619376494.48929,155.3231,15.345700025558472
1619376494.50491,163.3394,15.36132001876831
1619376494.52054,165.1162,15.376950025558472
1619376494.53617,161.6507,15.392580032348633
1619376494.55179,154.3651,15.408200025558472
1619376494.56742,144.8452,15.423830032348633
1619376494.58304,134.4469,15.439450025558472
1619376494.59867,124.0005,15.455080032348633
1619376494.61429,113.7447,15.470700025558472
1619376494.62992,103.4987,15.486330032348633
1619376494.64555,92.94608,15.501960039138794
1619376494.66117,81.85175,15.517580032348633
1619376494.6768,70.25075,15.533210039138794
1619376494.69242,58.31045,15.548830032348633
1619376494.70805,46.26337,15.564460039138794
1619376494.72367,34.23692,15.580080032348633
1619376494.7393,22.18272,15.595710039138794
1619376494.75493,9.958381,15.611340045928955
1619376494.77055,-2.572614,15.626960039138794
1619376494.78618,-15.29885,15.642590045928955
1619376494.8018,-27.76156,15.658210039138794
1619376494.81743,-39.17661,15.673840045928955
1619376494.83306,-48.67482,15.689470052719116
1619376494.84868,-55.67098,15.705090045928955
1619376494.86431,-60.25246,15.720720052719116
1619376494.87993,-63.31522,15.736340045928955
1619376494.89556,-66.45602,15.751970052719116
1619376494.91118,-71.52991,15.767590045928955
1619376494.92681,-80.15273,15.783220052719116
1619376494.94244,-93.25671,15.798850059509277
1619376494.95806,-110.886,15.814470052719116
1619376494.97369,-132.1763,15.830100059509277
1619376494.98931,-155.4214,15.845720052719116
1619376495.00494,-178.2532,15.861350059509277
1619376495.02056,-197.886,15.876970052719116
1619376495.03619,-211.5403,15.892600059509277
1619376495.05182,-217.0213,15.908230066299438
1619376495.06744,-213.2844,15.923850059509277
1619376495.08307,-200.8498,15.939480066299438
1619376495.09869,-181.7303,15.955100059509277
1619376495.11432,-158.9722,15.970730066299438
1619376495.12994,-135.7431,15.986350059509277
1619376495.14557,-114.4852,16.00198006629944
1619376495.1612,-96.30743,16.0176100730896
1619376495.17682,-80.81896,16.03323006629944
1619376495.19245,-66.57014,16.0488600730896
1619376495.20807,-51.82193,16.06448006629944
1619376495.2237,-35.36967,16.0801100730896
1619376495.23932,-17.16182,16.09573006629944
1619376495.25495,1.562386,16.1113600730896
1619376495.27058,18.63116,16.12699007987976
1619376495.2862,31.60163,16.1426100730896
1619376495.30183,38.44157,16.15824007987976
1619376495.31745,37.92237,16.1738600730896
1619376495.33308,29.71561,16.18949007987976
1619376495.3487,14.39156,16.2051100730896
1619376495.36433,-6.479836,16.22074007987976
1619376495.37996,-30.14249,16.236370086669922
1619376495.39558,-52.56142,16.25199007987976
1619376495.41121,-68.88171,16.267620086669922
1619376495.42683,-74.60147,16.28324007987976
1619376495.44246,-67.1853,16.298870086669922
1619376495.45808,-47.48125,16.31449007987976
1619376495.47371,-19.99644,16.330120086669922
1619376495.48934,8.266846,16.345750093460083
1619376495.50496,30.17836,16.361370086669922
1619376495.52059,40.98599,16.377000093460083
1619376495.53621,39.90498,16.392620086669922
1619376495.55184,30.08643,16.408250093460083
1619376495.56746,16.97217,16.423870086669922
1619376495.58309,5.948807,16.439500093460083
1619376495.59872,0.3271027,16.455130100250244
1619376495.61434,0.5211334,16.470750093460083
1619376495.62997,4.519119,16.486380100250244
1619376495.64559,9.230133,16.502000093460083
1619376495.66122,11.80029,16.517630100250244
1619376495.67684,10.49811,16.533250093460083
1619376495.69247,4.867584,16.548880100250244
1619376495.7081,-4.544861,16.564510107040405
1619376495.72372,-16.43274,16.580130100250244
1619376495.73935,-28.86163,16.595760107040405
1619376495.75497,-39.32675,16.611380100250244
1619376495.7706,-45.078,16.627010107040405
1619376495.78622,-43.7406,16.642630100250244
1619376495.80185,-34.05511,16.658260107040405
1619376495.81748,-16.42004,16.673890113830566
1619376495.8331,7.218567,16.689510107040405
1619376495.84873,33.97592,16.705140113830566
1619376495.86435,60.95117,16.720760107040405
1619376495.87998,85.95691,16.736390113830566
1619376495.8956,107.6862,16.752010107040405
1619376495.91123,125.4733,16.767640113830566
1619376495.92686,138.8985,16.783270120620728
1619376495.94248,147.5813,16.798890113830566
1619376495.95811,151.2684,16.814520120620728
1619376495.97373,150.1522,16.830140113830566
1619376495.98936,145.0538,16.845770120620728
1619376496.00498,137.3918,16.861390113830566
1619376496.02061,128.8524,16.877020120620728
1619376496.03624,120.8887,16.89265012741089
1619376496.05186,114.455,16.908270120620728
1619376496.06749,109.9061,16.92390012741089
1619376496.08311,107.1832,16.939520120620728
1619376496.09874,106.0209,16.95515012741089
1619376496.11436,106.168,16.970770120620728
1619376496.12999,107.3996,16.98640012741089
1619376496.14562,109.4538,17.00203013420105
1619376496.16124,111.8619,17.01765012741089
1619376496.17687,113.9221,17.03328013420105
1619376496.19249,114.7372,17.04890012741089
1619376496.20812,113.4373,17.06453013420105
1619376496.22374,109.5023,17.08015012741089
1619376496.23937,102.9254,17.09578013420105
1619376496.255,94.27731,17.11141014099121
1619376496.27062,84.47476,17.12703013420105
1619376496.28625,74.4155,17.14266014099121
1619376496.30187,64.66046,17.15828013420105
1619376496.3175,55.22015,17.17391014099121
1619376496.33312,45.63113,17.18953013420105
1619376496.34875,35.11307,17.20516014099121
1619376496.36438,22.83557,17.220789909362793
1619376496.38,8.125183,17.23641014099121
1619376496.39563,-9.245728,17.252039909362793
1619376496.41125,-28.80045,17.26766014099121
1619376496.42688,-49.02539,17.283289909362793
1619376496.4425,-67.30722,17.29891014099121
1619376496.45813,-80.25754,17.314539909362793
1619376496.47376,-84.4642,17.330169916152954
1619376496.48938,-77.50137,17.345789909362793
1619376496.50501,-58.79492,17.361419916152954
1619376496.52063,-29.89972,17.377039909362793
1619376496.53626,5.879364,17.392669916152954
1619376496.55188,44.41254,17.408289909362793
1619376496.56751,81.7536,17.423919916152954
1619376496.58314,114.8554,17.439549922943115
1619376496.59876,141.7873,17.455169916152954
1619376496.61439,161.5147,17.470799922943115
1619376496.63001,173.5388,17.486419916152954
1619376496.64564,177.679,17.502049922943115
1619376496.66126,174.0239,17.517669916152954
1619376496.67689,163.148,17.533299922943115
1619376496.69252,146.2453,17.548929929733276
1619376496.70814,125.1158,17.564549922943115
1619376496.72377,101.906,17.580179929733276
1619376496.73939,78.63965,17.595799922943115
1619376496.75502,56.83578,17.611429929733276
1619376496.77064,37.28738,17.627049922943115
1619376496.78627,20.22476,17.642679929733276
1619376496.8019,5.639771,17.658309936523438
1619376496.81752,-6.437927,17.673929929733276
1619376496.83315,-15.96259,17.689559936523438
1619376496.84877,-23.11264,17.705179929733276
1619376496.8644,-28.60861,17.720809936523438
1619376496.88002,-33.81552,17.736429929733276
1619376496.89565,-40.3125,17.752059936523438
1619376496.91128,-49.34424,17.7676899433136
1619376496.9269,-61.16476,17.783309936523438
1619376496.94253,-74.89981,17.7989399433136
1619376496.95815,-88.91809,17.814559936523438
1619376496.97378,-101.5719,17.8301899433136
1619376496.9894,-111.902,17.845809936523438
1619376497.00503,-119.9736,17.8614399433136
1619376497.02066,-126.7598,17.87706995010376
1619376497.03628,-133.7289,17.8926899433136
1619376497.05191,-142.351,17.90831995010376
1619376497.06753,-153.7604,17.9239399433136
1619376497.08316,-168.3954,17.93956995010376
1619376497.09878,-185.7375,17.9551899433136
1619376497.11441,-203.9746,17.97081995010376
1619376497.13004,-220.0313,17.98644995689392
1619376497.14566,-229.9621,18.00206995010376
1619376497.16129,-229.9626,18.01769995689392
1619376497.17691,-217.4683,18.03331995010376
1619376497.19254,-192.1131,18.04894995689392
1619376497.20816,-155.9191,18.06456995010376
1619376497.22379,-112.6916,18.08019995689392
1619376497.23942,-66.93274,18.095829963684082
1619376497.25504,-22.70885,18.11144995689392
1619376497.27067,16.99156,18.127079963684082
1619376497.28629,50.35278,18.14269995689392
1619376497.30192,76.45107,18.158329963684082
1619376497.31754,94.93126,18.17394995689392
1619376497.33317,105.8976,18.189579963684082
1619376497.3488,109.9667,18.205209970474243
1619376497.36442,108.378,18.220829963684082
1619376497.38005,102.8227,18.236459970474243
1619376497.39567,95.15842,18.252079963684082
1619376497.4113,86.94383,18.267709970474243
1619376497.42692,79.09575,18.283329963684082
1619376497.44255,71.8237,18.298959970474243
1619376497.45818,64.84332,18.314589977264404
1619376497.4738,57.74619,18.330209970474243
1619376497.48943,50.3759,18.345839977264404
1619376497.50505,42.99419,18.361459970474243
1619376497.52068,36.13327,18.377089977264404
1619376497.53631,30.29816,18.392719984054565
1619376497.55193,25.55684,18.408339977264404
1619376497.56756,21.33713,18.423969984054565
1619376497.58318,16.50806,18.439589977264404
1619376497.59881,9.752075,18.455219984054565
1619376497.61443,0.09190369,18.470839977264404
1619376497.63006,-12.66974,18.486469984054565
1619376497.64569,-27.81261,18.502099990844727
1619376497.66131,-43.9604,18.517719984054565
1619376497.67694,-59.57678,18.533349990844727
1619376497.69256,-73.57872,18.548969984054565
1619376497.70819,-85.71846,18.564599990844727
1619376497.72381,-96.65665,18.580219984054565
1619376497.73944,-107.7484,18.595849990844727
1619376497.75507,-120.6334,18.611479997634888
1619376497.77069,-136.7247,18.627099990844727
1619376497.78632,-156.658,18.642729997634888
1619376497.80194,-179.7916,18.658349990844727
1619376497.81757,-203.925,18.673979997634888
1619376497.83319,-225.4144,18.689599990844727
1619376497.84882,-239.8755,18.705229997634888
1619376497.86445,-243.2614,18.72086000442505
1619376497.88007,-233.1087,18.736479997634888
1619376497.8957,-209.2612,18.75211000442505
1619376497.91132,-173.9207,18.767729997634888
1619376497.92695,-130.9028,18.78336000442505
1619376497.94257,-84.50299,18.798979997634888
1619376497.9582,-38.42947,18.81461000442505
1619376497.97383,4.731155,18.83024001121521
1619376497.98945,43.47682,18.84586000442505
1619376498.00508,76.99426,18.86149001121521
1619376498.0207,104.7246,18.87711000442505
1619376498.03633,126.1764,18.89274001121521
1619376498.05195,141.0237,18.90836000442505
1619376498.06758,149.3784,18.92399001121521
1619376498.08321,151.9223,18.93962001800537
1619376498.09883,149.8947,18.95524001121521
1619376498.11446,144.7708,18.97087001800537
1619376498.13008,137.9153,18.98649001121521
1619376498.14571,130.3102,19.00212001800537
1619376498.16133,122.4132,19.01774001121521
1619376498.17696,114.3976,19.03337001800537
1619376498.19259,106.3769,19.049000024795532
1619376498.20821,98.62936,19.06462001800537
1619376498.22384,91.56628,19.080250024795532
1619376498.23946,85.4812,19.09587001800537
1619376498.25509,80.25189,19.111500024795532
1619376498.27071,75.27759,19.12712001800537
1619376498.28634,69.66196,19.142750024795532
1619376498.30197,62.64819,19.158380031585693
1619376498.31759,54.01584,19.174000024795532
1619376498.33322,44.15308,19.189630031585693
1619376498.34884,33.84039,19.205250024795532
1619376498.36447,23.78964,19.220880031585693
1619376498.38009,14.29465,19.236500024795532
1619376498.39572,5.074188,19.252130031585693
1619376498.41135,-4.489868,19.267760038375854
1619376498.42697,-15.09201,19.283380031585693
1619376498.4426,-27.3045,19.299010038375854
1619376498.45822,-41.45779,19.314630031585693
1619376498.47385,-57.5593,19.330260038375854
1619376498.48947,-75.08878,19.345880031585693
1619376498.5051,-92.68427,19.361510038375854
1619376498.52073,-108.0181,19.377140045166016
1619376498.53635,-118.1262,19.392760038375854
1619376498.55198,-120.1979,19.408390045166016
1619376498.5676,-112.5019,19.424010038375854
1619376498.58323,-95.09103,19.439640045166016
1619376498.59885,-69.73593,19.455260038375854
1619376498.61448,-39.28363,19.470890045166016
1619376498.63011,-6.623657,19.486520051956177
1619376498.64573,26.10355,19.502140045166016
1619376498.66136,57.72693,19.517770051956177
1619376498.67698,87.74799,19.533390045166016
1619376498.69261,115.8608,19.549020051956177
1619376498.70823,141.703,19.564640045166016
1619376498.72386,164.9081,19.580270051956177
1619376498.73949,185.4454,19.595900058746338
1619376498.75511,203.7166,19.611520051956177
1619376498.77074,220.3314,19.627150058746338
1619376498.78636,235.5814,19.642770051956177
1619376498.80199,248.986,19.658400058746338
1619376498.81761,259.305,19.674020051956177
1619376498.83324,265.0027,19.689650058746338
1619376498.84887,264.9943,19.7052800655365
1619376498.86449,259.2041,19.720900058746338
1619376498.88012,248.6318,19.7365300655365
1619376498.89574,234.8024,19.752150058746338
1619376498.91137,219.0814,19.7677800655365
1619376498.92699,202.1293,19.783400058746338
1619376498.94262,183.9037,19.7990300655365
1619376498.95825,164.041,19.81466007232666
1619376498.97387,142.372,19.8302800655365
1619376498.9895,119.1395,19.84591007232666
1619376499.00512,94.7215,19.8615300655365
1619376499.02075,69.30904,19.87716007232666
1619376499.03637,42.76364,19.8927800655365
1619376499.052,15.20789,19.90841007232666
1619376499.06763,-12.06982,19.92404007911682
1619376499.08325,-35.97141,19.93966007232666
1619376499.09888,-52.06183,19.95529007911682
1619376499.1145,-56.11543,19.97091007232666
1619376499.13013,-46.25919,19.98654007911682
1619376499.14575,-24.44432,20.00216007232666
1619376499.16138,3.708206,20.01779007911682
1619376499.17701,30.75475,20.033420085906982
1619376499.19263,50.13839,20.04904007911682
1619376499.20826,58.37234,20.064670085906982
1619376499.22388,55.75279,20.08029007911682
1619376499.23951,45.28057,20.095920085906982
1619376499.25513,30.6868,20.11154007911682
1619376499.27076,14.59349,20.127170085906982
1619376499.28639,-2.333279,20.142800092697144
1619376499.30201,-21.15909,20.158420085906982
1619376499.31764,-43.65162,20.174050092697144
1619376499.33326,-71.17191,20.189670085906982
1619376499.34889,-104.0203,20.205300092697144
1619376499.36451,-141.3587,20.220920085906982
1619376499.38014,-181.567,20.236550092697144
1619376499.39577,-222.5958,20.252180099487305
1619376499.41139,-262.0036,20.267800092697144
1619376499.42702,-296.7214,20.283430099487305
1619376499.44264,-322.8642,20.299050092697144
1619376499.45827,-336.1369,20.314680099487305
1619376499.47389,-332.9991,20.330300092697144
1619376499.48952,-312.2936,20.345930099487305
1619376499.50515,-276.4966,20.361560106277466
1619376499.52077,-231.6475,20.377180099487305
1619376499.5364,-185.7542,20.392810106277466
1619376499.55202,-146.1464,20.408430099487305
1619376499.56765,-117.0254,20.424060106277466
1619376499.58327,-98.44817,20.439680099487305
1619376499.5989,-87.07805,20.455310106277466
1619376499.61453,-78.35826,20.470940113067627
1619376499.63015,-68.74294,20.486560106277466
1619376499.64578,-57.01547,20.502190113067627
1619376499.6614,-44.19467,20.517810106277466
1619376499.67703,-32.4068,20.533440113067627
1619376499.69266,-23.6145,20.549070119857788
1619376499.70828,-18.7579,20.564690113067627
1619376499.72391,-17.66827,20.580320119857788
1619376499.73953,-19.50534,20.595940113067627
1619376499.75516,-23.41765,20.611570119857788
1619376499.77078,-28.94778,20.627190113067627
1619376499.78641,-36.07985,20.642820119857788
1619376499.80204,-45.0321,20.65845012664795
1619376499.81766,-56.01137,20.674070119857788
1619376499.83329,-69.13661,20.68970012664795
1619376499.84891,-84.48019,20.705320119857788
1619376499.86454,-102.0372,20.72095012664795
1619376499.88016,-121.4825,20.736570119857788
1619376499.89579,-141.7196,20.75220012664795
1619376499.91142,-160.5394,20.76783013343811
1619376499.92704,-174.666,20.78345012664795
1619376499.94267,-180.4915,20.79908013343811
1619376499.95829,-175.1735,20.81470012664795
1619376499.97392,-157.6087,20.83033013343811
1619376499.98954,-128.8645,20.84595012664795
1619376500.00517,-91.87445,20.86158013343811
1619376500.0208,-50.48662,20.87721014022827
1619376500.03642,-8.513184,20.89283013343811
1619376500.05205,31.01599,20.90846014022827
1619376500.06767,66.04295,20.92408013343811
1619376500.0833,95.34068,20.93971014022827
1619376500.09892,118.2941,20.95533013343811
1619376500.11455,134.7259,20.97096014022827
1619376500.13018,144.8922,20.986589908599854
1619376500.1458,149.5295,21.00221014022827
1619376500.16143,149.7101,21.017839908599854
1619376500.17705,146.6493,21.03346014022827
1619376500.19268,141.3799,21.049089908599854
1619376500.2083,134.5792,21.06471014022827
1619376500.22393,126.5263,21.080339908599854
1619376500.23956,117.2799,21.095969915390015
1619376500.25518,106.9551,21.111589908599854
1619376500.27081,95.93303,21.127219915390015
1619376500.28643,84.92368,21.142839908599854
1619376500.30206,74.77925,21.158469915390015
1619376500.31768,66.11607,21.174089908599854
1619376500.33331,59.01725,21.189719915390015
1619376500.34894,52.88709,21.205349922180176
1619376500.36456,46.64088,21.220969915390015
1619376500.38019,39.17056,21.236599922180176
1619376500.39581,29.79797,21.252219915390015
1619376500.41144,18.57624,21.267849922180176
1619376500.42706,6.214717,21.283469915390015
1619376500.44269,-6.253797,21.299099922180176
1619376500.45832,-17.96063,21.314729928970337
1619376500.47394,-28.5638,21.330349922180176
1619376500.48957,-38.32884,21.345979928970337
1619376500.50519,-48.05095,21.361599922180176
1619376500.52082,-58.73215,21.377229928970337
1619376500.53644,-71.3453,21.392849922180176
1619376500.55207,-86.56847,21.408479928970337
1619376500.5677,-104.394,21.424109935760498
1619376500.58332,-123.7832,21.439729928970337
1619376500.59895,-142.3983,21.455359935760498
1619376500.61457,-156.8061,21.470979928970337
1619376500.6302,-163.1193,21.486609935760498
1619376500.64582,-158.1584,21.502229928970337
1619376500.66145,-140.5082,21.517859935760498
1619376500.67708,-111.0955,21.53348994255066
1619376500.6927,-72.99268,21.549109935760498
1619376500.70833,-30.42105,21.56473994255066
1619376500.72395,12.39812,21.580359935760498
1619376500.73958,52.18497,21.59598994255066
1619376500.7552,86.89341,21.611609935760498
1619376500.77083,115.5089,21.62723994255066
1619376500.78646,137.5782,21.64286994934082
1619376500.80208,152.9133,21.65848994255066
1619376500.81771,161.5657,21.67411994934082
1619376500.83333,163.9848,21.68973994255066
1619376500.84896,161.1756,21.70536994934082
1619376500.86458,154.5518,21.72098994255066
1619376500.88021,145.6577,21.73661994934082
1619376500.89584,135.769,21.75224995613098
1619376500.91146,125.6985,21.76786994934082
1619376500.92709,115.7518,21.78349995613098
1619376500.94271,105.9857,21.79911994934082
1619376500.95834,96.49547,21.81474995613098
1619376500.97396,87.57829,21.83036994934082
1619376500.98959,79.75665,21.84599995613098
1619376501.00522,73.5018,21.861629962921143
1619376501.02084,68.95398,21.87724995613098
1619376501.03647,65.726,21.892879962921143
1619376501.05209,62.92174,21.90849995613098
1619376501.06772,59.39502,21.924129962921143
1619376501.08334,54.13869,21.93974995613098
1619376501.09897,46.64817,21.955379962921143
1619376501.1146,37.05014,21.971009969711304
1619376501.13022,25.98573,21.986629962921143
1619376501.14585,14.29473,22.002259969711304
1619376501.16147,2.649635,22.017879962921143
1619376501.1771,-8.742676,22.033509969711304
1619376501.19272,-20.17317,22.049129962921143
1619376501.20835,-32.3955,22.064759969711304
1619376501.22398,-46.34543,22.080389976501465
1619376501.2396,-62.90936,22.096009969711304
1619376501.25523,-82.5153,22.111639976501465
1619376501.27085,-104.7349,22.127259969711304
1619376501.28648,-127.9278,22.142889976501465
1619376501.3021,-149.1716,22.158509969711304
1619376501.31773,-164.6544,22.174139976501465
1619376501.33336,-170.549,22.189769983291626
1619376501.34898,-164.1183,22.205389976501465
1619376501.36461,-144.6075,22.221019983291626
1619376501.38023,-113.5454,22.236639976501465
1619376501.39586,-74.31519,22.252269983291626
1619376501.41148,-31.23151,22.267889976501465
1619376501.42711,11.4852,22.283519983291626
1619376501.44274,50.42082,22.299149990081787
1619376501.45836,83.2583,22.314769983291626
1619376501.47399,108.6309,22.330399990081787
1619376501.48961,125.9313,22.346019983291626
1619376501.50524,135.1169,22.361649990081787
1619376501.52086,136.7289,22.377269983291626
1619376501.53649,131.8673,22.392899990081787
1619376501.55212,122.086,22.40852999687195
1619376501.56774,109.1725,22.424149990081787
1619376501.58337,94.7543,22.43977999687195
1619376501.59899,80.00383,22.455399990081787
1619376501.61462,65.47712,22.47102999687195
1619376501.63024,51.1817,22.486649990081787
1619376501.64587,36.93346,22.50227999687195
1619376501.6615,22.68229,22.51791000366211
1619376501.67712,8.824797,22.53352999687195
1619376501.69275,-3.835506,22.54916000366211
1619376501.70837,-14.38831,22.56477999687195
1619376501.724,-22.27706,22.58041000366211
1619376501.73962,-27.70733,22.59602999687195
1619376501.75525,-31.66815,22.61166000366211
1619376501.77088,-35.58737,22.62729001045227
1619376501.7865,-40.74516,22.64291000366211
1619376501.80213,-47.75446,22.65854001045227
1619376501.81775,-56.30715,22.67416000366211
1619376501.83338,-65.47556,22.68979001045227
1619376501.849,-74.17949,22.70541000366211
1619376501.86463,-81.76382,22.72104001045227
1619376501.88026,-88.30811,22.73667001724243
1619376501.89588,-94.62186,22.75229001045227
1619376501.91151,-101.9875,22.76792001724243
1619376501.92713,-111.7394,22.78354001045227
1619376501.94276,-124.8823,22.79917001724243
1619376501.95838,-141.6133,22.81479001045227
1619376501.97401,-160.9714,22.83042001724243
1619376501.98964,-180.6115,22.846050024032593
1619376502.00526,-197.0099,22.86167001724243
1619376502.02089,-206.1018,22.877300024032593
1619376502.03651,-204.3224,22.89292001724243
1619376502.05214,-189.715,22.908550024032593
1619376502.06777,-162.6101,22.924180030822754
1619376502.08339,-125.5565,22.939800024032593
1619376502.09902,-82.56709,22.955430030822754
1619376502.11464,-37.96543,22.971050024032593
1619376502.13027,4.561462,22.986680030822754
1619376502.14589,42.4681,23.002300024032593
1619376502.16152,74.26814,23.017930030822754
1619376502.17715,99.17894,23.033560037612915
1619376502.19277,116.8187,23.049180030822754
1619376502.2084,127.191,23.064810037612915
1619376502.22402,130.8021,23.080430030822754
1619376502.23965,128.8479,23.096060037612915
1619376502.25527,123.1157,23.111680030822754
1619376502.2709,115.6299,23.127310037612915
1619376502.28653,108.1331,23.142940044403076
1619376502.30215,101.6562,23.158560037612915
1619376502.31778,96.38255,23.174190044403076
1619376502.3334,91.80773,23.189810037612915
1619376502.34903,87.17079,23.205440044403076
1619376502.36465,81.91198,23.221060037612915
1619376502.38028,75.9207,23.236690044403076
1619376502.39591,69.57571,23.252320051193237
1619376502.41153,63.44837,23.267940044403076
1619376502.42716,57.92253,23.283570051193237
1619376502.44278,52.87386,23.299190044403076
1619376502.45841,47.66264,23.314820051193237
1619376502.47403,41.32088,23.330440044403076
1619376502.48966,32.99089,23.346070051193237
1619376502.50529,22.28729,23.3617000579834
1619376502.52091,9.513199,23.377320051193237
1619376502.53654,-4.46669,23.3929500579834
1619376502.55216,-18.55734,23.408570051193237
1619376502.56779,-31.87451,23.4242000579834
1619376502.58341,-44.10371,23.439820051193237
1619376502.59904,-55.58304,23.4554500579834
1619376502.61467,-67.22792,23.47108006477356
1619376502.63029,-80.2294,23.4867000579834
1619376502.64592,-95.65747,23.50233006477356
1619376502.66154,-113.9948,23.5179500579834
1619376502.67717,-134.6522,23.53358006477356
1619376502.69279,-155.6381,23.5492000579834
1619376502.70842,-173.6336,23.56483006477356
1619376502.72405,-184.5793,23.58046007156372
1619376502.73967,-184.7598,23.59608006477356
1619376502.7553,-171.9651,23.61171007156372
1619376502.77092,-146.2897,23.62733006477356
1619376502.78655,-110.1296,23.64296007156372
1619376502.80217,-67.48346,23.65858006477356
1619376502.8178,-22.77354,23.67421007156372
1619376502.83343,20.22008,23.689840078353882
1619376502.84905,58.83641,23.70546007156372
1619376502.86468,91.54504,23.721090078353882
1619376502.8803,117.5013,23.73671007156372
1619376502.89593,136.2176,23.752340078353882
1619376502.91155,147.5254,23.76796007156372
1619376502.92718,151.7038,23.783590078353882
1619376502.94281,149.6728,23.799220085144043
1619376502.95843,142.9556,23.814840078353882
1619376502.97406,133.4054,23.830470085144043
1619376502.98968,122.7071,23.846090078353882
1619376503.00531,112.0345,23.861720085144043
1619376503.02093,101.8884,23.877340078353882
1619376503.03656,92.21381,23.892970085144043
1619376503.05219,82.75909,23.908600091934204
1619376503.06781,73.44295,23.924220085144043
1619376503.08344,64.57832,23.939850091934204
1619376503.09906,56.84822,23.955470085144043
1619376503.11469,51.02467,23.971100091934204
1619376503.13031,47.5488,23.986720085144043
1619376503.14594,46.22229,24.002350091934204
1619376503.16157,46.11002,24.017980098724365
1619376503.17719,45.77301,24.033600091934204
1619376503.19282,43.74216,24.049230098724365
1619376503.20844,38.99557,24.064850091934204
1619376503.22407,31.33072,24.080480098724365
1619376503.23969,21.3291,24.096100091934204
1619376503.25532,10.06424,24.111730098724365
1619376503.27095,-1.371063,24.127360105514526
1619376503.28657,-12.27457,24.142980098724365
1619376503.3022,-22.55591,24.158610105514526
1619376503.31782,-32.71713,24.174230098724365
1619376503.33345,-43.60602,24.189860105514526
1619376503.34907,-56.22714,24.205480098724365
1619376503.3647,-71.42065,24.221110105514526
1619376503.38033,-89.54565,24.236740112304688
1619376503.39595,-110.1074,24.252360105514526
1619376503.41158,-131.3694,24.267990112304688
1619376503.4272,-150.2834,24.283610105514526
1619376503.44283,-162.9433,24.299240112304688
1619376503.45845,-165.4688,24.314860105514526
1619376503.47408,-155.2083,24.330490112304688
1619376503.48971,-131.6489,24.34612011909485
1619376503.50533,-96.66254,24.361740112304688
1619376503.52096,-53.93118,24.37737011909485
1619376503.53658,-7.890106,24.392990112304688
1619376503.55221,37.42212,24.40862011909485
1619376503.56783,78.9747,24.424240112304688
1619376503.58346,114.8361,24.43987011909485
1619376503.59909,143.8784,24.45550012588501
1619376503.61471,165.4241,24.47112011909485
1619376503.63034,179.133,24.48675012588501
1619376503.64596,185.1024,24.50237011909485
1619376503.66159,184.0464,24.51800012588501
1619376503.67721,177.3424,24.53362011909485
1619376503.69284,166.7914,24.54925012588501
1619376503.70847,154.2538,24.56488013267517
1619376503.72409,141.2145,24.58050012588501
1619376503.73972,128.541,24.59613013267517
1619376503.75534,116.463,24.61175012588501
1619376503.77097,104.8367,24.62738013267517
1619376503.78659,93.46004,24.64300012588501
1619376503.80222,82.39729,24.65863013267517
1619376503.81785,72.05344,24.674260139465332
1619376503.83347,63.06274,24.68988013267517
1619376503.8491,55.94241,24.705510139465332
1619376503.86472,50.73909,24.72113013267517
1619376503.88035,46.89395,24.736760139465332
1619376503.89597,43.32509,24.75238013267517
1619376503.9116,38.84853,24.768010139465332
1619376503.92723,32.62648,24.783639907836914
1619376503.94285,24.46155,24.799260139465332
1619376503.95848,14.8609,24.814889907836914
1619376503.9741,4.729431,24.830510139465332
1619376503.98973,-5.06575,24.846139907836914
1619376504.00535,-14.07298,24.861760139465332
1619376504.02098,-22.42612,24.877389907836914
1619376504.03661,-30.79568,24.893019914627075
1619376504.05223,-40.11491,24.908639907836914
1619376504.06786,-51.38472,24.924269914627075
1619376504.08348,-65.44756,24.939889907836914
1619376504.09911,-82.77403,24.955519914627075
1619376504.11473,-103.1149,24.971139907836914
1619376504.13036,-125.0399,24.986769914627075
1619376504.14599,-145.7055,25.002399921417236
1619376504.16161,-161.1024,25.018019914627075
1619376504.17724,-166.9668,25.033649921417236
1619376504.19286,-160.1451,25.049269914627075
1619376504.20849,-139.7982,25.064899921417236
1619376504.22411,-107.9225,25.080519914627075
1619376504.23974,-68.79599,25.096149921417236
1619376504.25537,-27.61794,25.111779928207397
1619376504.27099,11.0593,25.127399921417236
1619376504.28662,44.37384,25.143029928207397
1619376504.30224,71.42055,25.158649921417236
1619376504.31787,92.67787,25.174279928207397
1619376504.33349,109.2839,25.189899921417236
1619376504.34912,122.4125,25.205529928207397
1619376504.36475,132.9761,25.22115993499756
1619376504.38037,141.519,25.236779928207397
1619376504.396,148.1416,25.25240993499756
1619376504.41162,152.3818,25.268029928207397
1619376504.42725,153.2626,25.28365993499756
1619376504.44287,149.6772,25.299279928207397
1619376504.4585,141.1623,25.31490993499756
1619376504.47413,128.5969,25.33053994178772
1619376504.48975,114.4028,25.34615993499756
1619376504.50538,101.8978,25.36178994178772
1619376504.521,93.89976,25.37740993499756
1619376504.53663,91.22089,25.39303994178772
1619376504.55226,92.01894,25.40866994857788
1619376504.56788,92.21305,25.42428994178772
1619376504.58351,86.9731,25.43991994857788
1619376504.59913,72.38483,25.45553994178772
1619376504.61476,46.69842,25.47116994857788
1619376504.63038,10.81544,25.48678994178772
1619376504.64601,-31.91626,25.50241994857788
1619376504.66164,-76.17068,25.518049955368042
1619376504.67726,-115.3473,25.53366994857788
1619376504.69289,-142.4759,25.549299955368042
1619376504.70851,-151.6452,25.56491994857788
1619376504.72414,-139.6009,25.580549955368042
1619376504.73976,-107.1258,25.59616994857788
1619376504.75539,-59.32237,25.611799955368042
1619376504.77102,-4.448227,25.627429962158203
1619376504.78664,48.38022,25.643049955368042
1619376504.80227,91.65808,25.658679962158203
1619376504.81789,121.0491,25.674299955368042
1619376504.83352,135.6716,25.689929962158203
1619376504.84914,137.0742,25.705549955368042
1619376504.86477,127.9415,25.721179962158203
1619376504.8804,111.1518,25.736809968948364
1619376504.89602,89.52885,25.752429962158203
1619376504.91165,65.80917,25.768059968948364
1619376504.92727,42.65288,25.783679962158203
1619376504.9429,22.21214,25.799309968948364
1619376504.95852,5.350983,25.814929962158203
1619376504.97415,-8.763916,25.830559968948364
1619376504.98978,-22.74164,25.846189975738525
1619376505.0054,-40.4043,25.861809968948364
1619376505.02103,-65.85095,25.877439975738525
1619376505.03665,-102.312,25.893059968948364
1619376505.05228,-150.7505,25.908689975738525
1619376505.0679,-208.7596,25.924309968948364
1619376505.08353,-270.1473,25.939939975738525
1619376505.09916,-325.8424,25.955569982528687
1619376505.11478,-366.0791,25.971189975738525
1619376505.13041,-383.3708,25.986819982528687
1619376505.14603,-374.9941,26.002439975738525
1619376505.16166,-343.9601,26.018069982528687
1619376505.17728,-297.756,26.033689975738525
1619376505.19291,-245.5802,26.049319982528687
1619376505.20854,-195.3026,26.064949989318848
1619376505.22416,-151.5186,26.080569982528687
1619376505.23979,-115.4191,26.096199989318848
1619376505.25541,-86.04233,26.111819982528687
1619376505.27104,-61.92484,26.127449989318848
1619376505.28666,-42.1709,26.143069982528687
1619376505.30229,-26.60059,26.158699989318848
1619376505.31792,-15.28503,26.17432999610901
1619376505.33354,-8.002441,26.189949989318848
1619376505.34917,-4.117279,26.20557999610901
1619376505.36479,-2.833008,26.221199989318848
1619376505.38042,-3.541351,26.23682999610901
1619376505.39604,-5.953064,26.252449989318848
1619376505.41167,-10.17892,26.26807999610901
1619376505.4273,-16.40427,26.28371000289917
1619376505.44292,-24.61789,26.29932999610901
1619376505.45855,-34.43149,26.31496000289917
1619376505.47417,-45.2258,26.33057999610901
1619376505.4898,-56.43378,26.34621000289917
1619376505.50542,-67.92105,26.36182999610901
1619376505.52105,-80.16891,26.37746000289917
1619376505.53668,-94.05753,26.39309000968933
1619376505.5523,-110.2453,26.40871000289917
1619376505.56793,-128.3508,26.42434000968933
1619376505.58355,-146.3907,26.43996000289917
1619376505.59918,-160.778,26.45559000968933
1619376505.6148,-167.2047,26.47121000289917
1619376505.63043,-162.007,26.48684000968933
1619376505.64606,-143.4589,26.502470016479492
1619376505.66168,-112.6255,26.51809000968933
1619376505.67731,-73.08337,26.533720016479492
1619376505.69293,-29.84897,26.54934000968933
1619376505.70856,12.10431,26.564970016479492
1619376505.72418,49.08904,26.58059000968933
1619376505.73981,79.2162,26.596220016479492
1619376505.75544,102.1637,26.611850023269653
1619376505.77106,118.4945,26.627470016479492
1619376505.78669,128.9869,26.643100023269653
1619376505.80231,134.3328,26.658720016479492
1619376505.81794,135.1333,26.674350023269653
1619376505.83356,132.1231,26.689970016479492
1619376505.84919,126.3499,26.705600023269653
1619376505.86482,119.0698,26.721230030059814
1619376505.88044,111.5208,26.736850023269653
1619376505.89607,104.6071,26.752480030059814
1619376505.91169,98.78343,26.768100023269653
1619376505.92732,94.05228,26.783730030059814
1619376505.94294,90.20183,26.799350023269653
1619376505.95857,87.05071,26.814980030059814
1619376505.9742,84.59418,26.830610036849976
1619376505.98982,83.03334,26.846230030059814
1619376506.00545,82.56761,26.861860036849976
1619376506.02107,83.16782,26.877480030059814
1619376506.0367,84.30666,26.893110036849976
1619376506.05232,85.00031,26.908730030059814
1619376506.06795,83.99658,26.924360036849976
1619376506.08358,80.1875,26.939990043640137
1619376506.0992,73.04911,26.955610036849976
1619376506.11483,62.84091,26.971240043640137
1619376506.13045,50.48295,26.986860036849976
1619376506.14608,37.18535,27.002490043640137
1619376506.1617,23.94599,27.018110036849976
1619376506.17733,11.18981,27.033740043640137
1619376506.19296,-1.312248,27.049370050430298
1619376506.20858,-14.29036,27.064990043640137
1619376506.22421,-28.71944,27.080620050430298
1619376506.23983,-45.47078,27.096240043640137
1619376506.25546,-65.03611,27.111870050430298
1619376506.27108,-87.12225,27.127490043640137
1619376506.28671,-110.3824,27.143120050430298
1619376506.30234,-132.2227,27.15875005722046
1619376506.31796,-149.0756,27.174370050430298
1619376506.33359,-157.1425,27.19000005722046
1619376506.34921,-153.4226,27.205620050430298
1619376506.36484,-136.671,27.22125005722046
1619376506.38046,-107.8381,27.236870050430298
1619376506.39609,-69.84338,27.25250005722046
1619376506.41172,-26.72122,27.26813006401062
1619376506.42734,17.34581,27.28375005722046
1619376506.44297,58.84937,27.29938006401062
1619376506.45859,95.23405,27.31500005722046
1619376506.47422,124.8452,27.33063006401062
1619376506.48984,146.7476,27.34625005722046
1619376506.50547,160.5482,27.36188006401062
1619376506.5211,166.4807,27.37751007080078
1619376506.53672,165.4041,27.39313006401062
1619376506.55235,158.8124,27.40876007080078
1619376506.56797,148.572,27.42438006401062
1619376506.5836,136.5548,27.44001007080078
1619376506.59922,124.2407,27.45563006401062
1619376506.61485,112.516,27.47126007080078
1619376506.63048,101.696,27.486890077590942
1619376506.6461,91.70489,27.50251007080078
1619376506.66173,82.39435,27.518140077590942
1619376506.67735,73.76025,27.53376007080078
1619376506.69298,66.00957,27.549390077590942
1619376506.7086,59.41899,27.56501007080078
1619376506.72423,54.1082,27.580640077590942
1619376506.73986,49.82728,27.596270084381104
1619376506.75548,45.8691,27.611890077590942
1619376506.77111,41.21373,27.627520084381104
1619376506.78673,34.84349,27.643140077590942
1619376506.80236,26.12088,27.658770084381104
1619376506.81799,15.0794,27.674400091171265
1619376506.83361,2.431271,27.690020084381104
1619376506.84924,-10.67554,27.705650091171265
1619376506.86486,-23.1128,27.721270084381104
1619376506.88049,-34.25597,27.736900091171265
1619376506.89611,-44.24496,27.752520084381104
1619376506.91174,-53.94705,27.768150091171265
1619376506.92737,-64.65777,27.783780097961426
1619376506.94299,-77.72733,27.799400091171265
1619376506.95862,-94.1192,27.815030097961426
1619376506.97424,-114.099,27.830650091171265
1619376506.98987,-136.9317,27.846280097961426
1619376507.00549,-160.6629,27.861900091171265
1619376507.02112,-182.1559,27.877530097961426
1619376507.03675,-197.5345,27.893160104751587
1619376507.05237,-203.0448,27.908780097961426
1619376507.068,-196.1458,27.924410104751587
1619376507.08362,-176.3921,27.940030097961426
1619376507.09925,-145.7268,27.955660104751587
1619376507.11487,-107.9262,27.971280097961426
1619376507.1305,-67.51781,27.986910104751587
1619376507.14613,-28.55083,28.002540111541748
1619376507.16175,6.113148,28.018160104751587
1619376507.17738,34.9769,28.033790111541748
1619376507.193,57.51319,28.049410104751587
1619376507.20863,73.67682,28.065040111541748
1619376507.22425,83.59863,28.080660104751587
1619376507.23988,87.60629,28.096290111541748
1619376507.25551,86.43867,28.11192011833191
1619376507.27113,81.35416,28.127540111541748
1619376507.28676,74.02029,28.14317011833191
1619376507.30238,66.20157,28.158790111541748
1619376507.31801,59.28487,28.17442011833191
1619376507.33363,53.95659,28.190040111541748
1619376507.34926,50.14081,28.20567011833191
1619376507.36489,47.23913,28.22130012512207
1619376507.38051,44.50238,28.23692011833191
1619376507.39614,41.46354,28.25255012512207
1619376507.41176,38.06342,28.26817011833191
1619376507.42739,34.5689,28.28380012512207
1619376507.44301,31.22692,28.29942011833191
1619376507.45864,27.91924,28.31505012512207
1619376507.47427,24.07433,28.33068013191223
1619376507.48989,18.83714,28.34630012512207
1619376507.50552,11.49252,28.36193013191223
1619376507.52114,1.870728,28.37755012512207
1619376507.53677,-9.507813,28.39318013191223
1619376507.55239,-21.62111,28.40880012512207
1619376507.56802,-33.39049,28.42443013191223
1619376507.58365,-44.09804,28.440060138702393
1619376507.59927,-53.67883,28.45568013191223
1619376507.6149,-62.66337,28.471310138702393
1619376507.63052,-71.98727,28.48693013191223
1619376507.64615,-82.68898,28.502560138702393
1619376507.66177,-95.67252,28.51818013191223
1619376507.6774,-111.3716,28.533810138702393
1619376507.69303,-129.5313,28.549440145492554
1619376507.70865,-148.8325,28.565060138702393
1619376507.72428,-166.7824,28.580690145492554
1619376507.7399,-179.9584,28.596310138702393
1619376507.75553,-184.7027,28.611940145492554
1619376507.77115,-178.1343,28.627560138702393
1619376507.78678,-159.103,28.643190145492554
1619376507.80241,-128.6752,28.658819913864136
1619376507.81803,-89.91875,28.674440145492554
1619376507.83366,-47.07553,28.690069913864136
1619376507.84928,-4.417343,28.705690145492554
1619376507.86491,34.66409,28.721319913864136
1619376507.88053,68.08815,28.736940145492554
1619376507.89616,94.96379,28.752569913864136
1619376507.91179,115.174,28.768199920654297
1619376507.92741,128.9269,28.783819913864136
1619376507.94304,136.5247,28.799449920654297
1619376507.95866,138.4251,28.815069913864136
1619376507.97429,135.393,28.830699920654297
1619376507.98991,128.6099,28.846319913864136
1619376508.00554,119.5353,28.861949920654297
1619376508.02117,109.6073,28.877579927444458
1619376508.03679,99.86877,28.893199920654297
1619376508.05242,90.78806,28.908829927444458
1619376508.06804,82.30301,28.924449920654297
1619376508.08367,74.14325,28.940079927444458
1619376508.09929,66.23824,28.955699920654297
1619376508.11492,58.90108,28.971329927444458
1619376508.13055,52.75728,28.98695993423462
1619376508.14617,48.40958,29.002579927444458
1619376508.1618,45.98215,29.01820993423462
1619376508.17742,44.85971,29.033829927444458
1619376508.19305,43.784,29.04945993423462
1619376508.20867,41.20715,29.065079927444458
1619376508.2243,35.87903,29.08070993423462
1619376508.23993,27.26254,29.09633994102478
1619376508.25555,15.67267,29.11195993423462
1619376508.27118,2.102539,29.12758994102478
1619376508.2868,-12.19855,29.14320993423462
1619376508.30243,-26.16754,29.15883994102478
1619376508.31805,-39.26233,29.17445993423462
1619376508.33368,-51.5271,29.19008994102478
1619376508.34931,-63.54974,29.20571994781494
1619376508.36493,-76.22943,29.22133994102478
1619376508.38056,-90.59302,29.23696994781494
1619376508.39618,-107.4865,29.25258994102478
1619376508.41181,-127.1958,29.26821994781494
1619376508.42743,-148.9886,29.28383994102478
1619376508.44306,-170.8088,29.29946994781494
1619376508.45869,-189.2588,29.315099954605103
1619376508.47431,-200.2025,29.33071994781494
1619376508.48994,-199.8051,29.346349954605103
1619376508.50556,-185.7277,29.36196994781494
1619376508.52119,-157.949,29.377599954605103
1619376508.53681,-118.8682,29.39321994781494
1619376508.55244,-72.61224,29.408849954605103
1619376508.56807,-23.85373,29.424479961395264
1619376508.58369,23.28696,29.440099954605103
1619376508.59932,65.93127,29.455729961395264
1619376508.61494,102.4434,29.471349954605103
1619376508.63057,132.0713,29.486979961395264
1619376508.64619,154.4798,29.502599954605103
1619376508.66182,169.5109,29.518229961395264
1619376508.67745,177.2851,29.533859968185425
1619376508.69307,178.4082,29.549479961395264
1619376508.7087,174.149,29.565109968185425
1619376508.72432,166.2987,29.580729961395264
1619376508.73995,156.8634,29.596359968185425
1619376508.75557,147.5493,29.611979961395264
1619376508.7712,139.4063,29.627609968185425
1619376508.78683,132.7114,29.643239974975586
1619376508.80245,127.1269,29.658859968185425
1619376508.81808,122.0955,29.674489974975586
1619376508.8337,117.212,29.690109968185425
1619376508.84933,112.4181,29.705739974975586
1619376508.86495,107.973,29.721359968185425
1619376508.88058,104.1642,29.736989974975586
1619376508.89621,101.0255,29.752619981765747
1619376508.91183,98.13632,29.768239974975586
1619376508.92746,94.71744,29.783869981765747
1619376508.94308,89.90793,29.799489974975586
1619376508.95871,83.12979,29.815119981765747
1619376508.97433,74.37082,29.830739974975586
1619376508.98996,64.20746,29.846369981765747
1619376509.00559,53.52921,29.861999988555908
1619376509.02121,43.14215,29.877619981765747
1619376509.03684,33.38974,29.893249988555908
1619376509.05246,23.96912,29.908869981765747
1619376509.06809,14.07437,29.924499988555908
1619376509.08371,2.690369,29.940119981765747
1619376509.09934,-11.07773,29.955749988555908
1619376509.11497,-27.77615,29.97137999534607
1619376509.13059,-47.51273,29.986999988555908
1619376509.14622,-69.82181,30.00262999534607
1619376509.16184,-93.51752,30.018249988555908
1619376509.17747,-116.4623,30.03387999534607
1619376509.19309,-135.6384,30.049499988555908
1619376509.20872,-147.5446,30.06512999534607
1619376509.22435,-149.0446,30.08076000213623
1619376509.23997,-138.4062,30.09637999534607
1619376509.2556,-115.9554,30.11201000213623
1619376509.27122,-84.17892,30.12762999534607
1619376509.28685,-46.99808,30.14326000213623
1619376509.30247,-8.651886,30.15887999534607
1619376509.3181,27.32861,30.17451000213623
1619376509.33373,58.72305,30.19014000892639
1619376509.34935,84.50381,30.20576000213623
1619376509.36498,104.4336,30.22139000892639
1619376509.3806,118.5697,30.23701000213623
1619376509.39623,127.0703,30.25264000892639
1619376509.41186,130.226,30.268270015716553
1619376509.42748,128.7034,30.28389000892639
1619376509.44311,123.5886,30.299520015716553
1619376509.45873,116.2423,30.31514000892639
1619376509.47436,107.9352,30.330770015716553
1619376509.48998,99.48624,30.34639000892639
1619376509.50561,91.09534,30.362020015716553
1619376509.52124,82.46252,30.377650022506714
1619376509.53686,73.16388,30.393270015716553
1619376509.55249,63.00009,30.408900022506714
1619376509.56811,52.21201,30.424520015716553
1619376509.58374,41.37234,30.440150022506714
1619376509.59936,31.13498,30.455770015716553
1619376509.61499,21.87238,30.471400022506714
1619376509.63062,13.4704,30.487030029296875
1619376509.64624,5.343414,30.502650022506714
1619376509.66187,-3.415588,30.518280029296875
1619376509.67749,-13.65948,30.533900022506714
1619376509.69312,-25.90353,30.549530029296875
1619376509.70874,-40.10739,30.565150022506714
1619376509.72437,-55.64771,30.580780029296875
1619376509.74,-71.53555,30.596410036087036
1619376509.75562,-86.71036,30.612030029296875
1619376509.77125,-100.4044,30.627660036087036
1619376509.78687,-112.3558,30.643280029296875
1619376509.8025,-122.8513,30.658910036087036
1619376509.81812,-132.6001,30.674530029296875
1619376509.83375,-142.5747,30.690160036087036
1619376509.84938,-153.6906,30.705790042877197
1619376509.865,-166.5389,30.721410036087036
1619376509.88063,-180.9253,30.737040042877197
1619376509.89625,-195.53,30.752660036087036
1619376509.91188,-207.7914,30.768290042877197
1619376509.9275,-214.3186,30.783910036087036
1619376509.94313,-211.7964,30.799540042877197
1619376509.95876,-198.1194,30.81517004966736
1619376509.97438,-173.2566,30.830790042877197
1619376509.99001,-139.3455,30.84642004966736
1619376510.00563,-100.0491,30.862040042877197
1619376510.02126,-59.40208,30.87767004966736
1619376510.03688,-20.76866,30.893290042877197
1619376510.05251,13.65849,30.90892004966736
1619376510.06814,42.77484,30.92455005645752
1619376510.08376,66.09244,30.94017004966736
1619376510.09939,83.36476,30.95580005645752
1619376510.11501,94.48076,30.97142004966736
1619376510.13064,99.71175,30.98705005645752
1619376510.14626,99.90495,31.00267004966736
1619376510.16189,96.53857,31.01830005645752
1619376510.17752,91.41229,31.03393006324768
1619376510.19314,86.18382,31.04955005645752
1619376510.20877,81.95392,31.06518006324768
1619376510.22439,79.09419,31.08080005645752
1619376510.24002,77.38121,31.09643006324768
1619376510.25564,76.27591,31.11205005645752
1619376510.27127,75.27214,31.12768006324768
1619376510.2869,74.1378,31.143310070037842
1619376510.30252,72.89467,31.15893006324768
1619376510.31815,71.68195,31.174560070037842
1619376510.33377,70.47049,31.19018006324768
1619376510.3494,68.88469,31.205810070037842
1619376510.36502,66.15654,31.22143006324768
1619376510.38065,61.34431,31.237060070037842
1619376510.39628,53.66795,31.252690076828003
1619376510.4119,42.83153,31.268310070037842
1619376510.42753,29.22855,31.283940076828003
1619376510.44315,13.82188,31.299560070037842
1619376510.45878,-2.13385,31.315190076828003
1619376510.4744,-17.5742,31.330810070037842
1619376510.49003,-31.8734,31.346440076828003
1619376510.50566,-45.05898,31.362070083618164
1619376510.52128,-57.72023,31.377690076828003
1619376510.53691,-70.77415,31.393320083618164
1619376510.55253,-85.21666,31.408940076828003
1619376510.56816,-101.7981,31.424570083618164
1619376510.58378,-120.7401,31.440190076828003
1619376510.59941,-141.3995,31.455820083618164
1619376510.61504,-162.0209,31.471450090408325
1619376510.63066,-179.6905,31.487070083618164
1619376510.64629,-190.8024,31.502700090408325
1619376510.66191,-191.8417,31.518320083618164
1619376510.67754,-180.4733,31.533950090408325
1619376510.69316,-156.3592,31.549570083618164
1619376510.70879,-121.4368,31.565200090408325
1619376510.72442,-79.48505,31.580830097198486
1619376510.74004,-35.02457,31.596450090408325
1619376510.75567,7.724762,31.612080097198486
1619376510.77129,45.68839,31.627700090408325
1619376510.78692,77.13553,31.643330097198486
1619376510.80254,101.3714,31.658950090408325
1619376510.81817,118.3231,31.674580097198486
1619376510.8338,128.1876,31.690210103988647
1619376510.84942,131.408,31.705830097198486
1619376510.86505,128.8253,31.721460103988647
1619376510.88067,121.778,31.737080097198486
1619376510.8963,112.0355,31.752710103988647
1619376510.91192,101.4393,31.768330097198486
1619376510.92755,91.45438,31.783960103988647
1619376510.94318,82.81738,31.79959011077881
1619376510.9588,75.52057,31.815210103988647
1619376510.97443,68.99728,31.83084011077881
1619376510.99005,62.64078,31.846460103988647
1619376511.00568,56.15698,31.86209011077881
1619376511.0213,49.75238,31.877710103988647
1619376511.03693,44.01489,31.89334011077881
1619376511.05256,39.55856,31.90897011756897
1619376511.06818,36.65942,31.92459011077881
1619376511.08381,35.02829,31.94022011756897
1619376511.09943,33.85284,31.95584011077881
1619376511.11506,32.02164,31.97147011756897
1619376511.13068,28.49582,31.98709011077881
1619376511.14631,22.5759,32.00272011756897
1619376511.16194,14.08337,32.01835012435913
1619376511.17756,3.351288,32.03397011756897
1619376511.19319,-8.900085,32.04960012435913
1619376511.20881,-21.82816,32.06522011756897
1619376511.22444,-34.74261,32.08085012435913
1619376511.24006,-47.2959,32.09647011756897
1619376511.25569,-59.61969,32.11210012435913
1619376511.27132,-72.26343,32.12773013114929
1619376511.28694,-86.04202,32.14335012435913
1619376511.30257,-101.7531,32.15898013114929
1619376511.31819,-119.7898,32.17460012435913
1619376511.33382,-139.7134,32.19023013114929
1619376511.34944,-159.9849,32.20585012435913
1619376511.36507,-177.8966,32.22148013114929
1619376511.3807,-189.9836,32.23711013793945
1619376511.39632,-192.8086,32.25273013114929
1619376511.41195,-183.9317,32.26836013793945
1619376511.42757,-162.7108,32.28398013114929
1619376511.4432,-130.561,32.29961013793945
1619376511.45882,-90.58469,32.31523013114929
1619376511.47445,-46.6922,32.33086013793945
1619376511.49008,-2.659515,32.346490144729614
1619376511.5057,38.59567,32.36211013793945
1619376511.52133,75.17081,32.377740144729614
1619376511.53695,105.9923,32.39336013793945
1619376511.55258,130.4612,32.408990144729614
1619376511.5682,148.1965,32.42461013793945
1619376511.58383,159.0609,32.440240144729614
1619376511.59946,163.2979,32.455869913101196
1619376511.61508,161.6842,32.471490144729614
1619376511.63071,155.5438,32.487119913101196
1619376511.64633,146.5333,32.502740144729614
1619376511.66196,136.3057,32.518369913101196
1619376511.67759,126.167,32.53399991989136
1619376511.69321,116.877,32.549619913101196
1619376511.70884,108.695,32.56524991989136
1619376511.72446,101.5638,32.580869913101196
1619376511.74009,95.38666,32.59649991989136
1619376511.75571,90.16803,32.612119913101196
1619376511.77134,85.97186,32.62774991989136
1619376511.78697,82.80411,32.64337992668152
1619376511.80259,80.39377,32.65899991989136
1619376511.81822,78.16711,32.67462992668152
1619376511.83384,75.35968,32.69024991989136
1619376511.84947,71.25293,32.70587992668152
1619376511.86509,65.4241,32.72149991989136
1619376511.88072,57.87219,32.73712992668152
1619376511.89635,49.01047,32.75275993347168
1619376511.91197,39.44363,32.76837992668152
1619376511.9276,29.77307,32.78400993347168
1619376511.94322,20.40372,32.79962992668152
1619376511.95885,11.42068,32.81525993347168
1619376511.97447,2.614746,32.83087992668152
1619376511.9901,-6.438904,32.84650993347168
1619376512.00573,-16.3399,32.86213994026184
1619376512.02135,-27.76846,32.87775993347168
1619376512.03698,-41.36945,32.89338994026184
1619376512.0526,-57.59174,32.90900993347168
1619376512.06823,-76.38995,32.92463994026184
1619376512.08385,-96.86279,32.94025993347168
1619376512.09948,-117.0331,32.95588994026184
1619376512.11511,-133.8917,32.971519947052
1619376512.13073,-143.9175,32.98713994026184
1619376512.14636,-143.9751,33.002769947052
1619376512.16198,-132.2687,33.01838994026184
1619376512.17761,-109.035,33.034019947052
1619376512.19323,-76.61349,33.04963994026184
1619376512.20886,-38.81802,33.065269947052
1619376512.22449,0.1011353,33.08089995384216
1619376512.24011,36.50519,33.096519947052
1619376512.25574,68.00235,33.11214995384216
1619376512.27136,93.45972,33.127769947052
1619376512.28699,112.6633,33.14339995384216
1619376512.30261,125.8506,33.159019947052
1619376512.31824,133.4052,33.17464995384216
1619376512.33387,135.8117,33.190279960632324
1619376512.34949,133.7782,33.20589995384216
1619376512.36512,128.292,33.221529960632324
1619376512.38074,120.5278,33.23714995384216
1619376512.39637,111.6226,33.252779960632324
1619376512.41199,102.4302,33.26839995384216
1619376512.42762,93.30927,33.284029960632324
1619376512.44325,84.23,33.299659967422485
1619376512.45887,74.90771,33.315279960632324
1619376512.4745,65.06387,33.330909967422485
1619376512.49012,54.64,33.346529960632324
1619376512.50575,43.82935,33.362159967422485
1619376512.52137,33.02469,33.377779960632324
1619376512.537,22.6458,33.393409967422485
1619376512.55263,12.9474,33.40903997421265
1619376512.56825,3.867142,33.424659967422485
1619376512.58388,-4.992462,33.44028997421265
1619376512.5995,-14.23514,33.455909967422485
1619376512.61513,-24.44574,33.47153997421265
1619376512.63075,-35.89578,33.487159967422485
1619376512.64638,-48.42619,33.50278997421265
1619376512.66201,-61.48181,33.51841998100281
1619376512.67763,-74.33337,33.53403997421265
1619376512.69326,-86.34956,33.54966998100281
1619376512.70888,-97.2634,33.56528997421265
1619376512.72451,-107.243,33.58091998100281
1619376512.74013,-116.823,33.59653997421265
1619376512.75576,-126.7601,33.61216998100281
1619376512.77139,-137.8186,33.62779998779297
1619376512.78701,-150.6276,33.64341998100281
1619376512.80264,-165.3772,33.65904998779297
1619376512.81826,-181.5522,33.67466998100281
1619376512.83389,-197.5853,33.69029998779297
1619376512.84951,-210.8523,33.70591998100281
1619376512.86514,-218.013,33.72154998779297
1619376512.88077,-215.9039,33.73717999458313
1619376512.89639,-202.5148,33.75279998779297
1619376512.91202,-177.7623,33.76842999458313
1619376512.92764,-143.6761,33.78404998779297
1619376512.94327,-103.8112,33.79967999458313
1619376512.95889,-62.28276,33.81529998779297
1619376512.97452,-22.72543,33.83092999458313
1619376512.99015,12.30344,33.84656000137329
1619376513.00577,41.44277,33.86217999458313
1619376513.0214,64.23956,33.87781000137329
1619376513.03702,80.74723,33.89342999458313
1619376513.05265,91.26631,33.90906000137329
1619376513.06827,96.27127,33.92467999458313
1619376513.0839,96.51836,33.94031000137329
1619376513.09953,93.11491,33.95594000816345
1619376513.11515,87.44984,33.97156000137329
1619376513.13078,81.01833,33.98719000816345
1619376513.1464,75.10836,34.00281000137329
1619376513.16203,70.53633,34.01844000816345
1619376513.17765,67.48399,34.03406000137329
1619376513.19328,65.55549,34.04969000816345
1619376513.20891,64.04947,34.06532001495361
1619376513.22453,62.3145,34.08094000816345
1619376513.24016,60.01966,34.09657001495361
1619376513.25578,57.24586,34.11219000816345
1619376513.27141,54.32007,34.12782001495361
1619376513.28703,51.47522,34.14344000816345
1619376513.30266,48.58116,34.15907001495361
1619376513.31829,45.0479,34.174700021743774
1619376513.33391,40.03222,34.19032001495361
1619376513.34954,32.81739,34.205950021743774
1619376513.36516,23.14494,34.22157001495361
1619376513.38079,11.3775,34.237200021743774
1619376513.39641,-1.622543,34.25282001495361
1619376513.41204,-14.81781,34.268450021743774
1619376513.42767,-27.36239,34.284080028533936
1619376513.44329,-38.85416,34.299700021743774
1619376513.45892,-49.41294,34.315330028533936
1619376513.47454,-59.54684,34.330950021743774
1619376513.49017,-69.97655,34.346580028533936
1619376513.50579,-81.50249,34.362200021743774
1619376513.52142,-94.90078,34.377830028533936
1619376513.53705,-110.6822,34.3934600353241
1619376513.55267,-128.7709,34.409080028533936
1619376513.5683,-148.0855,34.4247100353241
1619376513.58392,-166.2511,34.440330028533936
1619376513.59955,-179.7575,34.4559600353241
1619376513.61517,-184.7479,34.471580028533936
1619376513.6308,-178.1706,34.4872100353241
1619376513.64643,-158.8827,34.50284004211426
1619376513.66205,-128.1961,34.5184600353241
1619376513.67768,-89.55293,34.53409004211426
1619376513.6933,-47.46347,34.5497100353241
1619376513.70893,-6.227448,34.56534004211426
1619376513.72455,31.05035,34.5809600353241
1619376513.74018,62.72545,34.59659004211426
1619376513.75581,88.3004,34.61222004890442
1619376513.77143,107.8199,34.62784004211426
1619376513.78706,121.4486,34.64347004890442
1619376513.80268,129.378,34.65909004211426
1619376513.81831,132.0056,34.67472004890442
1619376513.83394,130.1171,34.69035005569458
1619376513.84956,124.8869,34.70597004890442
1619376513.86519,117.6781,34.72160005569458
1619376513.88081,109.7468,34.73722004890442
1619376513.89644,101.9954,34.75285005569458
1619376513.91206,94.90573,34.76847004890442
1619376513.92769,88.59366,34.78410005569458
1619376513.94332,82.97507,34.79973006248474
1619376513.95894,77.90324,34.81535005569458
1619376513.97457,73.26633,34.83098006248474
1619376513.99019,69.03278,34.84660005569458
1619376514.00582,65.23376,34.86223006248474
1619376514.02144,61.88745,34.87785005569458
1619376514.03707,58.91594,34.89348006248474
1619376514.0527,56.07565,34.9091100692749
1619376514.06832,52.88765,34.92473006248474
1619376514.08395,48.70178,34.9403600692749
1619376514.09957,42.87897,34.95598006248474
1619376514.1152,34.94518,34.9716100692749
1619376514.13082,24.82222,34.98723006248474
1619376514.14645,12.84731,35.0028600692749
1619376514.16208,-0.2814026,35.01849007606506
1619376514.1777,-13.74402,35.0341100692749
1619376514.19333,-26.88406,35.04974007606506
1619376514.20895,-39.3838,35.0653600692749
1619376514.22458,-51.33049,35.08099007606506
1619376514.2402,-63.1946,35.0966100692749
1619376514.25583,-75.66495,35.11224007606506
1619376514.27146,-89.5284,35.127870082855225
1619376514.28708,-105.4584,35.14349007606506
1619376514.30271,-123.6936,35.159120082855225
1619376514.31833,-143.6418,35.17474007606506
1619376514.33396,-163.5309,35.190370082855225
1619376514.34958,-180.3482,35.20599007606506
1619376514.36521,-190.2804,35.221620082855225
1619376514.38084,-189.7207,35.237250089645386
1619376514.39646,-176.408,35.252870082855225
1619376514.41209,-150.3275,35.268500089645386
1619376514.42771,-113.8606,35.284120082855225
1619376514.44334,-71.12387,35.299750089645386
1619376514.45896,-26.75266,35.315370082855225
1619376514.47459,15.23979,35.331000089645386
1619376514.49022,52.18497,35.34663009643555
1619376514.50584,82.75764,35.362250089645386
1619376514.52147,106.5386,35.37788009643555
1619376514.53709,123.5345,35.393500089645386
1619376514.55272,133.9312,35.40913009643555
1619376514.56834,138.16,35.424750089645386
1619376514.58397,137.0796,35.44038009643555
1619376514.5996,132.0318,35.45601010322571
1619376514.61522,124.6434,35.47163009643555
1619376514.63085,116.4532,35.48726010322571
1619376514.64647,108.5589,35.50288009643555
1619376514.6621,101.433,35.51851010322571
1619376514.67772,95.07991,35.53413009643555
1619376514.69335,89.3028,35.54976010322571
1619376514.70898,83.99338,35.56539011001587
1619376514.7246,79.24315,35.58101010322571
1619376514.74023,75.32262,35.59664011001587
1619376514.75585,72.47589,35.61226010322571
1619376514.77148,70.7941,35.62789011001587
1619376514.7871,70.10274,35.64351010322571
1619376514.80273,69.95009,35.65914011001587
1619376514.81836,69.70659,35.67477011680603
1619376514.83398,68.66342,35.69039011001587
1619376514.84961,66.17578,35.70602011680603
1619376514.86523,61.78682,35.72164011001587
1619376514.88086,55.33308,35.73727011680603
1619376514.89648,47.01869,35.75289011001587
1619376514.91211,37.34688,35.76852011680603
1619376514.92774,26.94565,35.78415012359619
1619376514.94336,16.31738,35.79977011680603
1619376514.95899,5.653046,35.81540012359619
1619376514.97461,-5.244202,35.83102011680603
1619376514.99024,-16.86664,35.84665012359619
1619376515.00586,-29.80046,35.86227011680603
1619376515.02149,-44.54659,35.87790012359619
1619376515.03712,-61.37407,35.89353013038635
1619376515.05274,-80.14375,35.90915012359619
1619376515.06837,-100.1323,35.92478013038635
1619376515.08399,-119.8105,35.94040012359619
1619376515.09962,-136.7511,35.95603013038635
1619376515.11524,-147.8201,35.97165012359619
1619376515.13087,-149.8468,35.98728013038635
1619376515.1465,-140.5455,36.002910137176514
1619376515.16212,-119.3957,36.01853013038635
1619376515.17775,-88.0032,36.034160137176514
1619376515.19337,-49.78985,36.04978013038635
1619376515.209,-9.081429,36.065410137176514
1619376515.22462,30.03682,36.08103013038635
1619376515.24025,64.57005,36.096660137176514
1619376515.25588,92.92085,36.112290143966675
1619376515.2715,114.6382,36.127910137176514
1619376515.28713,129.9549,36.143540143966675
1619376515.30275,139.3342,36.159160137176514
1619376515.31838,143.3073,36.174790143966675
1619376515.334,142.53,36.190410137176514
1619376515.34963,137.856,36.206040143966675
1619376515.36526,130.2877,36.22166991233826
1619376515.38088,120.7977,36.237290143966675
1619376515.39651,110.1945,36.25291991233826
1619376515.41213,99.05455,36.268540143966675
1619376515.42776,87.85561,36.28416991233826
1619376515.44338,77.10463,36.299790143966675
1619376515.45901,67.38313,36.31541991233826
1619376515.47464,59.19402,36.33104991912842
1619376515.49026,52.73383,36.34666991233826
1619376515.50589,47.75432,36.36229991912842
1619376515.52151,43.61555,36.37791991233826
1619376515.53714,39.53564,36.39354991912842
1619376515.55276,34.95174,36.40916991233826
1619376515.56839,29.75722,36.42479991912842
1619376515.58402,24.26524,36.44042992591858
1619376515.59964,19.05407,36.45604991912842
1619376515.61527,14.69847,36.47167992591858
1619376515.63089,11.69852,36.48729991912842
1619376515.64652,10.42809,36.50292992591858
1619376515.66214,11.04483,36.51854991912842
1619376515.67777,13.43696,36.53417992591858
1619376515.6934,16.97413,36.54980993270874
1619376515.70902,20.49371,36.56542992591858
1619376515.72465,22.34467,36.58105993270874
1619376515.74027,20.82048,36.59667992591858
1619376515.7559,14.60746,36.61230993270874
1619376515.77152,3.321724,36.62792992591858
1619376515.78715,-12.22134,36.64355993270874
1619376515.80278,-29.98416,36.6591899394989
1619376515.8184,-47.01782,36.67480993270874
1619376515.83403,-60.07057,36.6904399394989
1619376515.84965,-66.26038,36.70605993270874
1619376515.86528,-63.68629,36.7216899394989
1619376515.8809,-51.91702,36.73730993270874
1619376515.89653,-32.24889,36.7529399394989
1619376515.91216,-7.675873,36.76856994628906
1619376515.92778,17.31496,36.7841899394989
1619376515.94341,37.37334,36.79981994628906
1619376515.95903,47.47197,36.8154399394989
1619376515.97466,44.46013,36.83106994628906
1619376515.99028,28.62685,36.8466899394989
1619376516.00591,4.331451,36.86231994628906
1619376516.02154,-20.79111,36.877949953079224
1619376516.03716,-38.21762,36.89356994628906
1619376516.05279,-41.54694,36.909199953079224
1619376516.06841,-28.88339,36.92481994628906
1619376516.08404,-3.387604,36.940449953079224
1619376516.09966,28.29062,36.95606994628906
1619376516.11529,58.78088,36.971699953079224
1619376516.13092,82.66086,36.987329959869385
1619376516.14654,97.65732,37.002949953079224
1619376516.16217,104.1526,37.018579959869385
1619376516.17779,103.5729,37.034199953079224
1619376516.19342,96.94339,37.049829959869385
1619376516.20904,84.28043,37.065449953079224
1619376516.22467,65.00613,37.081079959869385
1619376516.2403,38.65582,37.096709966659546
1619376516.25592,5.392487,37.112329959869385
1619376516.27155,-34.14932,37.127959966659546
1619376516.28717,-79.25699,37.143579959869385
1619376516.3028,-129.1061,37.159209966659546
1619376516.31842,-182.1485,37.174829959869385
1619376516.33405,-235.2736,37.190459966659546
1619376516.34968,-283.4167,37.20608997344971
1619376516.3653,-320.3121,37.221709966659546
1619376516.38093,-340.3716,37.23733997344971
1619376516.39655,-340.8909,37.252959966659546
1619376516.41218,-323.4766,37.26858997344971
1619376516.4278,-293.7868,37.284209966659546
1619376516.44343,-259.6802,37.29983997344971
1619376516.45906,-228.6735,37.31546998023987
1619376516.47468,-205.9102,37.33108997344971
1619376516.49031,-193.3703,37.34671998023987
1619376516.50593,-190.3604,37.36233997344971
1619376516.52156,-194.6346,37.37796998023987
1619376516.53719,-203.3167,37.39359998703003
1619376516.55281,-213.2418,37.40921998023987
1619376516.56844,-220.9377,37.42484998703003
1619376516.58406,-222.7366,37.44046998023987
1619376516.59969,-215.3604,37.45609998703003
1619376516.61531,-196.8221,37.47171998023987
1619376516.63094,-167.3016,37.48734998703003
1619376516.64657,-129.2802,37.50297999382019
1619376516.66219,-86.85544,37.51859998703003
1619376516.67782,-44.51752,37.53422999382019
1619376516.69344,-5.833679,37.54984998703003
1619376516.70907,27.34711,37.56547999382019
1619376516.72469,54.81784,37.58109998703003
1619376516.74032,77.28522,37.59672999382019
1619376516.75595,95.49106,37.61236000061035
1619376516.77157,109.5596,37.62797999382019
1619376516.7872,118.9791,37.64361000061035
1619376516.80282,123.0662,37.65922999382019
1619376516.81845,121.6885,37.67486000061035
1619376516.83407,115.684,37.69047999382019
1619376516.8497,106.8898,37.70611000061035
1619376516.86533,97.57944,37.72174000740051
1619376516.88095,89.76682,37.73736000061035
1619376516.89658,84.59543,37.75299000740051
1619376516.9122,82.08774,37.76861000061035
1619376516.92783,81.41748,37.78424000740051
1619376516.94345,81.37634,37.79986000061035
1619376516.95908,80.88199,37.81549000740051
1619376516.97471,79.27173,37.831120014190674
1619376516.99033,76.2796,37.84674000740051
1619376517.00596,71.85516,37.862370014190674
1619376517.02158,65.96207,37.87799000740051
1619376517.03721,58.43143,37.893620014190674
1619376517.05283,49.07889,37.90924000740051
1619376517.06846,37.8389,37.924870014190674
1619376517.08409,24.97858,37.940500020980835
1619376517.09971,11.13419,37.956120014190674
1619376517.11534,-2.771622,37.971750020980835
1619376517.13096,-15.79866,37.987370014190674
1619376517.14659,-27.3127,38.003000020980835
1619376517.16221,-37.16972,38.018620014190674
1619376517.17784,-45.81001,38.034250020980835
1619376517.19347,-54.14307,38.049880027770996
1619376517.20909,-63.32993,38.065500020980835
1619376517.22472,-74.51518,38.081130027770996
1619376517.24034,-88.51424,38.096750020980835
1619376517.25597,-105.4383,38.112380027770996
1619376517.27159,-124.349,38.128000020980835
1619376517.28722,-143.0583,38.143630027770996
1619376517.30285,-158.3029,38.15926003456116
1619376517.31847,-166.3419,38.174880027770996
1619376517.3341,-163.8928,38.19051003456116
1619376517.34972,-149.1869,38.206130027770996
1619376517.36535,-122.5871,38.22176003456116
1619376517.38097,-86.55237,38.237380027770996
1619376517.3966,-44.96761,38.25301003456116
1619376517.41223,-2.068825,38.26864004135132
1619376517.42785,38.51323,38.28426003456116
1619376517.44348,74.35146,38.29989004135132
1619376517.4591,104.1467,38.31551003456116
1619376517.47473,127.4677,38.33114004135132
1619376517.49035,144.3042,38.34676003456116
1619376517.50598,154.8472,38.36239004135132
1619376517.52161,159.4775,38.37802004814148
1619376517.53723,158.8776,38.39364004135132
1619376517.55286,154.1558,38.40927004814148
1619376517.56848,146.7326,38.42489004135132
1619376517.58411,138.1427,38.44052004814148
1619376517.59973,129.6889,38.45614004135132
1619376517.61536,122.2509,38.47177004814148
1619376517.63099,116.1809,38.48740005493164
1619376517.64661,111.4588,38.50302004814148
1619376517.66224,107.912,38.51865005493164
1619376517.67786,105.4333,38.53427004814148
1619376517.69349,104.0768,38.54990005493164
1619376517.70911,103.9047,38.56552004814148
1619376517.72474,104.8353,38.58115005493164
1619376517.74037,106.3757,38.5967800617218
1619376517.75599,107.5835,38.61240005493164
1619376517.77162,107.1979,38.6280300617218
1619376517.78724,103.9923,38.64365005493164
1619376517.80287,97.1602,38.6592800617218
1619376517.81849,86.5874,38.67490005493164
1619376517.83412,72.93363,38.6905300617218
1619376517.84975,57.38737,38.70616006851196
1619376517.86537,41.26749,38.7217800617218
1619376517.881,25.60059,38.73741006851196
1619376517.89662,10.84961,38.7530300617218
1619376517.91225,-3.139275,38.76866006851196
1619376517.92787,-16.97599,38.7842800617218
1619376517.9435,-31.44452,38.79991006851196
1619376517.95913,-47.25023,38.815540075302124
1619376517.97475,-64.75946,38.83116006851196
1619376517.99038,-83.73717,38.846790075302124
1619376518.006,-103.1176,38.86241006851196
1619376518.02163,-120.8548,38.878040075302124
1619376518.03725,-134.084,38.89366006851196
1619376518.05288,-139.629,38.909290075302124
1619376518.06851,-134.8637,38.924920082092285
1619376518.08413,-118.5814,38.940540075302124
1619376518.09976,-91.58342,38.956170082092285
1619376518.11538,-56.54029,38.971790075302124
1619376518.13101,-17.29274,38.987420082092285
1619376518.14663,22.18616,39.003040075302124
1619376518.16226,58.67833,39.018670082092285
1619376518.17789,90.13285,39.034300088882446
1619376518.19351,115.4861,39.049920082092285
1619376518.20914,134.2925,39.065550088882446
1619376518.22476,146.3585,39.081170082092285
1619376518.24039,151.6965,39.096800088882446
1619376518.25601,150.7091,39.112420082092285
1619376518.27164,144.3962,39.128050088882446
1619376518.28727,134.2994,39.14368009567261
1619376518.30289,122.192,39.159300088882446
1619376518.31852,109.5917,39.17493009567261
1619376518.33414,97.41055,39.190550088882446
1619376518.34977,85.8816,39.20618009567261
1619376518.36539,74.7845,39.221800088882446
1619376518.38102,63.87543,39.23743009567261
1619376518.39665,53.22732,39.25306010246277
1619376518.41227,43.27311,39.26868009567261
1619376518.4279,34.62877,39.28431010246277
1619376518.44352,27.72298,39.29993009567261
1619376518.45915,22.47419,39.31556010246277
1619376518.47477,18.19046,39.33118009567261
1619376518.4904,13.72145,39.34681010246277
1619376518.50603,7.856346,39.36244010925293
1619376518.52165,-0.2455521,39.37806010246277
1619376518.53728,-10.72679,39.39369010925293
1619376518.5529,-23.01288,39.40931010246277
1619376518.56853,-36.07635,39.42494010925293
1619376518.58415,-48.85555,39.44056010246277
1619376518.59978,-60.71991,39.45619010925293
1619376518.61541,-71.71601,39.47182011604309
1619376518.63103,-82.54005,39.48744010925293
1619376518.64666,-94.31108,39.50307011604309
1619376518.66228,-108.225,39.51869010925293
1619376518.67791,-125.1714,39.53432011604309
1619376518.69354,-145.3174,39.54995012283325
1619376518.70916,-167.7892,39.56557011604309
1619376518.72479,-190.4396,39.58120012283325
1619376518.74041,-210.0106,39.59682011604309
1619376518.75604,-222.6727,39.61245012283325
1619376518.77166,-224.9874,39.62807011604309
1619376518.78729,-214.9417,39.64370012283325
1619376518.80292,-192.641,39.65933012962341
1619376518.81854,-160.3447,39.67495012283325
1619376518.83417,-121.8102,39.69058012962341
1619376518.84979,-81.22874,39.70620012283325
1619376518.86542,-42.21922,39.72183012962341
1619376518.88104,-7.267746,39.73745012283325
1619376518.89667,22.30339,39.75308012962341
1619376518.9123,45.98368,39.768710136413574
1619376518.92792,63.66455,39.78433012962341
1619376518.94355,75.49903,39.799960136413574
1619376518.95917,81.95387,39.81558012962341
1619376518.9748,83.91882,39.831210136413574
1619376518.99042,82.70578,39.84683012962341
1619376519.00605,79.78716,39.862460136413574
1619376519.02168,76.39631,39.878090143203735
1619376519.0373,73.19803,39.893710136413574
1619376519.05293,70.18476,39.909340143203735
1619376519.06855,66.85062,39.924960136413574
1619376519.08418,62.62302,39.940590143203735
1619376519.0998,57.23401,39.956210136413574
1619376519.11543,50.93833,39.971840143203735
1619376519.13106,44.38894,39.98746991157532
1619376519.14668,38.3565,40.003090143203735
1619376519.16231,33.31091,40.01871991157532
1619376519.17793,29.17556,40.034340143203735
1619376519.19356,25.36139,40.04996991157532
1619376519.20918,20.96914,40.065590143203735
1619376519.22481,15.23106,40.08121991157532
1619376519.24044,7.765489,40.09684991836548
1619376519.25606,-1.268435,40.11246991157532
1619376519.27169,-11.27535,40.12809991836548
1619376519.28731,-21.507,40.14371991157532
1619376519.30294,-31.31959,40.15934991836548
1619376519.31856,-40.43118,40.17496991157532
1619376519.33419,-48.96376,40.19059991836548
1619376519.34982,-57.45659,40.20622992515564
1619376519.36544,-66.75921,40.22184991836548
1619376519.38107,-77.7756,40.23747992515564
1619376519.39669,-91.11211,40.25309991836548
1619376519.41232,-106.6154,40.26872992515564
1619376519.42794,-122.9811,40.28434991836548
1619376519.44357,-137.645,40.29997992515564
1619376519.4592,-147.2426,40.3156099319458
1619376519.47482,-148.4708,40.33122992515564
1619376519.49045,-139.1624,40.3468599319458
1619376519.50607,-119.0397,40.36247992515564
1619376519.5217,-89.89408,40.3781099319458
1619376519.53732,-55.02028,40.39372992515564
1619376519.55295,-18.19907,40.4093599319458
1619376519.56858,17.24297,40.42498993873596
1619376519.5842,49.02158,40.4406099319458
1619376519.59983,75.90165,40.45623993873596
1619376519.61545,97.35745,40.4718599319458
1619376519.63108,113.1319,40.48748993873596
1619376519.6467,123.0951,40.5031099319458
1619376519.66233,127.2743,40.51873993873596
1619376519.67796,126.1146,40.53436994552612
1619376519.69358,120.6344,40.54998993873596
1619376519.70921,112.3382,40.56561994552612
1619376519.72483,102.8769,40.58123993873596
1619376519.74046,93.61355,40.59686994552612
1619376519.75608,85.29533,40.61248993873596
1619376519.77171,77.97781,40.62811994552612
1619376519.78734,71.30049,40.643749952316284
1619376519.80296,64.88273,40.65936994552612
1619376519.81859,58.658,40.674999952316284
1619376519.83421,53.01431,40.69061994552612
1619376519.84984,48.56424,40.706249952316284
1619376519.86546,45.74408,40.72186994552612
1619376519.88109,44.4116,40.737499952316284
1619376519.89672,43.70074,40.753129959106445
1619376519.91234,42.19981,40.768749952316284
1619376519.92797,38.43522,40.784379959106445
1619376519.94359,31.39778,40.799999952316284
1619376519.95922,20.93906,40.815629959106445
1619376519.97484,7.783554,40.831249952316284
1619376519.99047,-6.737137,40.846879959106445
1619376520.0061,-21.21184,40.862509965896606
1619376520.02172,-34.61143,40.878129959106445
1619376520.03735,-46.61041,40.893759965896606
1619376520.05297,-57.61896,40.909379959106445
1619376520.0686,-68.60458,40.925009965896606
1619376520.08422,-80.7856,40.940629959106445
1619376520.09985,-95.27177,40.956259965896606
1619376520.11548,-112.6923,40.97188997268677
1619376520.1311,-132.8138,40.987509965896606
1619376520.14673,-154.2197,41.00313997268677
1619376520.16235,-174.2374,41.018759965896606
1619376520.17798,-189.2641,41.03438997268677
1619376520.1936,-195.5708,41.050009965896606
1619376520.20923,-190.3105,41.06563997268677
1619376520.22486,-172.4476,41.08126997947693
1619376520.24048,-143.1106,41.09688997268677
1619376520.25611,-105.319,41.11251997947693
1619376520.27173,-63.0896,41.12813997268677
1619376520.28736,-20.42859,41.14376997947693
1619376520.30298,19.46661,41.15938997268677
1619376520.31861,54.50398,41.17501997947693
1619376520.33424,83.55165,41.19064998626709
1619376520.34986,106.1161,41.20626997947693
1619376520.36549,122.1011,41.22189998626709
1619376520.38111,131.7178,41.23751997947693
1619376520.39674,135.5855,41.25314998626709
1619376520.41236,134.7639,41.26876997947693
1619376520.42799,130.6733,41.28439998626709
1619376520.44362,124.8741,41.30002999305725
1619376520.45924,118.7712,41.31564998626709
1619376520.47487,113.3148,41.33127999305725
1619376520.49049,108.8849,41.34689998626709
1619376520.50612,105.3351,41.36252999305725
1619376520.52174,102.2271,41.37814998626709
1619376520.53737,99.14885,41.39377999305725
1619376520.553,95.95619,41.40940999984741
1619376520.56862,92.84392,41.42502999305725
1619376520.58425,90.13226,41.44065999984741
1619376520.59987,88.02826,41.45627999305725
1619376520.6155,86.2796,41.47190999984741
1619376520.63112,84.14896,41.48752999305725
1619376520.64675,80.58989,41.50315999984741
1619376520.66238,74.67833,41.51879000663757
1619376520.678,66.0154,41.53440999984741
1619376520.69363,54.94386,41.55004000663757
1619376520.70925,42.46107,41.56565999984741
1619376520.72488,29.79593,41.58129000663757
1619376520.7405,17.95317,41.59690999984741
1619376520.75613,7.332718,41.61254000663757
1619376520.77176,-2.349426,41.628170013427734
1619376520.78738,-11.92525,41.64379000663757
1619376520.80301,-22.45288,41.659420013427734
1619376520.81863,-34.94337,41.67504000663757
1619376520.83426,-50.05899,41.690670013427734
1619376520.84988,-67.92369,41.70629000663757
1619376520.86551,-87.85458,41.721920013427734
1619376520.88114,-108.1322,41.737550020217896
1619376520.89676,-125.9968,41.753170013427734
1619376520.91239,-137.9325,41.768800020217896
1619376520.92801,-140.4558,41.784420013427734
1619376520.94364,-131.1286,41.800050020217896
1619376520.95926,-109.4582,41.815670013427734
1619376520.97489,-77.19014,41.831300020217896
1619376520.99052,-37.91777,41.84693002700806
1619376521.00614,3.930679,41.862550020217896
1619376521.02177,44.2715,41.87818002700806
1619376521.03739,80.1487,41.893800020217896
1619376521.05302,109.9697,41.90943002700806
1619376521.06865,133.1316,41.92506003379822
1619376521.08427,149.5494,41.94068002700806
1619376521.0999,159.2563,41.95631003379822
1619376521.11552,162.4367,41.97193002700806
1619376521.13115,159.5704,41.98756003379822
1619376521.14677,151.7085,42.00318002700806
1619376521.1624,140.3767,42.01881003379822
1619376521.17803,127.2245,42.03444004058838
1619376521.19365,113.6279,42.05006003379822
1619376521.20928,100.3359,42.06569004058838
1619376521.2249,87.52542,42.08131003379822
1619376521.24053,75.02122,42.09694004058838
1619376521.25615,62.71086,42.11256003379822
1619376521.27178,50.76086,42.12819004058838
1619376521.28741,39.61095,42.14382004737854
1619376521.30303,29.83429,42.15944004058838
1619376521.31866,21.76776,42.17507004737854
1619376521.33428,15.30035,42.19069004058838
1619376521.34991,9.682312,42.20632004737854
1619376521.36553,3.640266,42.22194004058838
1619376521.38116,-4.325256,42.23757004737854
1619376521.39679,-15.39066,42.2532000541687
1619376521.41241,-29.866,42.26882004737854
1619376521.42804,-46.94482,42.2844500541687
1619376521.44366,-64.86396,42.30007004737854
1619376521.45929,-81.6046,42.3157000541687
1619376521.47491,-95.72939,42.33132004737854
1619376521.49054,-107.0236,42.3469500541687
1619376521.50617,-116.6151,42.36258006095886
1619376521.52179,-126.4381,42.3782000541687
1619376521.53742,-138.2478,42.39383006095886
1619376521.55304,-152.8171,42.4094500541687
1619376521.56867,-169.3878,42.42508006095886
1619376521.58429,-185.7128,42.4407000541687
1619376521.59992,-198.5985,42.45633006095886
1619376521.61555,-204.5339,42.47196006774902
1619376521.63117,-200.3188,42.48758006095886
1619376521.6468,-183.5191,42.50321006774902
1619376521.66242,-152.9035,42.51883006095886
1619376521.67805,-108.84,42.53446006774902
1619376521.69367,-53.61062,42.55008006095886
1619376521.7093,8.623196,42.56571006774902
1619376521.72493,72.41229,42.581340074539185
1619376521.74055,132.0153,42.59696006774902
1619376521.75618,182.7372,42.612590074539185
1619376521.7718,221.881,42.62821006774902
1619376521.78743,249.0394,42.643840074539185
1619376521.80305,265.5707,42.65946006774902
1619376521.81868,273.584,42.675090074539185
1619376521.83431,274.9307,42.690720081329346
1619376521.84993,270.6259,42.706340074539185
1619376521.86556,260.9424,42.721970081329346
1619376521.88118,245.8019,42.737590074539185
1619376521.89681,225.3581,42.753220081329346
1619376521.91243,200.1923,42.768840074539185
1619376521.92806,171.2315,42.784470081329346
1619376521.94369,139.3945,42.80010008811951
1619376521.95931,105.1798,42.815720081329346
1619376521.97494,68.69795,42.83135008811951
1619376521.99056,30.21034,42.846970081329346
1619376522.00619,-8.919418,42.86260008811951
1619376522.02181,-45.58271,42.878220081329346
1619376522.03744,-74.97772,42.89385008811951
1619376522.05307,-91.94174,42.90948009490967
1619376522.06869,-92.83617,42.92510008811951
1619376522.08432,-77.29198,42.94073009490967
1619376522.09994,-48.72391,42.95635008811951
1619376522.11557,-13.38895,42.97198009490967
1619376522.13119,21.77318,42.98760008811951
1619376522.14682,51.23206,43.00323009490967
1619376522.16245,72.00043,43.01886010169983
1619376522.17807,83.44728,43.03448009490967
1619376522.1937,86.21101,43.05011010169983
1619376522.20932,81.18021,43.06573009490967
1619376522.22495,68.98888,43.08136010169983
1619376522.24057,50.36824,43.09698009490967
1619376522.2562,26.59938,43.11261010169983
1619376522.27183,-0.4475555,43.12824010848999
1619376522.28745,-28.80325,43.14386010169983
1619376522.30308,-57.3824,43.15949010848999
1619376522.3187,-86.83511,43.17511010169983
1619376522.33433,-119.7753,43.19074010848999
1619376522.34995,-160.032,43.20636010169983
1619376522.36558,-210.7003,43.22199010848999
1619376522.38121,-271.8687,43.23762011528015
1619376522.39683,-339.0084,43.25324010848999
1619376522.41246,-403.2778,43.26887011528015
1619376522.42808,-453.9267,43.28449010848999
1619376522.44371,-482.0822,43.30012011528015
1619376522.45933,-484.0668,43.31574010848999
1619376522.47496,-462.6194,43.33137011528015
1619376522.49059,-425.3327,43.34700012207031
1619376522.50621,-381.2243,43.36262011528015
1619376522.52184,-337.1698,43.37825012207031
1619376522.53746,-296.0375,43.39387011528015
1619376522.55309,-257.1929,43.40950012207031
1619376522.56871,-218.4759,43.42512011528015
1619376522.58434,-178.181,43.44075012207031
1619376522.59997,-135.8893,43.456380128860474
1619376522.61559,-92.10547,43.47200012207031
1619376522.63122,-47.55569,43.487630128860474
1619376522.64684,-2.891418,43.50325012207031
1619376522.66247,40.9285,43.518880128860474
1619376522.67809,82.06956,43.53450012207031
1619376522.69372,117.8761,43.550130128860474
1619376522.70935,145.6785,43.565760135650635
1619376522.72497,163.799,43.581380128860474
1619376522.7406,172.3149,43.597010135650635
1619376522.75622,173.0263,43.612630128860474
1619376522.77185,168.6535,43.628260135650635
1619376522.78747,161.8547,43.643880128860474
1619376522.8031,154.451,43.659510135650635
1619376522.81873,147.2407,43.675140142440796
1619376522.83435,140.1339,43.690760135650635
1619376522.84998,132.5235,43.706390142440796
1619376522.8656,123.5358,43.722010135650635
1619376522.88123,112.3307,43.737640142440796
1619376522.89685,98.38722,43.753260135650635
1619376522.91248,81.78351,43.768890142440796
1619376522.92811,63.32347,43.78451991081238
1619376522.94373,44.37531,43.800140142440796
1619376522.95936,26.34738,43.81576991081238
1619376522.97498,10.06665,43.831390142440796
1619376522.99061,-4.554527,43.84701991081238
1619376523.00623,-18.6996,43.862640142440796
1619376523.02186,-34.21519,43.87826991081238
1619376523.03749,-52.95319,43.89389991760254
1619376523.05311,-75.88726,43.90951991081238
1619376523.06874,-102.3936,43.92514991760254
1619376523.08436,-129.8892,43.94076991081238
1619376523.09999,-154.0768,43.95639991760254
1619376523.11561,-169.865,43.97201991081238
1619376523.13124,-172.7245,43.98764991760254
1619376523.14687,-160.0379,44.0032799243927
1619376523.16249,-131.9046,44.01889991760254
1619376523.17812,-91.18123,44.0345299243927
1619376523.19374,-42.63947,44.05014991760254
1619376523.20937,8.300608,44.0657799243927
1619376523.22499,56.85691,44.08139991760254
1619376523.24062,99.67148,44.0970299243927
1619376523.25625,134.903,44.11265993118286
1619376523.27187,161.937,44.1282799243927
1619376523.2875,180.8158,44.14390993118286
1619376523.30312,191.8729,44.1595299243927
1619376523.31875,195.6392,44.17515993118286
1619376523.33437,192.9621,44.1907799243927
1619376523.35,185.1715,44.20640993118286
1619376523.36563,174.0193,44.22203993797302
1619376523.38125,161.4876,44.23765993118286
1619376523.39688,149.338,44.25328993797302
1619376523.4125,138.7661,44.26890993118286
1619376523.42813,130.143,44.28453993797302
1619376523.44375,123.1474,44.30015993118286
1619376523.45938,117.0395,44.31578993797302
1619376523.47501,111.0605,44.331419944763184
1619376523.49063,104.7424,44.34703993797302
1619376523.50626,98.01327,44.362669944763184
1619376523.52188,91.12825,44.37828993797302
1619376523.53751,84.4077,44.393919944763184
1619376523.55314,77.98306,44.409549951553345
1619376523.56876,71.63989,44.425169944763184
1619376523.58439,64.85961,44.440799951553345
1619376523.60001,57.06699,44.456419944763184
1619376523.61564,47.90732,44.472049951553345
1619376523.63126,37.45564,44.487669944763184
1619376523.64689,26.20513,44.503299951553345
1619376523.66252,14.86194,44.518929958343506
1619376523.67814,3.961626,44.534549951553345
1619376523.69377,-6.398268,44.550179958343506
1619376523.70939,-16.69012,44.565799951553345
1619376523.72502,-27.86189,44.581429958343506
1619376523.74064,-41.016,44.597049951553345
1619376523.75627,-57.1328,44.612679958343506
1619376523.7719,-76.69106,44.62830996513367
1619376523.78752,-99.39351,44.643929958343506
1619376523.80315,-123.8452,44.65955996513367
1619376523.81877,-147.4986,44.675179958343506
1619376523.8344,-166.8083,44.69080996513367
1619376523.85002,-177.9204,44.706429958343506
1619376523.86565,-177.6312,44.72205996513367
1619376523.88128,-164.4195,44.73768997192383
1619376523.8969,-139.028,44.75330996513367
1619376523.91253,-104.3075,44.76893997192383
1619376523.92815,-64.45136,44.78455996513367
1619376523.94378,-23.80585,44.80018997192383
1619376523.9594,14.05845,44.81580996513367
1619376523.97503,46.80925,44.83143997192383
1619376523.99066,73.24023,44.84706997871399
1619376524.00628,92.86101,44.86268997192383
1619376524.02191,105.5173,44.87831997871399
1619376524.03753,111.2959,44.89393997192383
1619376524.05316,110.686,44.90956997871399
1619376524.06878,104.7411,44.92518997192383
1619376524.08441,95.10324,44.94081997871399
1619376524.10004,83.69933,44.95644998550415
1619376524.11566,72.27211,44.97206997871399
1619376524.13129,61.93567,44.98769998550415
1619376524.14691,52.99106,45.00331997871399
1619376524.16254,45.0126,45.01894998550415
1619376524.17816,37.25235,45.03456997871399
1619376524.19379,29.07393,45.05019998550415
1619376524.20942,20.30974,45.06582999229431
1619376524.22504,11.32824,45.08144998550415
1619376524.24067,2.787125,45.09707999229431
1619376524.25629,-4.677937,45.11269998550415
1619376524.27192,-10.86604,45.12832999229431
1619376524.28754,-16.11544,45.14394998550415
1619376524.30317,-21.2366,45.15957999229431
1619376524.3188,-27.16048,45.17520999908447
1619376524.33442,-34.60025,45.19082999229431
1619376524.35005,-43.76861,45.20645999908447
1619376524.36567,-54.3116,45.22207999229431
1619376524.3813,-65.4902,45.23770999908447
1619376524.39692,-76.4657,45.25332999229431
1619376524.41255,-86.61475,45.26895999908447
1619376524.42818,-95.72627,45.284590005874634
1619376524.4438,-104.0493,45.30020999908447
1619376524.45943,-112.2089,45.315840005874634
1619376524.47505,-121.0581,45.33145999908447
1619376524.49068,-131.4677,45.347090005874634
1619376524.5063,-144.0198,45.36270999908447
1619376524.52193,-158.629,45.378340005874634
1619376524.53756,-174.1904,45.393970012664795
1619376524.55318,-188.4024,45.409590005874634
1619376524.56881,-198.028,45.425220012664795
1619376524.58443,-199.6315,45.440840005874634
1619376524.60006,-190.5407,45.456470012664795
1619376524.61568,-169.7777,45.472090005874634
1619376524.63131,-138.5153,45.487720012664795
1619376524.64694,-99.75194,45.503350019454956
1619376524.66256,-57.49281,45.518970012664795
1619376524.67819,-15.67195,45.534600019454956
1619376524.69381,22.67828,45.550220012664795
1619376524.70944,55.72028,45.565850019454956
1619376524.72506,82.64113,45.581470012664795
1619376524.74069,103.1797,45.597100019454956
1619376524.75632,117.2862,45.61273002624512
1619376524.77194,124.9893,45.628350019454956
1619376524.78757,126.6002,45.64398002624512
1619376524.80319,122.9049,45.659600019454956
1619376524.81882,115.293,45.67523002624512
1619376524.83444,105.5936,45.690850019454956
1619376524.85007,95.66798,45.70648002624512
1619376524.8657,86.96503,45.72211003303528
1619376524.88132,80.20685,45.73773002624512
1619376524.89695,75.37909,45.75336003303528
1619376524.91257,72.00498,45.76898002624512
1619376524.9282,69.50137,45.78461003303528
1619376524.94382,67.52524,45.80023002624512
1619376524.95945,66.03826,45.81586003303528
1619376524.97508,65.15397,45.83149003982544
1619376524.9907,64.83621,45.84711003303528
1619376525.00633,64.64315,45.86274003982544
1619376525.02195,63.72078,45.87836003303528
1619376525.03758,60.94884,45.89399003982544
1619376525.0532,55.30151,45.90961003303528
1619376525.06883,46.21568,45.92524003982544
1619376525.08446,33.81829,45.9408700466156
1619376525.10008,18.90987,45.95649003982544
1619376525.11571,2.756218,45.9721200466156
1619376525.13133,-13.3258,45.98774003982544
1619376525.14696,-28.38817,46.0033700466156
1619376525.16258,-42.10821,46.01899003982544
1619376525.17821,-54.82695,46.0346200466156
1619376525.19384,-67.43501,46.05025005340576
1619376525.20946,-81.08332,46.0658700466156
1619376525.22509,-96.8746,46.08150005340576
1619376525.24071,-115.5564,46.0971200466156
1619376525.25634,-137.0834,46.11275005340576
1619376525.27196,-160.231,46.1283700466156
1619376525.28759,-182.4086,46.14400005340576
1619376525.30322,-199.8118,46.15963006019592
1619376525.31884,-208.1717,46.17525005340576
1619376525.33447,-203.8686,46.19088006019592
1619376525.35009,-185.1464,46.20650005340576
1619376525.36572,-152.7593,46.22213006019592
1619376525.38134,-109.9319,46.23775005340576
1619376525.39697,-61.45038,46.25338006019592
1619376525.4126,-12.38232,46.269010066986084
1619376525.42822,33.03253,46.28463006019592
1619376525.44385,71.99699,46.300260066986084
1619376525.45947,103.166,46.31588006019592
1619376525.4751,126.2189,46.331510066986084
1619376525.49072,141.3907,46.34713006019592
