timestamp,value,norm_ts
1617796226.75226,3.127403,1.3889498710632324
1617796226.76788,4.8349,1.4045698642730713
1617796226.78351,5.868721,1.4201998710632324
1617796226.79914,6.249924,1.4358298778533936
1617796226.81476,6.012566,1.4514498710632324
1617796226.83039,5.184502,1.4670798778533936
1617796226.84601,3.856575,1.4826998710632324
1617796226.86164,2.254555,1.4983298778533936
1617796226.87726,0.7176437,1.5139498710632324
1617796226.89289,-0.3602905,1.5295798778533936
1617796226.90852,-0.6957092,1.5452098846435547
1617796226.92414,-0.2281914,1.5608298778533936
1617796226.93977,0.7984886,1.5764598846435547
1617796226.95539,1.930267,1.5920798778533936
1617796226.97102,2.683201,1.6077098846435547
1617796226.98664,2.754959,1.6233298778533936
1617796227.00227,2.127773,1.6389598846435547
1617796227.0179,1.028976,1.6545898914337158
1617796227.03352,-0.2228928,1.6702098846435547
1617796227.04915,-1.414116,1.6858398914337158
1617796227.06477,-2.503937,1.7014598846435547
1617796227.0804,-3.656763,1.7170898914337158
1617796227.09602,-5.069294,1.7327098846435547
1617796227.11165,-6.874397,1.7483398914337158
1617796227.12728,-9.064233,1.763969898223877
1617796227.1429,-11.50917,1.7795898914337158
1617796227.15853,-14.05248,1.795219898223877
1617796227.17415,-16.60913,1.8108398914337158
1617796227.18978,-19.26954,1.826469898223877
1617796227.2054,-22.23339,1.8420898914337158
1617796227.22103,-25.68332,1.857719898223877
1617796227.23666,-29.63919,1.873349905014038
1617796227.25228,-33.76791,1.888969898223877
1617796227.26791,-37.39963,1.904599905014038
1617796227.28353,-39.67105,1.920219898223877
1617796227.29916,-39.80901,1.935849905014038
1617796227.31478,-37.37985,1.951469898223877
1617796227.33041,-32.44071,1.967099905014038
1617796227.34604,-25.52115,1.9827299118041992
1617796227.36166,-17.41295,1.998349905014038
1617796227.37729,-8.986832,2.013979911804199
1617796227.39291,-0.9547501,2.029599905014038
1617796227.40854,6.198895,2.045229911804199
1617796227.42416,12.2366,2.060849905014038
1617796227.43979,17.08888,2.076479911804199
1617796227.45542,20.81417,2.0921099185943604
1617796227.47104,23.50401,2.107729911804199
1617796227.48667,25.23913,2.1233599185943604
1617796227.50229,26.06762,2.138979911804199
1617796227.51792,26.01856,2.1546099185943604
1617796227.53354,25.16707,2.170229911804199
1617796227.54917,23.69793,2.1858599185943604
1617796227.5648,21.90387,2.2014899253845215
1617796227.58042,20.10436,2.2171099185943604
1617796227.59605,18.58515,2.2327399253845215
1617796227.61167,17.48331,2.2483599185943604
1617796227.6273,16.78897,2.2639899253845215
1617796227.64292,16.43668,2.2796099185943604
1617796227.65855,16.367,2.2952399253845215
1617796227.67418,16.58694,2.3108699321746826
1617796227.6898,17.12273,2.3264899253845215
1617796227.70543,17.91719,2.3421199321746826
1617796227.72105,18.84538,2.3577399253845215
1617796227.73668,19.66037,2.3733699321746826
1617796227.7523,20.08853,2.3889899253845215
1617796227.76793,19.95972,2.4046199321746826
1617796227.78356,19.23526,2.4202499389648438
1617796227.79918,17.92921,2.4358699321746826
1617796227.81481,16.08815,2.4514999389648438
1617796227.83043,13.72032,2.4671199321746826
1617796227.84606,10.81332,2.4827499389648438
1617796227.86168,7.466888,2.4983699321746826
1617796227.87731,3.869095,2.5139999389648438
1617796227.89294,0.3122253,2.529629945755005
1617796227.90856,-2.998734,2.5452499389648438
1617796227.92419,-6.02562,2.560879945755005
1617796227.93981,-8.979538,2.5764999389648438
1617796227.95544,-12.21632,2.592129945755005
1617796227.97106,-16.08786,2.6077499389648438
1617796227.98669,-20.76682,2.623379945755005
1617796228.00232,-26.11819,2.639009952545166
1617796228.01794,-31.71214,2.654629945755005
1617796228.03357,-36.85072,2.670259952545166
1617796228.04919,-40.72838,2.685879945755005
1617796228.06482,-42.54825,2.701509952545166
1617796228.08044,-41.71458,2.717129945755005
1617796228.09607,-37.99477,2.732759952545166
1617796228.1117,-31.59702,2.748389959335327
1617796228.12732,-23.16788,2.764009952545166
1617796228.14295,-13.61089,2.779639959335327
1617796228.15857,-3.884918,2.795259952545166
1617796228.1742,5.244904,2.810889959335327
1617796228.18982,13.23639,2.826509952545166
1617796228.20545,19.81192,2.842139959335327
1617796228.22108,24.8688,2.8577699661254883
1617796228.2367,28.45734,2.873389959335327
1617796228.25233,30.72885,2.8890199661254883
1617796228.26795,31.90689,2.904639959335327
1617796228.28358,32.28488,2.9202699661254883
1617796228.2992,32.10165,2.935889959335327
1617796228.31483,31.51328,2.9515199661254883
1617796228.33046,30.56058,2.9671499729156494
1617796228.34608,29.25757,2.9827699661254883
1617796228.36171,27.67355,2.9983999729156494
1617796228.37733,25.98868,3.0140199661254883
1617796228.39296,24.52451,3.0296499729156494
1617796228.40858,23.58627,3.0452699661254883
1617796228.42421,23.36713,3.0608999729156494
1617796228.43984,23.86511,3.0765299797058105
1617796228.45546,24.87988,3.0921499729156494
1617796228.47109,26.06604,3.1077799797058105
1617796228.48671,27.08109,3.1233999729156494
1617796228.50234,27.65961,3.1390299797058105
1617796228.51796,27.66611,3.1546499729156494
1617796228.53359,27.10162,3.1702799797058105
1617796228.54922,26.03668,3.1859099864959717
1617796228.56484,24.56885,3.2015299797058105
1617796228.58047,22.81714,3.2171599864959717
1617796228.59609,20.85648,3.2327799797058105
1617796228.61172,18.74051,3.2484099864959717
1617796228.62735,16.49139,3.264039993286133
1617796228.64297,14.07416,3.2796599864959717
1617796228.6586,11.40146,3.295289993286133
1617796228.67422,8.393677,3.3109099864959717
1617796228.68985,4.967926,3.326539993286133
1617796228.70547,1.170624,3.3421599864959717
1617796228.7211,-2.876678,3.357789993286133
1617796228.73673,-6.957916,3.373420000076294
1617796228.75235,-10.85864,3.389039993286133
1617796228.76798,-14.43597,3.404670000076294
1617796228.7836,-17.70923,3.420289993286133
1617796228.79923,-20.84,3.435920000076294
1617796228.81485,-24.09244,3.451539993286133
1617796228.83048,-27.74844,3.467170000076294
1617796228.84611,-31.91171,3.482800006866455
1617796228.86173,-36.45377,3.498420000076294
1617796228.87736,-40.93442,3.514050006866455
1617796228.89298,-44.64221,3.529670000076294
1617796228.90861,-46.73883,3.545300006866455
1617796228.92423,-46.43884,3.560920000076294
1617796228.93986,-43.276,3.576550006866455
1617796228.95549,-37.20837,3.592180013656616
1617796228.97111,-28.7269,3.607800006866455
1617796228.98674,-18.7178,3.623430013656616
1617796229.00236,-8.294128,3.639050006866455
1617796229.01799,1.525879,3.654680013656616
1617796229.03361,9.981354,3.670300006866455
1617796229.04924,16.72256,3.685930013656616
1617796229.06487,21.75208,3.7015600204467773
1617796229.08049,25.27594,3.717180013656616
1617796229.09612,27.56775,3.7328100204467773
1617796229.11174,28.82278,3.748430013656616
1617796229.12737,29.16623,3.7640600204467773
1617796229.14299,28.72137,3.779680013656616
1617796229.15862,27.66837,3.7953100204467773
1617796229.17425,26.2536,3.8109397888183594
1617796229.18987,24.73276,3.8265600204467773
1617796229.2055,23.33252,3.8421897888183594
1617796229.22112,22.15314,3.8578100204467773
1617796229.23675,21.24521,3.8734397888183594
1617796229.25237,20.63077,3.8890600204467773
1617796229.268,20.38901,3.9046897888183594
1617796229.28363,20.63232,3.9203197956085205
1617796229.29925,21.45969,3.9359397888183594
1617796229.31488,22.84341,3.9515697956085205
1617796229.3305,24.58725,3.9671897888183594
1617796229.34613,26.34671,3.9828197956085205
1617796229.36175,27.75223,3.9984397888183594
1617796229.37738,28.54642,4.0140697956085205
1617796229.39301,28.67932,4.029699802398682
1617796229.40863,28.27521,4.0453197956085205
1617796229.42426,27.54849,4.060949802398682
1617796229.43988,26.67563,4.0765697956085205
1617796229.45551,25.70844,4.092199802398682
1617796229.47113,24.57474,4.1078197956085205
1617796229.48676,23.14346,4.123449802398682
1617796229.50239,21.28818,4.139079809188843
1617796229.51801,18.94446,4.154699802398682
1617796229.53364,16.11127,4.170329809188843
1617796229.54926,12.7681,4.185949802398682
1617796229.56489,8.851257,4.201579809188843
1617796229.58051,4.247803,4.217199802398682
1617796229.59614,-1.125916,4.232829809188843
1617796229.61177,-7.205811,4.248459815979004
1617796229.62739,-13.72443,4.264079809188843
1617796229.64302,-20.25244,4.279709815979004
1617796229.65864,-26.27368,4.295329809188843
1617796229.67427,-31.39178,4.310959815979004
1617796229.68989,-35.41949,4.326579809188843
1617796229.70552,-38.44727,4.342209815979004
1617796229.72115,-40.77942,4.357839822769165
1617796229.73677,-42.84039,4.373459815979004
1617796229.7524,-45.1286,4.389089822769165
1617796229.76802,-48.0932,4.404709815979004
1617796229.78365,-52.03461,4.420339822769165
1617796229.79927,-56.93323,4.435959815979004
1617796229.8149,-62.31696,4.451589822769165
1617796229.83053,-67.19684,4.467219829559326
1617796229.84615,-70.24432,4.482839822769165
1617796229.86178,-70.11829,4.498469829559326
1617796229.8774,-65.94781,4.514089822769165
1617796229.89303,-57.62433,4.529719829559326
1617796229.90865,-45.87225,4.545339822769165
1617796229.92428,-32.02191,4.560969829559326
1617796229.93991,-17.62073,4.576599836349487
1617796229.95553,-4.053528,4.592219829559326
1617796229.97116,7.712097,4.607849836349487
1617796229.98678,17.1756,4.623469829559326
1617796230.00241,24.22235,4.639099836349487
1617796230.01803,28.97449,4.654719829559326
1617796230.03366,31.672,4.670349836349487
1617796230.04929,32.5553,4.685979843139648
1617796230.06491,31.92426,4.701599836349487
1617796230.08054,30.11359,4.717229843139648
1617796230.09616,27.59125,4.732849836349487
1617796230.11179,24.96332,4.748479843139648
1617796230.12741,22.86084,4.764099836349487
1617796230.14304,21.81635,4.779729843139648
1617796230.15867,22.10577,4.79535984992981
1617796230.17429,23.67267,4.810979843139648
1617796230.18992,26.19971,4.82660984992981
1617796230.20554,29.26691,4.842229843139648
1617796230.22117,32.54449,4.85785984992981
1617796230.23679,35.88074,4.873479843139648
1617796230.25242,39.2652,4.88910984992981
1617796230.26805,42.66254,4.904739856719971
1617796230.28367,45.91461,4.92035984992981
1617796230.2993,48.70618,4.935989856719971
1617796230.31492,50.68384,4.95160984992981
1617796230.33055,51.61414,4.967239856719971
1617796230.34617,51.50098,4.98285984992981
1617796230.3618,50.61975,4.998489856719971
1617796230.37743,49.39099,5.014119863510132
1617796230.39305,48.22717,5.029739856719971
1617796230.40868,47.38446,5.045369863510132
1617796230.4243,46.86847,5.060989856719971
1617796230.43993,46.46539,5.076619863510132
1617796230.45555,45.89429,5.092239856719971
1617796230.47118,44.94391,5.107869863510132
1617796230.48681,43.5639,5.123499870300293
1617796230.50243,41.93182,5.139119863510132
1617796230.51806,40.35895,5.154749870300293
1617796230.53368,39.2193,5.170369863510132
1617796230.54931,38.76489,5.185999870300293
1617796230.56493,39.0058,5.201619863510132
1617796230.58056,39.6839,5.217249870300293
1617796230.59619,40.28687,5.232879877090454
1617796230.61181,40.15887,5.248499870300293
1617796230.62744,38.69385,5.264129877090454
1617796230.64306,35.49982,5.279749870300293
1617796230.65869,30.52277,5.295379877090454
1617796230.67431,24.06,5.310999870300293
1617796230.68994,16.6908,5.326629877090454
1617796230.70557,9.077576,5.342259883880615
1617796230.72119,1.766235,5.357879877090454
1617796230.73682,-4.942627,5.373509883880615
1617796230.75244,-10.98279,5.389129877090454
1617796230.76807,-16.46381,5.404759883880615
1617796230.78369,-21.50836,5.420379877090454
1617796230.79932,-26.16138,5.436009883880615
1617796230.81495,-30.36578,5.451639890670776
1617796230.83057,-33.99335,5.467259883880615
1617796230.8462,-36.88385,5.482889890670776
1617796230.86182,-38.89258,5.498509883880615
1617796230.87745,-39.86969,5.514139890670776
1617796230.89307,-39.66187,5.529759883880615
1617796230.9087,-38.09515,5.545389890670776
1617796230.92433,-35.00952,5.5610198974609375
1617796230.93995,-30.36548,5.576639890670776
1617796230.95558,-24.32306,5.5922698974609375
1617796230.9712,-17.24561,5.607889890670776
1617796230.98683,-9.677917,5.6235198974609375
1617796231.00246,-2.232544,5.639149904251099
1617796231.01808,4.547241,5.6547698974609375
1617796231.03371,10.25,5.670399904251099
1617796231.04933,14.64697,5.6860198974609375
1617796231.06496,17.64056,5.701649904251099
1617796231.08058,19.24268,5.7172698974609375
1617796231.09621,19.50696,5.732899904251099
1617796231.11184,18.49878,5.74852991104126
1617796231.12746,16.26831,5.764149904251099
1617796231.14309,12.89758,5.77977991104126
1617796231.15871,8.585327,5.795399904251099
1617796231.17434,3.752502,5.81102991104126
1617796231.18996,-0.8612061,5.826649904251099
1617796231.20559,-4.191284,5.84227991104126
1617796231.22122,-5.045776,5.857909917831421
1617796231.23684,-2.494934,5.87352991104126
1617796231.25247,3.718445,5.889159917831421
1617796231.26809,12.90009,5.90477991104126
1617796231.28372,23.41046,5.920409917831421
1617796231.29934,33.11206,5.93602991104126
1617796231.31497,39.98474,5.951659917831421
1617796231.3306,42.79736,5.967289924621582
1617796231.34622,41.42224,5.982909917831421
1617796231.36185,36.80518,5.998539924621582
1617796231.37747,30.49188,6.014159917831421
1617796231.3931,24.02234,6.029789924621582
1617796231.40872,18.46472,6.045409917831421
1617796231.42435,14.21033,6.061039924621582
1617796231.43998,11.0824,6.076669931411743
1617796231.4556,8.627014,6.092289924621582
1617796231.47123,6.401611,6.107919931411743
1617796231.48685,4.181213,6.123539924621582
1617796231.50248,1.893738,6.139169931411743
1617796231.5181,-0.4851074,6.154789924621582
1617796231.53373,-3.112579,6.170419931411743
1617796231.54936,-6.256531,6.186049938201904
1617796231.56498,-10.18179,6.201669931411743
1617796231.58061,-14.91052,6.217299938201904
1617796231.59623,-20.12866,6.232919931411743
1617796231.61186,-25.23685,6.248549938201904
1617796231.62748,-29.60297,6.264169931411743
1617796231.64311,-32.87091,6.279799938201904
1617796231.65874,-35.11105,6.295429944992065
1617796231.67436,-36.78732,6.311049938201904
1617796231.68999,-38.56119,6.326679944992065
1617796231.70561,-40.97549,6.342299938201904
1617796231.72124,-44.22955,6.357929944992065
1617796231.73686,-48.1369,6.373549938201904
1617796231.75249,-52.20541,6.389179944992065
1617796231.76812,-55.79788,6.404809951782227
1617796231.78374,-58.22903,6.420429944992065
1617796231.79937,-58.86475,6.436059951782227
1617796231.81499,-57.23648,6.451679944992065
1617796231.83062,-53.06775,6.467309951782227
1617796231.84624,-46.45648,6.482929944992065
1617796231.86187,-37.862,6.498559951782227
1617796231.8775,-28.04846,6.514189958572388
1617796231.89312,-17.88593,6.529809951782227
1617796231.90875,-8.169342,6.545439958572388
1617796231.92437,0.5569458,6.561059951782227
1617796231.94,8.020203,6.576689958572388
1617796231.95562,14.11929,6.592309951782227
1617796231.97125,18.8273,6.607939958572388
1617796231.98688,22.11621,6.623569965362549
1617796232.0025,23.97467,6.639189958572388
1617796232.01813,24.51508,6.654819965362549
1617796232.03375,24.01978,6.670439958572388
1617796232.04938,22.92142,6.686069965362549
1617796232.065,21.68311,6.701689958572388
1617796232.08063,20.63577,6.717319965362549
1617796232.09626,19.89923,6.73294997215271
1617796232.11188,19.3735,6.748569965362549
1617796232.12751,18.86884,6.76419997215271
1617796232.14313,18.24277,6.779819965362549
1617796232.15876,17.51569,6.79544997215271
1617796232.17438,16.84644,6.811069965362549
1617796232.19001,16.47025,6.82669997215271
1617796232.20564,16.54388,6.842329978942871
1617796232.22126,17.09045,6.85794997215271
1617796232.23689,17.95282,6.873579978942871
1617796232.25251,18.88934,6.88919997215271
1617796232.26814,19.61902,6.904829978942871
1617796232.28376,19.90808,6.92044997215271
1617796232.29939,19.61728,6.936079978942871
1617796232.31502,18.71286,6.951709985733032
1617796232.33064,17.25366,6.967329978942871
1617796232.34627,15.40076,6.982959985733032
1617796232.36189,13.37045,6.998579978942871
1617796232.37752,11.36188,7.014209985733032
1617796232.39314,9.468719,7.029829978942871
1617796232.40877,7.610413,7.045459985733032
1617796232.4244,5.580353,7.061089992523193
1617796232.44002,3.123077,7.076709985733032
1617796232.45565,0.07531738,7.092339992523193
1617796232.47127,-3.54657,7.107959985733032
1617796232.4869,-7.533813,7.123589992523193
1617796232.50252,-11.5968,7.139209985733032
1617796232.51815,-15.47281,7.154839992523193
1617796232.53378,-19.03525,7.1704699993133545
1617796232.5494,-22.31985,7.186089992523193
1617796232.56503,-25.51233,7.2017199993133545
1617796232.58065,-28.86758,7.217339992523193
1617796232.59628,-32.60681,7.2329699993133545
1617796232.6119,-36.84744,7.248589992523193
1617796232.62753,-41.45654,7.2642199993133545
1617796232.64316,-45.98126,7.279850006103516
1617796232.65878,-49.62497,7.2954699993133545
1617796232.67441,-51.42377,7.311100006103516
1617796232.69003,-50.50513,7.3267199993133545
1617796232.70566,-46.39722,7.342350006103516
1617796232.72128,-39.25156,7.3579699993133545
1617796232.73691,-29.78641,7.373600006103516
1617796232.75254,-19.10443,7.389230012893677
1617796232.76816,-8.341461,7.404850006103516
1617796232.78379,1.568176,7.420480012893677
1617796232.79941,10.04593,7.436100006103516
1617796232.81504,16.81967,7.451730012893677
1617796232.83066,21.85599,7.467350006103516
1617796232.84629,25.25781,7.482980012893677
1617796232.86192,27.1868,7.498610019683838
1617796232.87754,27.84479,7.514230012893677
1617796232.89317,27.46582,7.529860019683838
1617796232.90879,26.27603,7.545480012893677
1617796232.92442,24.52841,7.561110019683838
1617796232.94004,22.48846,7.576730012893677
1617796232.95567,20.43085,7.592360019683838
1617796232.9713,18.63336,7.60798978805542
1617796232.98692,17.31332,7.623610019683838
1617796233.00255,16.58194,7.63923978805542
1617796233.01817,16.42941,7.654860019683838
1617796233.0338,16.74316,7.67048978805542
1617796233.04942,17.41733,7.686110019683838
1617796233.06505,18.3801,7.70173978805542
1617796233.08068,19.58737,7.717369794845581
1617796233.0963,20.98349,7.73298978805542
1617796233.11193,22.41544,7.748619794845581
1617796233.12755,23.59122,7.76423978805542
1617796233.14318,24.19479,7.779869794845581
1617796233.1588,23.95618,7.79548978805542
1617796233.17443,22.77377,7.811119794845581
1617796233.19006,20.77231,7.826749801635742
1617796233.20568,18.22934,7.842369794845581
1617796233.22131,15.45877,7.857999801635742
1617796233.23693,12.66391,7.873619794845581
1617796233.25256,9.876984,7.889249801635742
1617796233.26818,6.961426,7.904869794845581
1617796233.28381,3.727753,7.920499801635742
1617796233.29944,0.07757568,7.936129808425903
1617796233.31506,-3.943939,7.951749801635742
1617796233.33069,-8.104553,7.967379808425903
1617796233.34631,-12.10129,7.982999801635742
1617796233.36194,-15.65686,7.998629808425903
1617796233.37756,-18.64514,8.014249801635742
1617796233.39319,-21.11853,8.029879808425903
1617796233.40882,-23.31281,8.045509815216064
1617796233.42444,-25.55203,8.061129808425903
1617796233.44007,-28.16666,8.076759815216064
1617796233.45569,-31.4606,8.092379808425903
1617796233.47132,-35.59033,8.108009815216064
1617796233.48695,-40.5058,8.123639822006226
1617796233.50257,-45.85471,8.139259815216064
1617796233.5182,-50.87238,8.154889822006226
1617796233.53382,-54.53659,8.170509815216064
1617796233.54945,-55.76752,8.186139822006226
1617796233.56507,-53.78214,8.201759815216064
1617796233.5807,-48.3689,8.217389822006226
1617796233.59633,-39.98492,8.233019828796387
1617796233.61195,-29.62665,8.248639822006226
1617796233.62758,-18.53247,8.264269828796387
1617796233.6432,-7.822174,8.279889822006226
1617796233.65883,1.710663,8.295519828796387
1617796233.67445,9.670959,8.311139822006226
1617796233.69008,15.97214,8.326769828796387
1617796233.70571,20.71088,8.342399835586548
1617796233.72133,24.05569,8.358019828796387
1617796233.73696,26.18423,8.373649835586548
1617796233.75258,27.26462,8.389269828796387
1617796233.76821,27.44858,8.404899835586548
1617796233.78383,26.86768,8.420519828796387
1617796233.79946,25.6387,8.436149835586548
1617796233.81509,23.8978,8.451779842376709
1617796233.83071,21.84265,8.467399835586548
1617796233.84634,19.72412,8.483029842376709
1617796233.86196,17.80975,8.498649835586548
1617796233.87759,16.34174,8.514279842376709
1617796233.89321,15.45981,8.529899835586548
1617796233.90884,15.21869,8.545529842376709
1617796233.92447,15.61407,8.56115984916687
1617796233.94009,16.58823,8.576779842376709
1617796233.95572,17.9993,8.59240984916687
1617796233.97134,19.65637,8.608029842376709
1617796233.98697,21.24307,8.62365984916687
1617796234.00259,22.38547,8.639279842376709
1617796234.01822,22.76266,8.65490984916687
1617796234.03385,22.15756,8.670539855957031
1617796234.04947,20.61725,8.68615984916687
1617796234.0651,18.38336,8.701789855957031
1617796234.08072,15.83472,8.71740984916687
1617796234.09635,13.30695,8.733039855957031
1617796234.11197,10.97318,8.74865984916687
1617796234.1276,8.753632,8.764289855957031
1617796234.14323,6.400116,8.779919862747192
1617796234.15885,3.607086,8.795539855957031
1617796234.17448,0.2136841,8.811169862747192
1617796234.1901,-3.721069,8.826789855957031
1617796234.20573,-7.902039,8.842419862747192
1617796234.22135,-11.93036,8.858039855957031
1617796234.23698,-15.49323,8.873669862747192
1617796234.25261,-18.47629,8.889299869537354
1617796234.26823,-21.04395,8.904919862747192
1617796234.28386,-23.52475,8.920549869537354
1617796234.29948,-26.31836,8.936169862747192
1617796234.31511,-29.69861,8.951799869537354
1617796234.33073,-33.80432,8.967419862747192
1617796234.34636,-38.5405,8.983049869537354
1617796234.36199,-43.57281,8.998679876327515
1617796234.37761,-48.28607,9.014299869537354
1617796234.39324,-51.80939,9.029929876327515
1617796234.40886,-53.17603,9.045549869537354
1617796234.42449,-51.58453,9.061179876327515
1617796234.44011,-46.67719,9.076799869537354
1617796234.45574,-38.75433,9.092429876327515
1617796234.47137,-28.68762,9.108059883117676
1617796234.48699,-17.70389,9.123679876327515
1617796234.50262,-6.972229,9.139309883117676
1617796234.51824,2.663574,9.154929876327515
1617796234.53387,10.76489,9.170559883117676
1617796234.54949,17.23367,9.186179876327515
1617796234.56512,22.14447,9.201809883117676
1617796234.58075,25.5817,9.217439889907837
1617796234.59637,27.65372,9.233059883117676
1617796234.612,28.49368,9.248689889907837
1617796234.62762,28.32278,9.264309883117676
1617796234.64325,27.39523,9.279939889907837
1617796234.65887,25.93338,9.295559883117676
1617796234.6745,24.08374,9.311189889907837
1617796234.69013,21.91327,9.326819896697998
1617796234.70575,19.51917,9.342439889907837
1617796234.72138,17.06992,9.358069896697998
1617796234.737,14.86053,9.373689889907837
1617796234.75263,13.20471,9.389319896697998
1617796234.76825,12.35208,9.404939889907837
1617796234.78388,12.42664,9.420569896697998
1617796234.79951,13.33829,9.43619990348816
1617796234.81513,14.88403,9.451819896697998
1617796234.83076,16.74368,9.46744990348816
1617796234.84638,18.61063,9.483069896697998
1617796234.86201,20.14755,9.49869990348816
1617796234.87763,21.08597,9.514319896697998
1617796234.89326,21.22986,9.52994990348816
1617796234.90889,20.48273,9.54557991027832
1617796234.92451,18.90189,9.56119990348816
1617796234.94014,16.65982,9.57682991027832
1617796234.95576,13.98132,9.59244990348816
1617796234.97139,11.10132,9.60807991027832
1617796234.98701,8.175385,9.62369990348816
1617796235.00264,5.272125,9.63932991027832
1617796235.01827,2.372955,9.654959917068481
1617796235.03389,-0.5738525,9.67057991027832
1617796235.04952,-3.626038,9.686209917068481
1617796235.06514,-6.784607,9.70182991027832
1617796235.08077,-9.965759,9.717459917068481
1617796235.09639,-13.05853,9.73307991027832
1617796235.11202,-15.99001,9.748709917068481
1617796235.12765,-18.82312,9.764339923858643
1617796235.14327,-21.77284,9.779959917068481
1617796235.1589,-25.13071,9.795589923858643
1617796235.17452,-29.12587,9.811209917068481
1617796235.19015,-33.74786,9.826839923858643
1617796235.20577,-38.58701,9.842459917068481
1617796235.2214,-42.8997,9.858089923858643
1617796235.23703,-45.71635,9.873719930648804
1617796235.25265,-46.15269,9.889339923858643
1617796235.26828,-43.66083,9.904969930648804
1617796235.2839,-38.20776,9.920589923858643
1617796235.29953,-30.28577,9.936219930648804
1617796235.31515,-20.7538,9.951839923858643
1617796235.33078,-10.58946,9.967469930648804
1617796235.34641,-0.6312408,9.983099937438965
1617796235.36203,8.500397,9.998719930648804
1617796235.37766,16.45782,10.014349937438965
1617796235.39328,23.04514,10.029969930648804
1617796235.40891,28.10036,10.045599937438965
1617796235.42453,31.44553,10.061219930648804
1617796235.44016,32.95613,10.076849937438965
1617796235.45579,32.6601,10.092479944229126
1617796235.47141,30.8231,10.108099937438965
1617796235.48704,27.9362,10.123729944229126
1617796235.50266,24.5692,10.139349937438965
1617796235.51829,21.19505,10.154979944229126
1617796235.53391,18.08618,10.170599937438965
1617796235.54954,15.31335,10.186229944229126
1617796235.56517,12.85359,10.201859951019287
1617796235.58079,10.70802,10.217479944229126
1617796235.59642,8.952652,10.233109951019287
1617796235.61204,7.726868,10.248729944229126
1617796235.62767,7.134308,10.264359951019287
1617796235.6433,7.161865,10.279989957809448
1617796235.65892,7.636337,10.295609951019287
1617796235.67455,8.318954,10.311239957809448
1617796235.69017,8.960754,10.326859951019287
1617796235.7058,9.398727,10.342489957809448
1617796235.72142,9.572571,10.358109951019287
1617796235.73705,9.484406,10.373739957809448
1617796235.75268,9.153107,10.38936996459961
1617796235.7683,8.523575,10.404989957809448
1617796235.78393,7.517303,10.42061996459961
1617796235.79955,6.005707,10.436239957809448
1617796235.81518,3.925858,10.45186996459961
1617796235.8308,1.307297,10.467489957809448
1617796235.84643,-1.709534,10.48311996459961
1617796235.86206,-4.939911,10.49874997138977
1617796235.87768,-8.230423,10.51436996459961
1617796235.89331,-11.48087,10.52999997138977
1617796235.90893,-14.71704,10.54561996459961
1617796235.92456,-18.00636,10.56124997138977
1617796235.94018,-21.49532,10.57686996459961
1617796235.95581,-25.3475,10.59249997138977
1617796235.97144,-29.72185,10.608129978179932
1617796235.98706,-34.67615,10.62374997138977
1617796236.00269,-40.00281,10.639379978179932
1617796236.01831,-45.15326,10.65499997138977
1617796236.03394,-49.20705,10.670629978179932
1617796236.04956,-51.09625,10.68624997138977
1617796236.06519,-49.90825,10.701879978179932
1617796236.08082,-45.24873,10.717509984970093
1617796236.09644,-37.39819,10.733129978179932
1617796236.11207,-27.26794,10.748759984970093
1617796236.12769,-16.07948,10.764379978179932
1617796236.14332,-5.043503,10.780009984970093
1617796236.15894,4.901566,10.795629978179932
1617796236.17457,13.23973,10.811259984970093
1617796236.1902,19.77095,10.826889991760254
1617796236.20582,24.51999,10.842509984970093
1617796236.22145,27.61659,10.858139991760254
1617796236.23707,29.23259,10.873759984970093
1617796236.2527,29.5596,10.889389991760254
1617796236.26832,28.80847,10.905009984970093
1617796236.28395,27.25279,10.920639991760254
1617796236.29958,25.15814,10.936269998550415
1617796236.3152,22.78084,10.951889991760254
1617796236.33083,20.31241,10.967519998550415
1617796236.34645,17.88432,10.983139991760254
1617796236.36208,15.58147,10.998769998550415
1617796236.3777,13.4727,11.014389991760254
1617796236.39333,11.67525,11.030019998550415
1617796236.40896,10.34619,11.045650005340576
1617796236.42458,9.688873,11.061269998550415
1617796236.44021,9.814529,11.076900005340576
1617796236.45583,10.68867,11.092519998550415
1617796236.47146,12.04958,11.108150005340576
1617796236.48708,13.48024,11.123769998550415
1617796236.50271,14.52997,11.139400005340576
1617796236.51834,14.85361,11.155030012130737
1617796236.53396,14.30609,11.170650005340576
1617796236.54959,12.96199,11.186280012130737
1617796236.56521,11.05934,11.201900005340576
1617796236.58084,8.869553,11.217530012130737
1617796236.59646,6.620529,11.233150005340576
1617796236.61209,4.383408,11.248780012130737
1617796236.62772,2.099258,11.264410018920898
1617796236.64334,-0.3881531,11.280030012130737
1617796236.65897,-3.198151,11.295660018920898
1617796236.67459,-6.336212,11.311280012130737
1617796236.69022,-9.683182,11.326910018920898
1617796236.70584,-13.05792,11.342530012130737
1617796236.72147,-16.3109,11.358160018920898
1617796236.7371,-19.39642,11.37378978729248
1617796236.75272,-22.40115,11.389410018920898
1617796236.76835,-25.51697,11.40503978729248
1617796236.78397,-28.95961,11.420660018920898
1617796236.7996,-32.93141,11.43628978729248
1617796236.81522,-37.55348,11.451910018920898
1617796236.83085,-42.76614,11.46753978729248
1617796236.84648,-48.22685,11.483169794082642
1617796236.8621,-53.25491,11.49878978729248
1617796236.87773,-56.85983,11.514419794082642
1617796236.89335,-57.96039,11.53003978729248
1617796236.90898,-55.70811,11.545669794082642
1617796236.9246,-49.82162,11.56128978729248
1617796236.94023,-40.72757,11.576919794082642
1617796236.95586,-29.47443,11.592549800872803
1617796236.97148,-17.40762,11.608169794082642
1617796236.98711,-5.816711,11.623799800872803
1617796237.00273,4.389526,11.639419794082642
1617796237.01836,12.7653,11.655049800872803
1617796237.03398,19.25926,11.670669794082642
1617796237.04961,24.05592,11.686299800872803
1617796237.06524,27.4299,11.701929807662964
1617796237.08086,29.61041,11.717549800872803
1617796237.09649,30.78412,11.733179807662964
1617796237.11211,31.08725,11.748799800872803
1617796237.12774,30.65158,11.764429807662964
1617796237.14336,29.62177,11.780049800872803
1617796237.15899,28.17191,11.795679807662964
1617796237.17462,26.46455,11.811309814453125
1617796237.19024,24.64685,11.826929807662964
1617796237.20587,22.80453,11.842559814453125
1617796237.22149,21.02094,11.858179807662964
1617796237.23712,19.39165,11.873809814453125
1617796237.25274,18.0593,11.889429807662964
1617796237.26837,17.17964,11.905059814453125
1617796237.284,16.87973,11.920689821243286
1617796237.29962,17.19225,11.936309814453125
1617796237.31525,18.0141,11.951939821243286
1617796237.33087,19.07692,11.967559814453125
1617796237.3465,20.02246,11.983189821243286
1617796237.36212,20.46342,11.998809814453125
1617796237.37775,20.13009,12.014439821243286
1617796237.39338,18.92512,12.030069828033447
1617796237.409,16.9969,12.045689821243286
1617796237.42463,14.65022,12.061319828033447
1617796237.44025,12.19954,12.076939821243286
1617796237.45588,9.811417,12.092569828033447
1617796237.4715,7.443581,12.108189821243286
1617796237.48713,4.841675,12.123819828033447
1617796237.50276,1.728706,12.139449834823608
1617796237.51838,-1.994942,12.155069828033447
1617796237.53401,-6.198952,12.170699834823608
1617796237.54963,-10.54156,12.186319828033447
1617796237.56526,-14.66957,12.201949834823608
1617796237.58088,-18.39108,12.217569828033447
1617796237.59651,-21.7061,12.233199834823608
1617796237.61214,-24.77474,12.24882984161377
1617796237.62776,-27.80914,12.264449834823608
1617796237.64339,-31.02297,12.28007984161377
1617796237.65901,-34.61943,12.295699834823608
1617796237.67464,-38.78862,12.31132984161377
1617796237.69026,-43.58459,12.326949834823608
1617796237.70589,-48.78717,12.34257984161377
1617796237.72152,-53.71288,12.35820984840393
1617796237.73714,-57.2803,12.37382984161377
1617796237.75277,-58.25574,12.38945984840393
1617796237.76839,-55.68297,12.40507984161377
1617796237.78402,-49.2905,12.42070984840393
1617796237.79964,-39.63235,12.43632984161377
1617796237.81527,-27.93383,12.45195984840393
1617796237.8309,-15.68777,12.467589855194092
1617796237.84652,-4.191711,12.48320984840393
1617796237.86215,5.726051,12.498839855194092
1617796237.87777,13.77042,12.51445984840393
1617796237.8934,20.01949,12.530089855194092
1617796237.90902,24.74762,12.54570984840393
1617796237.92465,28.19618,12.561339855194092
1617796237.94028,30.52995,12.576969861984253
1617796237.9559,31.81014,12.592589855194092
1617796237.97153,32.05561,12.608219861984253
1617796237.98715,31.3187,12.623839855194092
1617796238.00278,29.70963,12.639469861984253
1617796238.0184,27.46867,12.655089855194092
1617796238.03403,24.91868,12.670719861984253
1617796238.04966,22.40957,12.686349868774414
1617796238.06528,20.26578,12.701969861984253
1617796238.08091,18.69442,12.717599868774414
1617796238.09653,17.76633,12.733219861984253
1617796238.11216,17.44433,12.748849868774414
1617796238.12778,17.6511,12.764469861984253
1617796238.14341,18.29784,12.780099868774414
1617796238.15904,19.28207,12.795729875564575
1617796238.17466,20.48262,12.811349868774414
1617796238.19029,21.68699,12.826979875564575
1617796238.20591,22.61977,12.842599868774414
1617796238.22154,22.99277,12.858229875564575
1617796238.23716,22.61252,12.873849868774414
1617796238.25279,21.45625,12.889479875564575
1617796238.26842,19.66034,12.905109882354736
1617796238.28404,17.45177,12.920729875564575
1617796238.29967,15.06133,12.936359882354736
1617796238.31529,12.6201,12.951979875564575
1617796238.33092,10.14714,12.967609882354736
1617796238.34655,7.574097,12.983239889144897
1617796238.36217,4.808823,12.998859882354736
1617796238.3778,1.793556,13.014489889144897
1617796238.39342,-1.470131,13.030109882354736
1617796238.40905,-4.919151,13.045739889144897
1617796238.42467,-8.440392,13.061359882354736
1617796238.4403,-11.89967,13.076989889144897
1617796238.45593,-15.17448,13.092619895935059
1617796238.47155,-18.19865,13.108239889144897
1617796238.48718,-20.96078,13.123869895935059
1617796238.5028,-23.55379,13.139489889144897
1617796238.51843,-26.16898,13.155119895935059
1617796238.53405,-29.07948,13.170739889144897
1617796238.54968,-32.58442,13.186369895935059
1617796238.56531,-36.91718,13.20199990272522
1617796238.58093,-42.09202,13.217619895935059
1617796238.59656,-47.75031,13.23324990272522
1617796238.61218,-53.12022,13.248869895935059
1617796238.62781,-57.06989,13.26449990272522
1617796238.64343,-58.41029,13.280119895935059
1617796238.65906,-56.25372,13.29574990272522
1617796238.67469,-50.34947,13.31137990951538
1617796238.69031,-41.21072,13.32699990272522
1617796238.70594,-29.98676,13.34262990951538
1617796238.72156,-18.08567,13.35824990272522
1617796238.73719,-6.741188,13.37387990951538
1617796238.75281,3.274597,13.38949990272522
1617796238.76844,11.69515,13.40512990951538
1617796238.78407,18.55312,13.420759916305542
1617796238.79969,23.95491,13.43637990951538
1617796238.81532,27.91609,13.452009916305542
1617796238.83094,30.3709,13.46762990951538
1617796238.84657,31.29019,13.483259916305542
1617796238.86219,30.83411,13.49887990951538
1617796238.87782,29.33157,13.514509916305542
1617796238.89345,27.23459,13.530139923095703
1617796238.90907,24.95522,13.545759916305542
1617796238.9247,22.8007,13.561389923095703
1617796238.94032,20.9749,13.577009916305542
1617796238.95595,19.58634,13.592639923095703
1617796238.97157,18.69513,13.608259916305542
1617796238.9872,18.31199,13.623889923095703
1617796239.00283,18.41538,13.639519929885864
1617796239.01845,18.9241,13.655139923095703
1617796239.03408,19.74579,13.670769929885864
1617796239.0497,20.80917,13.686389923095703
1617796239.06533,22.03035,13.702019929885864
1617796239.08095,23.30049,13.717639923095703
1617796239.09658,24.43178,13.733269929885864
1617796239.11221,25.17554,13.748899936676025
1617796239.12783,25.27206,13.764519929885864
1617796239.14346,24.53819,13.780149936676025
1617796239.15908,22.95515,13.795769929885864
1617796239.17471,20.6653,13.811399936676025
1617796239.19033,17.93214,13.827019929885864
1617796239.20596,15.02297,13.842649936676025
1617796239.22159,12.16541,13.858279943466187
1617796239.23721,9.466797,13.873899936676025
1617796239.25284,6.916542,13.889529943466187
1617796239.26846,4.40435,13.905149936676025
1617796239.28409,1.78138,13.920779943466187
1617796239.29971,-1.103714,13.936399936676025
1617796239.31534,-4.302223,13.952029943466187
1617796239.33097,-7.77018,13.967659950256348
1617796239.34659,-11.38474,13.983279943466187
1617796239.36222,-14.98568,13.998909950256348
1617796239.37784,-18.42591,14.014529943466187
1617796239.39347,-21.62096,14.030159950256348
1617796239.40909,-24.5453,14.045779943466187
1617796239.42472,-27.23186,14.061409950256348
1617796239.44035,-29.79478,14.077039957046509
1617796239.45597,-32.40749,14.092659950256348
1617796239.4716,-35.33043,14.108289957046509
1617796239.48722,-38.82265,14.123909950256348
1617796239.50285,-43.01409,14.139539957046509
1617796239.51847,-47.69341,14.155159950256348
1617796239.5341,-52.23637,14.170789957046509
1617796239.54973,-55.58293,14.18641996383667
1617796239.56535,-56.53857,14.202039957046509
1617796239.58098,-54.13395,14.21766996383667
1617796239.5966,-48.01155,14.233289957046509
1617796239.61223,-38.6002,14.24891996383667
1617796239.62785,-27.04176,14.264539957046509
1617796239.64348,-14.79358,14.28016996383667
1617796239.65911,-3.204636,14.295799970626831
1617796239.67473,6.816261,14.31141996383667
1617796239.69036,14.88575,14.327049970626831
1617796239.70598,21.03059,14.34266996383667
1617796239.72161,25.43699,14.358299970626831
1617796239.73723,28.30878,14.37391996383667
1617796239.75286,29.76962,14.389549970626831
1617796239.76849,29.94836,14.405179977416992
1617796239.78411,29.0349,14.420799970626831
1617796239.79974,27.30077,14.436429977416992
1617796239.81536,25.07529,14.452049970626831
1617796239.83099,22.65079,14.467679977416992
1617796239.84661,20.26227,14.483299970626831
1617796239.86224,18.07848,14.498929977416992
1617796239.87787,16.25058,14.514559984207153
1617796239.89349,14.93267,14.530179977416992
1617796239.90912,14.27235,14.545809984207153
1617796239.92474,14.36642,14.561429977416992
1617796239.94037,15.20216,14.577059984207153
1617796239.95599,16.61933,14.592679977416992
1617796239.97162,18.36945,14.608309984207153
1617796239.98725,20.15376,14.623939990997314
1617796240.00287,21.68469,14.639559984207153
1617796240.0185,22.75237,14.655189990997314
1617796240.03412,23.21361,14.670809984207153
1617796240.04975,23.02809,14.686439990997314
1617796240.06537,22.19495,14.702059984207153
1617796240.081,20.78224,14.717689990997314
1617796240.09663,18.90395,14.733319997787476
1617796240.11225,16.70552,14.748939990997314
1617796240.12788,14.34072,14.764569997787476
1617796240.1435,11.92566,14.780189990997314
1617796240.15913,9.513092,14.795819997787476
1617796240.17475,7.0336,14.811439990997314
1617796240.19038,4.353264,14.827069997787476
1617796240.20601,1.323349,14.842700004577637
1617796240.22163,-2.126068,14.858319997787476
1617796240.23726,-5.930855,14.873950004577637
1617796240.25288,-9.892593,14.889569997787476
1617796240.26851,-13.73752,14.905200004577637
1617796240.28413,-17.24712,14.920819997787476
1617796240.29976,-20.31783,14.936450004577637
1617796240.31539,-23.04211,14.952080011367798
1617796240.33101,-25.65781,14.967700004577637
1617796240.34664,-28.48869,14.983330011367798
1617796240.36226,-31.82507,14.998950004577637
1617796240.37789,-35.88136,15.014580011367798
1617796240.39351,-40.58138,15.030200004577637
1617796240.40914,-45.49099,15.045830011367798
1617796240.42477,-49.78289,15.061460018157959
1617796240.44039,-52.3405,15.077080011367798
1617796240.45602,-52.10604,15.092710018157959
1617796240.47164,-48.39494,15.108330011367798
1617796240.48727,-41.22166,15.123960018157959
1617796240.50289,-31.3459,15.139580011367798
1617796240.51852,-20.00082,15.155210018157959
1617796240.53415,-8.553764,15.170839786529541
1617796240.54977,1.95575,15.186460018157959
1617796240.5654,10.94929,15.202089786529541
1617796240.58102,18.29179,15.217710018157959
1617796240.59665,24.05578,15.233339786529541
1617796240.61228,28.33818,15.248969793319702
1617796240.6279,31.14735,15.264589786529541
1617796240.64353,32.47644,15.280219793319702
1617796240.65915,32.37173,15.295839786529541
1617796240.67478,31.03033,15.311469793319702
1617796240.6904,28.77872,15.327089786529541
1617796240.70603,26.00025,15.342719793319702
1617796240.72166,23.0704,15.358349800109863
1617796240.73728,20.26063,15.373969793319702
1617796240.75291,17.76571,15.389599800109863
1617796240.76853,15.73393,15.405219793319702
1617796240.78416,14.27438,15.420849800109863
1617796240.79978,13.46638,15.436469793319702
1617796240.81541,13.35337,15.452099800109863
1617796240.83104,13.91063,15.467729806900024
1617796240.84666,15.02131,15.483349800109863
1617796240.86229,16.51198,15.498979806900024
1617796240.87791,18.11195,15.514599800109863
1617796240.89354,19.50257,15.530229806900024
1617796240.90916,20.35741,15.545849800109863
1617796240.92479,20.39578,15.561479806900024
1617796240.94042,19.47022,15.577109813690186
1617796240.95604,17.60393,15.592729806900024
1617796240.97167,15.01988,15.608359813690186
1617796240.98729,12.04525,15.623979806900024
1617796241.00292,9.01297,15.639609813690186
1617796241.01854,6.143135,15.655229806900024
1617796241.03417,3.424301,15.670859813690186
1617796241.0498,0.6988449,15.686489820480347
1617796241.06542,-2.310463,15.702109813690186
1617796241.08105,-5.791321,15.717739820480347
1617796241.09667,-9.761589,15.733359813690186
1617796241.1123,-14.0518,15.748989820480347
1617796241.12792,-18.39023,15.764609813690186
1617796241.14355,-22.52966,15.780239820480347
1617796241.15918,-26.32067,15.795869827270508
1617796241.1748,-29.76926,15.811489820480347
1617796241.19043,-32.99573,15.827119827270508
1617796241.20605,-36.2084,15.842739820480347
1617796241.22168,-39.66344,15.858369827270508
1617796241.2373,-43.65598,15.873989820480347
1617796241.25293,-48.38242,15.889619827270508
1617796241.26856,-53.79054,15.905249834060669
1617796241.28418,-59.39212,15.920869827270508
1617796241.29981,-64.23279,15.936499834060669
1617796241.31543,-67.01778,15.952119827270508
1617796241.33106,-66.53282,15.967749834060669
1617796241.34668,-62.06732,15.983369827270508
1617796241.36231,-53.68726,15.998999834060669
1617796241.37794,-42.27301,16.01462984085083
1617796241.39356,-29.1926,16.03024983406067
1617796241.40919,-15.8614,16.04587984085083
1617796241.42481,-3.371071,16.06149983406067
1617796241.44044,7.651306,16.07712984085083
1617796241.45606,16.96082,16.09274983406067
1617796241.47169,24.54945,16.10837984085083
1617796241.48732,30.49067,16.12400984764099
1617796241.50294,34.91547,16.13962984085083
1617796241.51857,38.02505,16.15525984764099
1617796241.53419,40.11358,16.17087984085083
1617796241.54982,41.55515,16.18650984764099
1617796241.56544,42.75039,16.20212984085083
1617796241.58107,44.04054,16.21775984764099
1617796241.5967,45.68526,16.233389854431152
1617796241.61232,47.86702,16.24900984764099
1617796241.62795,50.71332,16.264639854431152
1617796241.64357,54.325,16.28025984764099
1617796241.6592,58.77409,16.295889854431152
1617796241.67482,64.06281,16.31150984764099
1617796241.69045,70.0692,16.327139854431152
1617796241.70608,76.56913,16.342769861221313
1617796241.7217,83.28755,16.358389854431152
1617796241.73733,90.0425,16.374019861221313
1617796241.75295,96.91786,16.389639854431152
1617796241.76858,104.3748,16.405269861221313
1617796241.7842,113.1147,16.420889854431152
1617796241.79983,123.6996,16.436519861221313
1617796241.81546,136.1159,16.452149868011475
1617796241.83108,149.5049,16.467769861221313
1617796241.84671,162.2367,16.483399868011475
1617796241.86233,172.3722,16.499019861221313
1617796241.87796,178.213,16.514649868011475
1617796241.89358,178.7099,16.530269861221313
1617796241.90921,173.6557,16.545899868011475
1617796241.92484,163.6633,16.561529874801636
1617796241.94046,150.0476,16.577149868011475
1617796241.95609,134.7164,16.592779874801636
1617796241.97171,119.9644,16.608399868011475
1617796241.98734,108.1677,16.624029874801636
1617796242.00296,101.2712,16.639649868011475
1617796242.01859,100.2624,16.655279874801636
1617796242.03422,104.8907,16.670909881591797
1617796242.04984,113.7646,16.686529874801636
1617796242.06547,124.8504,16.702159881591797
1617796242.08109,136.1046,16.717779874801636
1617796242.09672,145.8951,16.733409881591797
1617796242.11234,153.159,16.749029874801636
1617796242.12797,157.2175,16.764659881591797
1617796242.1436,157.5618,16.780289888381958
1617796242.15922,153.8646,16.795909881591797
1617796242.17485,146.0324,16.811539888381958
1617796242.19047,134.3715,16.827159881591797
1617796242.2061,119.6498,16.842789888381958
1617796242.22172,103.0287,16.858409881591797
1617796242.23735,85.94727,16.874039888381958
1617796242.25298,69.89639,16.88966989517212
1617796242.2686,56.19629,16.905289888381958
1617796242.28423,45.77631,16.92091989517212
1617796242.29985,38.93729,16.936539888381958
1617796242.31548,35.26324,16.95216989517212
1617796242.3311,33.71194,16.967789888381958
1617796242.34673,32.867,16.98341989517212
1617796242.36236,31.34122,16.99904990196228
1617796242.37798,28.17313,17.01466989517212
1617796242.39361,23.05191,17.03029990196228
1617796242.40923,16.30005,17.04591989517212
1617796242.42486,8.655151,17.06154990196228
1617796242.44048,0.9609985,17.07716989517212
1617796242.45611,-6.184021,17.09279990196228
1617796242.47174,-12.61371,17.10842990875244
1617796242.48736,-18.64557,17.12404990196228
1617796242.50299,-24.98566,17.13967990875244
1617796242.51861,-32.46844,17.15529990196228
1617796242.53424,-41.73804,17.17092990875244
1617796242.54986,-52.98865,17.18654990196228
1617796242.56549,-65.90588,17.20217990875244
1617796242.58112,-79.81244,17.217809915542603
1617796242.59674,-94.03674,17.23342990875244
1617796242.61237,-108.3075,17.249059915542603
1617796242.62799,-122.9548,17.26467990875244
1617796242.64362,-138.9536,17.280309915542603
1617796242.65924,-157.8663,17.29592990875244
1617796242.67487,-181.653,17.311559915542603
1617796242.6905,-212.2791,17.327189922332764
1617796242.70612,-250.9651,17.342809915542603
1617796242.72175,-297.1893,17.358439922332764
1617796242.73737,-347.9769,17.374059915542603
1617796242.753,-397.9866,17.389689922332764
1617796242.76863,-440.7132,17.405319929122925
1617796242.78425,-470.4263,17.420939922332764
1617796242.79988,-483.9451,17.436569929122925
1617796242.8155,-481.4797,17.452189922332764
1617796242.83113,-465.9703,17.467819929122925
1617796242.84675,-441.5219,17.483439922332764
1617796242.86238,-411.6796,17.499069929122925
1617796242.87801,-378.5712,17.514699935913086
1617796242.89363,-342.9783,17.530319929122925
1617796242.90926,-305.0788,17.545949935913086
1617796242.92488,-265.316,17.561569929122925
1617796242.94051,-224.8047,17.577199935913086
1617796242.95613,-185.3013,17.592819929122925
1617796242.97176,-148.8241,17.608449935913086
1617796242.98739,-117.1939,17.624079942703247
1617796243.00301,-91.62006,17.639699935913086
1617796243.01864,-72.45105,17.655329942703247
1617796243.03426,-59.1275,17.670949935913086
1617796243.04989,-50.39789,17.686579942703247
1617796243.06551,-44.92975,17.702199935913086
1617796243.08114,-41.78546,17.717829942703247
1617796243.09677,-40.56903,17.733459949493408
1617796243.11239,-41.11053,17.749079942703247
1617796243.12802,-42.93829,17.764709949493408
1617796243.14364,-44.87134,17.780329942703247
1617796243.15927,-45.19501,17.795959949493408
1617796243.17489,-42.35278,17.811579942703247
1617796243.19052,-35.65289,17.827209949493408
1617796243.20615,-25.60254,17.84283995628357
1617796243.22177,-13.5896,17.858459949493408
1617796243.2374,-1.156067,17.87408995628357
1617796243.25302,10.70392,17.889709949493408
1617796243.26865,21.78571,17.90533995628357
1617796243.28427,32.37476,17.920959949493408
1617796243.2999,42.79974,17.93658995628357
1617796243.31553,52.89954,17.95221996307373
1617796243.33115,61.97369,17.96783995628357
1617796243.34678,68.97253,17.98346996307373
1617796243.3624,72.96564,17.99908995628357
1617796243.37803,73.52301,18.01471996307373
1617796243.39365,70.92212,18.03033995628357
1617796243.40928,66.07098,18.04596996307373
1617796243.42491,60.2486,18.06159996986389
1617796243.44053,54.79016,18.07721996307373
1617796243.45616,50.66864,18.09284996986389
1617796243.47178,48.34375,18.10846996307373
1617796243.48741,47.6615,18.12409996986389
1617796243.50303,48.04395,18.13971996307373
1617796243.51866,48.81763,18.15534996986389
1617796243.53429,49.44965,18.170979976654053
1617796243.54991,49.7428,18.18659996986389
1617796243.56554,49.77582,18.202229976654053
1617796243.58116,49.71814,18.21784996986389
1617796243.59679,49.62457,18.233479976654053
1617796243.61241,49.37598,18.24909996986389
1617796243.62804,48.68286,18.264729976654053
1617796243.64367,47.26294,18.280359983444214
1617796243.65929,44.96936,18.295979976654053
1617796243.67492,41.84973,18.311609983444214
1617796243.69054,38.12299,18.327229976654053
1617796243.70617,34.08966,18.342859983444214
1617796243.72179,30.03198,18.358479976654053
1617796243.73742,26.15247,18.374109983444214
1617796243.75305,22.53442,18.389739990234375
1617796243.76867,19.09503,18.405359983444214
1617796243.7843,15.68512,18.420989990234375
1617796243.79992,12.104,18.436609983444214
1617796243.81555,8.236176,18.452239990234375
1617796243.83117,4.099182,18.467859983444214
1617796243.8468,-0.1437683,18.483489990234375
1617796243.86243,-4.263794,18.499119997024536
1617796243.87805,-8.04126,18.514739990234375
1617796243.89368,-11.37808,18.530369997024536
1617796243.9093,-14.38885,18.545989990234375
1617796243.92493,-17.35114,18.561619997024536
1617796243.94055,-20.65436,18.577239990234375
1617796243.95618,-24.71002,18.592869997024536
1617796243.97181,-29.75134,18.608500003814697
1617796243.98743,-35.6579,18.624119997024536
1617796244.00306,-41.8381,18.639750003814697
1617796244.01868,-47.22617,18.655369997024536
1617796244.03431,-50.52716,18.671000003814697
1617796244.04993,-50.65109,18.686619997024536
1617796244.06556,-47.02054,18.702250003814697
1617796244.08119,-39.82672,18.71788001060486
1617796244.09681,-29.92502,18.733500003814697
1617796244.11244,-18.54462,18.74913001060486
1617796244.12806,-6.881012,18.764750003814697
1617796244.14369,4.149841,18.78038001060486
1617796244.15931,13.99408,18.796000003814697
1617796244.17494,22.36984,18.81163001060486
1617796244.19057,29.11041,18.82726001739502
1617796244.20619,34.09674,18.84288001060486
1617796244.22182,37.26663,18.85851001739502
1617796244.23744,38.69763,18.87413001060486
1617796244.25307,38.64563,18.88976001739502
1617796244.26869,37.49457,18.90538001060486
1617796244.28432,35.67816,18.92101001739502
1617796244.29995,33.56142,18.9366397857666
1617796244.31557,31.3965,18.95226001739502
1617796244.3312,29.3389,18.9678897857666
1617796244.34682,27.50838,18.98351001739502
1617796244.36245,26.00964,18.9991397857666
1617796244.37807,24.98103,19.01476001739502
1617796244.3937,24.61066,19.0303897857666
1617796244.40933,25.00943,19.046019792556763
1617796244.42495,26.22401,19.0616397857666
1617796244.44058,28.14452,19.077269792556763
1617796244.4562,30.48285,19.0928897857666
1617796244.47183,32.83563,19.108519792556763
1617796244.48745,34.75877,19.1241397857666
1617796244.50308,35.87245,19.139769792556763
1617796244.51871,35.96742,19.155399799346924
1617796244.53433,35.06866,19.171019792556763
1617796244.54996,33.34118,19.186649799346924
1617796244.56558,31.08545,19.202269792556763
1617796244.58121,28.55453,19.217899799346924
1617796244.59683,25.90318,19.233519792556763
1617796244.61246,23.10082,19.249149799346924
1617796244.62809,19.97305,19.264779806137085
1617796244.64371,16.3045,19.280399799346924
1617796244.65934,11.93019,19.296029806137085
1617796244.67496,6.869961,19.311649799346924
1617796244.69059,1.3325,19.327279806137085
1617796244.70621,-4.298416,19.342899799346924
1617796244.72184,-9.629857,19.358529806137085
1617796244.73747,-14.33239,19.374159812927246
1617796244.75309,-18.29209,19.389779806137085
1617796244.76872,-21.6578,19.405409812927246
1617796244.78434,-24.81736,19.421029806137085
1617796244.79997,-28.32053,19.436659812927246
1617796244.81559,-32.72187,19.452279806137085
1617796244.83122,-38.35885,19.467909812927246
1617796244.84685,-45.12147,19.483539819717407
1617796244.86247,-52.29512,19.499159812927246
1617796244.8781,-58.60986,19.514789819717407
1617796244.89372,-62.49255,19.530409812927246
1617796244.90935,-62.56056,19.546039819717407
1617796244.92497,-58.04467,19.561659812927246
1617796244.9406,-49.08669,19.577289819717407
1617796244.95623,-36.69756,19.59291982650757
1617796244.97185,-22.44647,19.608539819717407
1617796244.98748,-7.971848,19.62416982650757
1617796245.0031,5.419388,19.639789819717407
1617796245.01873,16.94821,19.65541982650757
1617796245.03435,26.35649,19.671039819717407
1617796245.04998,33.7039,19.68666982650757
1617796245.06561,39.18933,19.70229983329773
1617796245.08123,42.97333,19.71791982650757
1617796245.09686,45.21613,19.73354983329773
1617796245.11248,46.07465,19.74916982650757
1617796245.12811,45.75163,19.76479983329773
1617796245.14373,44.53293,19.78041982650757
1617796245.15936,42.75465,19.79604983329773
1617796245.17499,40.77493,19.81167984008789
1617796245.19061,38.9277,19.82729983329773
1617796245.20624,37.5029,19.84292984008789
1617796245.22186,36.68256,19.85854983329773
1617796245.23749,36.56497,19.87417984008789
1617796245.25311,37.11797,19.88979983329773
1617796245.26874,38.23221,19.90542984008789
1617796245.28437,39.76303,19.92105984687805
1617796245.29999,41.55859,19.93667984008789
1617796245.31562,43.46588,19.95230984687805
1617796245.33124,45.28061,19.96792984008789
1617796245.34687,46.75513,19.98355984687805
1617796245.36249,47.57742,19.99917984008789
1617796245.37812,47.46695,20.01480984687805
1617796245.39375,46.26736,20.030439853668213
1617796245.40937,44.05017,20.04605984687805
1617796245.425,41.09058,20.061689853668213
1617796245.44062,37.76379,20.07730984687805
1617796245.45625,34.36862,20.092939853668213
1617796245.47188,31.04666,20.108569860458374
1617796245.4875,27.76834,20.124189853668213
1617796245.50313,24.40619,20.139819860458374
1617796245.51875,20.84521,20.155439853668213
1617796245.53438,17.01355,20.171069860458374
1617796245.55,12.86765,20.186689853668213
1617796245.56563,8.378662,20.202319860458374
1617796245.58126,3.522095,20.217949867248535
1617796245.59688,-1.63501,20.233569860458374
1617796245.61251,-6.894257,20.249199867248535
1617796245.62813,-11.93951,20.264819860458374
1617796245.64376,-16.46332,20.280449867248535
1617796245.65938,-20.31549,20.296069860458374
1617796245.67501,-23.61722,20.311699867248535
1617796245.69064,-26.76111,20.327329874038696
1617796245.70626,-30.29849,20.342949867248535
1617796245.72189,-34.76501,20.358579874038696
1617796245.73751,-40.45517,20.374199867248535
1617796245.75314,-47.27039,20.389829874038696
1617796245.76876,-54.58441,20.405449867248535
1617796245.78439,-61.26578,20.421079874038696
1617796245.80002,-65.84448,20.436709880828857
1617796245.81564,-66.8761,20.452329874038696
1617796245.83127,-63.38367,20.467959880828857
1617796245.84689,-55.17462,20.483579874038696
1617796245.86252,-42.99271,20.499209880828857
1617796245.87814,-28.24738,20.514829874038696
1617796245.89377,-12.63205,20.530459880828857
1617796245.9094,2.355682,20.54608988761902
1617796245.92502,15.67703,20.561709880828857
1617796245.94065,26.83426,20.57733988761902
1617796245.95627,35.69919,20.592959880828857
1617796245.9719,42.33353,20.60858988761902
1617796245.98752,46.88727,20.624209880828857
1617796246.00315,49.58932,20.63983988761902
1617796246.01878,50.7605,20.65546989440918
1617796246.0344,50.78815,20.67108988761902
1617796246.05003,50.05658,20.68671989440918
1617796246.06565,48.86902,20.70233988761902
1617796246.08128,47.41486,20.71796989440918
1617796246.0969,45.78088,20.73358988761902
1617796246.11253,44.04468,20.74921989440918
1617796246.12816,42.35248,20.76484990119934
1617796246.14378,40.96283,20.78046989440918
1617796246.15941,40.16638,20.79609990119934
1617796246.17503,40.18909,20.81171989440918
1617796246.19066,41.09979,20.82734990119934
1617796246.20628,42.76117,20.84296989440918
1617796246.22191,44.82935,20.85859990119934
1617796246.23754,46.83478,20.874229907989502
1617796246.25316,48.32471,20.88984990119934
1617796246.26879,48.96857,20.905479907989502
1617796246.28441,48.65741,20.92109990119934
1617796246.30004,47.50586,20.936729907989502
1617796246.31566,45.79858,20.95234990119934
1617796246.33129,43.82068,20.967979907989502
1617796246.34692,41.74945,20.983609914779663
1617796246.36254,39.58105,20.999229907989502
1617796246.37817,37.1554,21.014859914779663
1617796246.39379,34.29639,21.030479907989502
1617796246.40942,30.9375,21.046109914779663
1617796246.42504,27.14685,21.061729907989502
1617796246.44067,23.12268,21.077359914779663
1617796246.4563,19.07904,21.092989921569824
1617796246.47192,15.18793,21.108609914779663
1617796246.48755,11.50702,21.124239921569824
1617796246.50317,8.030151,21.139859914779663
1617796246.5188,4.62616,21.155489921569824
1617796246.53442,1.09729,21.171109914779663
1617796246.55005,-2.796448,21.186739921569824
1617796246.56568,-7.233337,21.202369928359985
1617796246.5813,-12.21155,21.217989921569824
1617796246.59693,-17.51746,21.233619928359985
1617796246.61255,-22.77808,21.249239921569824
1617796246.62818,-27.68567,21.264869928359985
1617796246.6438,-32.15253,21.280489921569824
1617796246.65943,-36.40326,21.296119928359985
1617796246.67506,-40.77533,21.311749935150146
1617796246.69068,-45.37775,21.327369928359985
1617796246.70631,-49.77814,21.342999935150146
1617796246.72193,-52.90234,21.358619928359985
1617796246.73756,-53.29291,21.374249935150146
1617796246.75318,-49.59338,21.389869928359985
1617796246.76881,-41.08417,21.405499935150146
1617796246.78444,-27.93646,21.421129941940308
1617796246.80006,-11.20032,21.436749935150146
1617796246.81569,7.557434,21.452379941940308
1617796246.83131,26.67737,21.467999935150146
1617796246.84694,44.76575,21.483629941940308
1617796246.86256,60.99408,21.499249935150146
1617796246.87819,75.08966,21.514879941940308
1617796246.89382,87.25513,21.53050994873047
1617796246.90944,97.93933,21.546129941940308
1617796246.92507,107.5664,21.56175994873047
1617796246.94069,116.3137,21.577379941940308
1617796246.95632,124.0298,21.59300994873047
1617796246.97194,130.3164,21.608629941940308
1617796246.98757,134.7469,21.62425994873047
1617796247.0032,137.1773,21.63988995552063
1617796247.01882,137.9451,21.65550994873047
1617796247.03445,137.9825,21.67113995552063
1617796247.05007,138.6772,21.68675994873047
1617796247.0657,141.5419,21.70238995552063
1617796247.08132,147.8068,21.71800994873047
1617796247.09695,157.9888,21.73363995552063
1617796247.11258,171.7109,21.74926996231079
1617796247.1282,187.7393,21.76488995552063
1617796247.14383,204.3382,21.78051996231079
1617796247.15945,219.6588,21.79613995552063
1617796247.17508,232.0652,21.81176996231079
1617796247.1907,240.3079,21.82738995552063
1617796247.20633,243.5218,21.84301996231079
1617796247.22196,241.1932,21.858649969100952
1617796247.23758,233.243,21.87426996231079
1617796247.25321,220.2278,21.889899969100952
1617796247.26883,203.4997,21.90551996231079
1617796247.28446,185.1281,21.921149969100952
1617796247.30008,167.4406,21.93676996231079
1617796247.31571,152.3193,21.952399969100952
1617796247.33134,140.6122,21.968029975891113
1617796247.34696,131.8603,21.983649969100952
1617796247.36259,124.6824,21.999279975891113
1617796247.37821,117.4493,22.014899969100952
1617796247.39384,109.0905,22.030529975891113
1617796247.40946,99.51151,22.046149969100952
1617796247.42509,89.52304,22.061779975891113
1617796247.44072,80.30791,22.077409982681274
1617796247.45634,72.67783,22.093029975891113
1617796247.47197,66.50829,22.108659982681274
1617796247.48759,60.61041,22.124279975891113
1617796247.50322,53.19925,22.139909982681274
1617796247.51884,42.60873,22.155529975891113
1617796247.53447,28.08046,22.171159982681274
1617796247.5501,10.10112,22.186789989471436
1617796247.56572,-9.90033,22.202409982681274
1617796247.58135,-30.22805,22.218039989471436
1617796247.59697,-49.7566,22.233659982681274
1617796247.6126,-68.5408,22.249289989471436
1617796247.62823,-87.79359,22.264919996261597
1617796247.64385,-109.4535,22.280539989471436
1617796247.65948,-135.7488,22.296169996261597
1617796247.6751,-168.7922,22.311789989471436
1617796247.69073,-210.2682,22.327419996261597
1617796247.70635,-260.7295,22.343039989471436
1617796247.72198,-318.6617,22.358669996261597
1617796247.73761,-379.7202,22.374300003051758
1617796247.75323,-436.82,22.389919996261597
1617796247.76886,-481.6481,22.405550003051758
1617796247.78448,-507.1823,22.421169996261597
1617796247.80011,-510.1953,22.436800003051758
1617796247.81573,-492.342,22.452419996261597
1617796247.83136,-459.2474,22.468050003051758
1617796247.84699,-417.9644,22.48368000984192
1617796247.86261,-374.0985,22.499300003051758
1617796247.87824,-330.2351,22.51493000984192
1617796247.89386,-286.339,22.530550003051758
1617796247.90949,-241.6556,22.54618000984192
1617796247.92511,-196.6933,22.561800003051758
1617796247.94074,-154.0206,22.57743000984192
1617796247.95637,-117.3615,22.59306001663208
1617796247.97199,-89.6684,22.60868000984192
1617796247.98762,-71.5127,22.62431001663208
1617796248.00324,-60.74344,22.63993000984192
1617796248.01887,-53.55954,22.65556001663208
1617796248.03449,-46.3483,22.67118000984192
1617796248.05012,-37.15903,22.68681001663208
1617796248.06575,-26.2168,22.702439785003662
1617796248.08137,-15.14856,22.71806001663208
1617796248.097,-5.620056,22.733689785003662
1617796248.11262,1.717438,22.74931001663208
1617796248.12825,7.458801,22.764939785003662
1617796248.14387,12.78879,22.78056001663208
1617796248.1595,18.51419,22.796189785003662
1617796248.17513,24.43961,22.811819791793823
1617796248.19075,29.46298,22.827439785003662
1617796248.20638,32.25546,22.843069791793823
1617796248.222,32.08069,22.858689785003662
1617796248.23763,29.19183,22.874319791793823
1617796248.25325,24.74234,22.889939785003662
1617796248.26888,20.22839,22.905569791793823
1617796248.28451,16.84322,22.921199798583984
1617796248.30013,15.06366,22.936819791793823
1617796248.31576,14.60207,22.952449798583984
1617796248.33138,14.657,22.968069791793823
1617796248.34701,14.29233,22.983699798583984
1617796248.36263,12.77235,22.999319791793823
1617796248.37826,9.792221,23.014949798583984
1617796248.39389,5.536774,23.030579805374146
1617796248.40951,0.5496216,23.046199798583984
1617796248.42514,-4.467148,23.061829805374146
1617796248.44076,-8.906021,23.077449798583984
1617796248.45639,-12.4801,23.093079805374146
1617796248.47201,-15.29395,23.108699798583984
1617796248.48764,-17.76895,23.124329805374146
1617796248.50327,-20.43202,23.139959812164307
1617796248.51889,-23.74104,23.155579805374146
1617796248.53452,-27.97606,23.171209812164307
1617796248.55014,-33.24921,23.186829805374146
1617796248.56577,-39.47385,23.202459812164307
1617796248.58139,-46.31841,23.218079805374146
1617796248.59702,-53.05064,23.233709812164307
1617796248.61265,-58.58289,23.249339818954468
1617796248.62827,-61.57163,23.264959812164307
1617796248.6439,-60.80443,23.280589818954468
1617796248.65952,-55.61968,23.296209812164307
1617796248.67515,-46.19251,23.311839818954468
1617796248.69077,-33.52011,23.327459812164307
1617796248.7064,-19.11902,23.343089818954468
1617796248.72203,-4.532524,23.35871982574463
1617796248.73765,8.992134,23.374339818954468
1617796248.75328,20.7127,23.38996982574463
1617796248.7689,30.32248,23.405589818954468
1617796248.78453,37.7867,23.42121982574463
1617796248.80015,43.16924,23.436839818954468
1617796248.81578,46.59131,23.45246982574463
1617796248.83141,48.21312,23.46809983253479
1617796248.84703,48.29708,23.48371982574463
1617796248.86266,47.18409,23.49934983253479
1617796248.87828,45.2533,23.51496982574463
1617796248.89391,42.90319,23.53059983253479
1617796248.90953,40.49392,23.54621982574463
1617796248.92516,38.3693,23.56184983253479
1617796248.94079,36.80746,23.57747983932495
1617796248.95641,35.98433,23.59309983253479
1617796248.97204,35.9617,23.60872983932495
1617796248.98766,36.67819,23.62434983253479
1617796249.00329,37.98123,23.63997983932495
1617796249.01891,39.66433,23.65559983253479
1617796249.03454,41.5222,23.67122983932495
1617796249.05017,43.34761,23.686859846115112
1617796249.06579,44.96224,23.70247983932495
1617796249.08142,46.18166,23.718109846115112
1617796249.09704,46.89087,23.73372983932495
1617796249.11267,47.0146,23.749359846115112
1617796249.12829,46.52286,23.76497983932495
1617796249.14392,45.44299,23.780609846115112
1617796249.15955,43.79332,23.796239852905273
1617796249.17517,41.58049,23.811859846115112
1617796249.1908,38.78812,23.827489852905273
1617796249.20642,35.42683,23.843109846115112
1617796249.22205,31.57579,23.858739852905273
1617796249.23767,27.41698,23.874359846115112
1617796249.2533,23.20699,23.889989852905273
1617796249.26893,19.2056,23.905619859695435
1617796249.28455,15.57103,23.921239852905273
1617796249.30018,12.28292,23.936869859695435
1617796249.3158,9.145996,23.952489852905273
1617796249.33143,5.854706,23.968119859695435
1617796249.34705,2.154617,23.983739852905273
1617796249.36268,-2.08049,23.999369859695435
1617796249.37831,-6.746384,24.014999866485596
1617796249.39393,-11.53551,24.030619859695435
1617796249.40956,-16.10083,24.046249866485596
1617796249.42518,-20.17076,24.061869859695435
1617796249.44081,-23.69337,24.077499866485596
1617796249.45643,-26.84914,24.093119859695435
1617796249.47206,-29.99103,24.108749866485596
1617796249.48769,-33.55688,24.124379873275757
1617796249.50331,-37.9727,24.139999866485596
1617796249.51894,-43.49965,24.155629873275757
1617796249.53456,-50.08931,24.171249866485596
1617796249.55019,-57.19527,24.186879873275757
1617796249.56581,-63.70523,24.202499866485596
1617796249.58144,-68.09833,24.218129873275757
1617796249.59707,-68.8102,24.233759880065918
1617796249.61269,-64.77423,24.249379873275757
1617796249.62832,-55.86047,24.265009880065918
1617796249.64394,-42.94627,24.280629873275757
1617796249.65957,-27.67867,24.296259880065918
1617796249.67519,-11.96387,24.311879873275757
1617796249.69082,2.607224,24.327509880065918
1617796249.70645,15.08519,24.34313988685608
1617796249.72207,25.188,24.358759880065918
1617796249.7377,33.08083,24.37438988685608
1617796249.75332,39.03072,24.390009880065918
1617796249.76895,43.21722,24.40563988685608
1617796249.78457,45.71558,24.421259880065918
1617796249.8002,46.57761,24.43688988685608
1617796249.81583,45.97278,24.45251989364624
1617796249.83145,44.24797,24.46813988685608
1617796249.84708,41.88048,24.48376989364624
1617796249.8627,39.34055,24.49938988685608
1617796249.87833,36.98627,24.51501989364624
1617796249.89395,35.005,24.53063988685608
1617796249.90958,33.43677,24.54626989364624
1617796249.92521,32.29663,24.5618999004364
1617796249.94083,31.63892,24.57751989364624
1617796249.95646,31.58154,24.5931499004364
1617796249.97208,32.22589,24.60876989364624
1617796249.98771,33.55893,24.6243999004364
1617796250.00334,35.35757,24.640029907226562
1617796250.01896,37.23792,24.6556499004364
1617796250.03459,38.70288,24.671279907226562
1617796250.05021,39.29858,24.6868999004364
1617796250.06584,38.7449,24.702529907226562
1617796250.08146,36.96585,24.7181499004364
1617796250.09709,34.14218,24.733779907226562
1617796250.11272,30.64438,24.749409914016724
1617796250.12834,26.93552,24.765029907226562
1617796250.14397,23.4238,24.780659914016724
1617796250.15959,20.38416,24.796279907226562
1617796250.17522,17.84598,24.811909914016724
1617796250.19084,15.65155,24.827529907226562
1617796250.20647,13.4783,24.843159914016724
1617796250.2221,10.99252,24.858789920806885
1617796250.23772,7.932281,24.874409914016724
1617796250.25335,4.191437,24.890039920806885
1617796250.26897,-0.1412659,24.905659914016724
1617796250.2846,-4.818054,24.921289920806885
1617796250.30022,-9.492767,24.936909914016724
1617796250.31585,-13.8468,24.952539920806885
1617796250.33148,-17.67325,24.968169927597046
1617796250.3471,-20.99207,24.983789920806885
1617796250.36273,-24.03091,24.999419927597046
1617796250.37835,-27.21637,25.015039920806885
1617796250.39398,-31.01364,25.030669927597046
1617796250.4096,-35.75259,25.046289920806885
1617796250.42523,-41.44867,25.061919927597046
1617796250.44086,-47.61719,25.077549934387207
1617796250.45648,-53.30273,25.093169927597046
1617796250.47211,-57.19666,25.108799934387207
1617796250.48773,-57.95673,25.124419927597046
1617796250.50336,-54.6795,25.140049934387207
1617796250.51898,-47.1814,25.155669927597046
1617796250.53461,-36.16339,25.171299934387207
1617796250.55024,-23.01883,25.186929941177368
1617796250.56586,-9.370178,25.202549934387207
1617796250.58149,3.383301,25.218179941177368
1617796250.59711,14.38162,25.233799934387207
1617796250.61274,23.33374,25.249429941177368
1617796250.62836,30.28873,25.265049934387207
1617796250.64399,35.37854,25.280679941177368
1617796250.65962,38.65186,25.29630994796753
1617796250.67524,40.10147,25.311929941177368
1617796250.69087,39.81479,25.32755994796753
1617796250.70649,38.09888,25.343179941177368
1617796250.72212,35.49365,25.35880994796753
1617796250.73774,32.6449,25.374429941177368
1617796250.75337,30.06458,25.39005994796753
1617796250.769,28.03622,25.40568995475769
1617796250.78462,26.58994,25.42130994796753
1617796250.80025,25.61847,25.43693995475769
1617796250.81587,25.00705,25.45255994796753
1617796250.8315,24.75357,25.46818995475769
1617796250.84712,24.96469,25.48380994796753
1617796250.86275,25.73669,25.49943995475769
1617796250.87838,27.06735,25.51506996154785
1617796250.894,28.78049,25.53068995475769
1617796250.90963,30.5513,25.54631996154785
1617796250.92525,32.00003,25.56193995475769
1617796250.94088,32.79608,25.57756996154785
1617796250.9565,32.73392,25.59318995475769
1617796250.97213,31.77338,25.60881996154785
1617796250.98776,30.00351,25.624449968338013
1617796251.00338,27.58395,25.64006996154785
1617796251.01901,24.68924,25.655699968338013
1617796251.03463,21.46817,25.67131996154785
1617796251.05026,18.03326,25.686949968338013
1617796251.06588,14.44662,25.70256996154785
1617796251.08151,10.71506,25.718199968338013
1617796251.09714,6.757263,25.733829975128174
1617796251.11276,2.454468,25.749449968338013
1617796251.12839,-2.304016,25.765079975128174
1617796251.14401,-7.545166,25.780699968338013
1617796251.15964,-13.11591,25.796329975128174
1617796251.17526,-18.7291,25.811949968338013
1617796251.19089,-24.04425,25.827579975128174
1617796251.20652,-28.79855,25.843209981918335
1617796251.22214,-32.93307,25.858829975128174
1617796251.23777,-36.6185,25.874459981918335
1617796251.25339,-40.21844,25.890079975128174
1617796251.26902,-44.17432,25.905709981918335
1617796251.28464,-48.85416,25.921329975128174
1617796251.30027,-54.37735,25.936959981918335
1617796251.3159,-60.51096,25.952589988708496
1617796251.33152,-66.55597,25.968209981918335
1617796251.34715,-71.38663,25.983839988708496
1617796251.36277,-73.67044,25.999459981918335
1617796251.3784,-72.16602,26.015089988708496
1617796251.39402,-66.18491,26.030709981918335
1617796251.40965,-55.81393,26.046339988708496
1617796251.42528,-41.99533,26.061969995498657
1617796251.4409,-26.25568,26.077589988708496
1617796251.45653,-10.30957,26.093219995498657
1617796251.47215,4.418671,26.108839988708496
1617796251.48778,17.02811,26.124469995498657
1617796251.5034,27.18973,26.140089988708496
1617796251.51903,34.95969,26.155719995498657
1617796251.53466,40.53418,26.17135000228882
1617796251.55028,44.08051,26.186969995498657
1617796251.56591,45.68463,26.20260000228882
1617796251.58153,45.45761,26.218219995498657
1617796251.59716,43.66708,26.23385000228882
1617796251.61278,40.77002,26.249469995498657
1617796251.62841,37.36124,26.26510000228882
1617796251.64404,34.03055,26.28073000907898
1617796251.65966,31.17892,26.29635000228882
1617796251.67529,28.96173,26.31198000907898
1617796251.69091,27.3461,26.32760000228882
1617796251.70654,26.24295,26.34323000907898
1617796251.72216,25.6261,26.35885000228882
1617796251.73779,25.56989,26.37448000907898
1617796251.75342,26.16431,26.39011001586914
1617796251.76904,27.38138,26.40573000907898
1617796251.78467,29.00208,26.42136001586914
1617796251.80029,30.65753,26.43698000907898
1617796251.81592,31.93167,26.45261001586914
1617796251.83154,32.47098,26.46823000907898
1617796251.84717,32.08505,26.48386001586914
1617796251.8628,30.76913,26.499489784240723
1617796251.87842,28.66736,26.51511001586914
1617796251.89405,26.047,26.530739784240723
1617796251.90967,23.19275,26.54636001586914
1617796251.9253,20.32333,26.561989784240723
1617796251.94092,17.52499,26.57761001586914
1617796251.95655,14.72241,26.593239784240723
1617796251.97218,11.72955,26.608869791030884
1617796251.9878,8.355774,26.624489784240723
1617796252.00343,4.516113,26.640119791030884
1617796252.01905,0.2980957,26.655739784240723
1617796252.03468,-4.058105,26.671369791030884
1617796252.0503,-8.290985,26.686989784240723
1617796252.06593,-12.24368,26.702619791030884
1617796252.08156,-15.92819,26.718249797821045
1617796252.09718,-19.50504,26.733869791030884
1617796252.11281,-23.22421,26.749499797821045
1617796252.12843,-27.37289,26.765119791030884
1617796252.14406,-32.18567,26.780749797821045
1617796252.15968,-37.82996,26.796369791030884
1617796252.17531,-44.27554,26.811999797821045
1617796252.19094,-51.19043,26.827629804611206
1617796252.20656,-57.8197,26.843249797821045
1617796252.22219,-63.07025,26.858879804611206
1617796252.23781,-65.72235,26.874499797821045
1617796252.25344,-64.77621,26.890129804611206
1617796252.26906,-59.79449,26.905749797821045
1617796252.28469,-51.03537,26.921379804611206
1617796252.30032,-39.38409,26.937009811401367
1617796252.31594,-26.07816,26.952629804611206
1617796252.33157,-12.37836,26.968259811401367
1617796252.34719,0.6353455,26.983879804611206
1617796252.36282,12.20944,26.999509811401367
1617796252.37844,21.84076,27.015129804611206
1617796252.39407,29.27277,27.030759811401367
1617796252.4097,34.43387,27.04638981819153
1617796252.42532,37.42511,27.062009811401367
1617796252.44095,38.49838,27.07763981819153
1617796252.45657,38.02582,27.093259811401367
1617796252.4722,36.42282,27.10888981819153
1617796252.48783,34.11804,27.12451982498169
1617796252.50345,31.47089,27.14013981819153
1617796252.51908,28.81131,27.15576982498169
1617796252.5347,26.41718,27.17138981819153
1617796252.55033,24.53192,27.18701982498169
1617796252.56595,23.37418,27.20263981819153
1617796252.58158,23.08429,27.21826982498169
1617796252.59721,23.72025,27.23389983177185
1617796252.61283,25.19452,27.24951982498169
1617796252.62846,27.26773,27.26514983177185
1617796252.64408,29.60785,27.28076982498169
1617796252.65971,31.82587,27.29639983177185
1617796252.67533,33.56219,27.31201982498169
1617796252.69096,34.55923,27.32764983177185
1617796252.70659,34.67551,27.34327983856201
1617796252.72221,33.88412,27.35889983177185
1617796252.73784,32.24881,27.37452983856201
1617796252.75346,29.89023,27.39014983177185
1617796252.76909,26.91391,27.40577983856201
1617796252.78471,23.38809,27.42139983177185
1617796252.80034,19.34073,27.43702983856201
1617796252.81597,14.79163,27.452659845352173
1617796252.83159,9.819092,27.46827983856201
1617796252.84722,4.600067,27.483909845352173
1617796252.86284,-0.6184082,27.49952983856201
1617796252.87847,-5.565002,27.515159845352173
1617796252.89409,-10.06332,27.53077983856201
1617796252.90972,-14.08206,27.546409845352173
1617796252.92535,-17.78253,27.562039852142334
1617796252.94097,-21.46594,27.577659845352173
1617796252.9566,-25.50351,27.593289852142334
1617796252.97222,-30.26212,27.608909845352173
1617796252.98785,-35.9444,27.624539852142334
1617796253.00347,-42.46506,27.640159845352173
1617796253.0191,-49.30222,27.655789852142334
1617796253.03473,-55.46286,27.671419858932495
1617796253.05035,-59.62692,27.687039852142334
1617796253.06598,-60.49582,27.702669858932495
1617796253.0816,-57.19061,27.718289852142334
1617796253.09723,-49.62503,27.733919858932495
1617796253.11285,-38.52139,27.749539852142334
1617796253.12848,-25.22806,27.765169858932495
1617796253.14411,-11.27945,27.780799865722656
1617796253.15973,2.009369,27.796419858932495
1617796253.17536,13.78973,27.812049865722656
1617796253.19098,23.69958,27.827669858932495
1617796253.20661,31.68222,27.843299865722656
1617796253.22223,37.80167,27.858919858932495
1617796253.23786,42.08096,27.874549865722656
1617796253.25349,44.50391,27.890179872512817
1617796253.26911,45.09152,27.905799865722656
1617796253.28474,44.01483,27.921429872512817
1617796253.30036,41.61383,27.937049865722656
1617796253.31599,38.33557,27.952679872512817
1617796253.33161,34.62732,27.968299865722656
1617796253.34724,30.83432,27.983929872512817
1617796253.36287,27.18274,27.99955987930298
1617796253.37849,23.82587,28.015179872512817
1617796253.39412,20.95331,28.03080987930298
1617796253.40974,18.81317,28.046429872512817
1617796253.42537,17.67361,28.06205987930298
1617796253.44099,17.67407,28.077679872512817
1617796253.45662,18.6926,28.09330987930298
1617796253.47225,20.31293,28.10893988609314
1617796253.48787,21.90552,28.12455987930298
1617796253.5035,22.8349,28.14018988609314
1617796253.51912,22.67175,28.15580987930298
1617796253.53475,21.32346,28.17143988609314
1617796253.55037,18.96249,28.18705987930298
1617796253.566,15.94748,28.20268988609314
1617796253.58163,12.64554,28.2183198928833
1617796253.59725,9.30545,28.23393988609314
1617796253.61288,6.048767,28.2495698928833
1617796253.6285,2.860474,28.26518988609314
1617796253.64413,-0.3660889,28.2808198928833
1617796253.65975,-3.740265,28.29643988609314
1617796253.67538,-7.320313,28.3120698928833
1617796253.69101,-11.07013,28.327699899673462
1617796253.70663,-14.85934,28.3433198928833
1617796253.72226,-18.51212,28.358949899673462
1617796253.73788,-21.9288,28.3745698928833
1617796253.75351,-25.13089,28.390199899673462
1617796253.76913,-28.31287,28.4058198928833
1617796253.78476,-31.80725,28.421449899673462
1617796253.80039,-36.02164,28.437079906463623
1617796253.81601,-41.29233,28.452699899673462
1617796253.83164,-47.73602,28.468329906463623
1617796253.84726,-55.02951,28.483949899673462
1617796253.86289,-62.32123,28.499579906463623
1617796253.87851,-68.28601,28.515199899673462
1617796253.89414,-71.38898,28.530829906463623
1617796253.90977,-70.36176,28.546459913253784
1617796253.92539,-64.63626,28.562079906463623
1617796253.94102,-54.59644,28.577709913253784
1617796253.95664,-41.48767,28.593329906463623
1617796253.97227,-27.01566,28.608959913253784
1617796253.98789,-12.81052,28.624579906463623
1617796254.00352,-0.04870605,28.640209913253784
1617796254.01915,10.67841,28.655839920043945
1617796254.03477,19.24994,28.671459913253784
1617796254.0504,25.74692,28.687089920043945
1617796254.06602,30.28693,28.702709913253784
1617796254.08165,32.99521,28.718339920043945
1617796254.09727,34.05759,28.733959913253784
1617796254.1129,33.76947,28.749589920043945
1617796254.12853,32.53305,28.765219926834106
1617796254.14415,30.7598,28.780839920043945
1617796254.15978,28.82364,28.796469926834106
1617796254.1754,26.98178,28.812089920043945
1617796254.19103,25.4024,28.827719926834106
1617796254.20665,24.20468,28.843339920043945
1617796254.22228,23.49673,28.858969926834106
1617796254.23791,23.39633,28.874599933624268
1617796254.25353,23.99173,28.890219926834106
1617796254.26916,25.32504,28.905849933624268
1617796254.28478,27.31183,28.921469926834106
1617796254.30041,29.71954,28.937099933624268
1617796254.31603,32.17404,28.952719926834106
1617796254.33166,34.24323,28.968349933624268
1617796254.34729,35.51328,28.98397994041443
1617796254.36291,35.68387,28.999599933624268
1617796254.37854,34.62854,29.01522994041443
1617796254.39416,32.39636,29.030849933624268
1617796254.40979,29.1904,29.04647994041443
1617796254.42541,25.32776,29.062099933624268
1617796254.44104,21.15433,29.07772994041443
1617796254.45667,16.93512,29.09335994720459
1617796254.47229,12.80231,29.10897994041443
1617796254.48792,8.713928,29.12460994720459
1617796254.50354,4.455994,29.14022994041443
1617796254.51917,-0.193512,29.15585994720459
1617796254.53479,-5.386108,29.17147994041443
1617796254.55042,-11.03857,29.18710994720459
1617796254.56605,-16.87769,29.20273995399475
1617796254.58167,-22.4682,29.21835994720459
1617796254.5973,-27.42542,29.23398995399475
1617796254.61292,-31.55188,29.24960994720459
1617796254.62855,-34.92969,29.26523995399475
1617796254.64417,-37.92273,29.28085994720459
1617796254.6598,-41.02301,29.29648995399475
1617796254.67543,-44.7381,29.312119960784912
1617796254.69105,-49.3858,29.32773995399475
1617796254.70668,-54.91275,29.343369960784912
1617796254.7223,-60.76804,29.35898995399475
1617796254.73793,-65.88837,29.374619960784912
1617796254.75356,-68.86646,29.390249967575073
1617796254.76918,-68.33374,29.405869960784912
1617796254.78481,-63.41174,29.421499967575073
1617796254.80043,-54.05585,29.437119960784912
1617796254.81606,-41.13022,29.452749967575073
1617796254.83168,-26.14307,29.468369960784912
1617796254.84731,-10.81598,29.483999967575073
1617796254.86294,3.371552,29.499629974365234
1617796254.87856,15.47708,29.515249967575073
1617796254.89419,25.12253,29.530879974365234
1617796254.90981,32.31592,29.546499967575073
1617796254.92544,37.24081,29.562129974365234
1617796254.94106,40.10342,29.577749967575073
1617796254.95669,41.09634,29.593379974365234
1617796254.97232,40.46069,29.609009981155396
1617796254.98794,38.53745,29.624629974365234
1617796255.00357,35.77676,29.640259981155396
1617796255.01919,32.67484,29.655879974365234
1617796255.03482,29.63391,29.671509981155396
1617796255.05044,26.92334,29.687129974365234
1617796255.06607,24.60074,29.702759981155396
1617796255.0817,22.65741,29.718389987945557
1617796255.09732,21.06378,29.734009981155396
1617796255.11295,19.9447,29.749639987945557
1617796255.12857,19.47836,29.765259981155396
1617796255.1442,19.89606,29.780889987945557
1617796255.15982,21.26895,29.796509981155396
1617796255.17545,23.40128,29.812139987945557
1617796255.19108,25.8512,29.827769994735718
1617796255.2067,28.0325,29.843389987945557
1617796255.22233,29.44025,29.859019994735718
1617796255.23795,29.76218,29.874639987945557
1617796255.25358,29.00235,29.890269994735718
1617796255.2692,27.34396,29.905889987945557
1617796255.28483,25.09808,29.921519994735718
1617796255.30046,22.5408,29.93715000152588
1617796255.31608,19.86487,29.952769994735718
1617796255.33171,17.1485,29.96840000152588
1617796255.34733,14.37164,29.984019994735718
1617796255.36296,11.43805,29.99965000152588
1617796255.37858,8.260468,30.015269994735718
1617796255.39421,4.804749,30.03090000152588
1617796255.40984,1.099579,30.04653000831604
1617796255.42546,-2.795441,30.06215000152588
1617796255.44109,-6.764221,30.07778000831604
1617796255.45671,-10.73221,30.09340000152588
1617796255.47234,-14.62262,30.10903000831604
1617796255.48796,-18.44836,30.12465000152588
1617796255.50359,-22.30786,30.14028000831604
1617796255.51922,-26.423,30.1559100151062
1617796255.53484,-31.0744,30.17153000831604
1617796255.55047,-36.46927,30.1871600151062
1617796255.56609,-42.53607,30.20278000831604
1617796255.58172,-48.76364,30.2184100151062
1617796255.59734,-54.19662,30.23403000831604
1617796255.61297,-57.59784,30.2496600151062
1617796255.6286,-57.85983,30.265289783477783
1617796255.64422,-54.35397,30.2809100151062
1617796255.65985,-47.17761,30.296539783477783
1617796255.67547,-37.10849,30.3121600151062
1617796255.6911,-25.3558,30.327789783477783
1617796255.70672,-13.15915,30.3434100151062
1617796255.72235,-1.497223,30.359039783477783
1617796255.73798,8.994446,30.374669790267944
1617796255.7536,17.99078,30.390289783477783
1617796255.76923,25.26608,30.405919790267944
1617796255.78485,30.63376,30.421539783477783
1617796255.80048,33.94882,30.437169790267944
1617796255.8161,35.17416,30.452789783477783
1617796255.83173,34.53348,30.468419790267944
1617796255.84736,32.49866,30.484049797058105
1617796255.86298,29.70184,30.499669790267944
1617796255.87861,26.74847,30.515299797058105
1617796255.89423,24.11337,30.530919790267944
1617796255.90986,22.03345,30.546549797058105
1617796255.92548,20.55624,30.562169790267944
1617796255.94111,19.66342,30.577799797058105
1617796255.95674,19.30734,30.593429803848267
1617796255.97236,19.47864,30.609049797058105
1617796255.98799,20.16272,30.624679803848267
1617796256.00361,21.31305,30.640299797058105
1617796256.01924,22.79559,30.655929803848267
1617796256.03486,24.39059,30.671549797058105
1617796256.05049,25.7692,30.687179803848267
1617796256.06612,26.55859,30.702809810638428
1617796256.08174,26.4151,30.718429803848267
1617796256.09737,25.12408,30.734059810638428
1617796256.11299,22.69009,30.749679803848267
1617796256.12862,19.34814,30.765309810638428
1617796256.14424,15.4881,30.780929803848267
1617796256.15987,11.5025,30.796559810638428
1617796256.1755,7.710785,30.81218981742859
1617796256.19112,4.177673,30.827809810638428
1617796256.20675,0.7923889,30.84343981742859
1617796256.22237,-2.679504,30.859059810638428
1617796256.238,-6.457001,30.87468981742859
1617796256.25362,-10.61444,30.890309810638428
1617796256.26925,-15.04849,30.90593981742859
1617796256.28488,-19.50604,30.92156982421875
1617796256.3005,-23.67566,30.93718981742859
1617796256.31613,-27.32297,30.95281982421875
1617796256.33175,-30.39606,30.96843981742859
1617796256.34738,-33.04077,30.98406982421875
1617796256.363,-35.56329,30.99968981742859
1617796256.37863,-38.36629,31.01531982421875
1617796256.39426,-41.81319,31.03094983100891
1617796256.40988,-46.12642,31.04656982421875
1617796256.42551,-51.27548,31.06219983100891
1617796256.44113,-56.85239,31.07781982421875
1617796256.45676,-62.00253,31.09344983100891
1617796256.47238,-65.52849,31.10906982421875
1617796256.48801,-66.14069,31.12469983100891
1617796256.50364,-62.84601,31.140329837799072
1617796256.51926,-55.38187,31.15594983100891
1617796256.53489,-44.33356,31.171579837799072
1617796256.55051,-31.04051,31.18719983100891
1617796256.56614,-17.19421,31.202829837799072
1617796256.58176,-4.303238,31.21844983100891
1617796256.59739,6.64447,31.234079837799072
1617796256.61302,15.29466,31.249709844589233
1617796256.62864,21.75989,31.265329837799072
1617796256.64427,26.37991,31.280959844589233
1617796256.65989,29.4624,31.296579837799072
1617796256.67552,31.22214,31.312209844589233
1617796256.69114,31.78734,31.327829837799072
1617796256.70677,31.26187,31.343459844589233
1617796256.7224,29.81966,31.359089851379395
1617796256.73802,27.68309,31.374709844589233
1617796256.75365,25.15324,31.390339851379395
1617796256.76927,22.58133,31.405959844589233
1617796256.7849,20.32304,31.421589851379395
1617796256.80052,18.67642,31.437209844589233
1617796256.81615,17.88098,31.452839851379395
1617796256.83178,18.01433,31.468469858169556
1617796256.8474,19.01622,31.484089851379395
1617796256.86303,20.72522,31.499719858169556
1617796256.87865,22.9075,31.515339851379395
1617796256.89428,25.29158,31.530969858169556
1617796256.9099,27.5713,31.546589851379395
1617796256.92553,29.46512,31.562219858169556
1617796256.94116,30.69325,31.577849864959717
1617796256.95678,31.07684,31.593469858169556
1617796256.97241,30.58232,31.609099864959717
1617796256.98803,29.32069,31.624719858169556
1617796257.00366,27.5415,31.640349864959717
1617796257.01928,25.4626,31.655969858169556
1617796257.03491,23.22533,31.671599864959717
1617796257.05054,20.83492,31.687229871749878
1617796257.06616,18.17654,31.702849864959717
1617796257.08179,15.11455,31.718479871749878
1617796257.09741,11.59674,31.734099864959717
1617796257.11304,7.649689,31.749729871749878
1617796257.12866,3.381119,31.765349864959717
1617796257.14429,-1.079773,31.780979871749878
1617796257.15992,-5.62056,31.79660987854004
1617796257.17554,-10.13577,31.812229871749878
1617796257.19117,-14.52765,31.82785987854004
1617796257.20679,-18.70511,31.843479871749878
1617796257.22242,-22.5968,31.85910987854004
1617796257.23804,-26.1973,31.874729871749878
1617796257.25367,-29.575,31.89035987854004
1617796257.2693,-32.86275,31.9059898853302
1617796257.28492,-36.25323,31.92160987854004
1617796257.30055,-39.98285,31.9372398853302
1617796257.31617,-44.29599,31.95285987854004
1617796257.3318,-49.36786,31.9684898853302
1617796257.34743,-55.13515,31.98411989212036
1617796257.36305,-61.10551,31.9997398853302
1617796257.37868,-66.29932,32.01536989212036
1617796257.3943,-69.38506,32.0309898853302
1617796257.40993,-69.05016,32.04661989212036
1617796257.42555,-64.47415,32.0622398853302
1617796257.44118,-55.67648,32.07786989212036
1617796257.45681,-43.54192,32.09349989891052
1617796257.47243,-29.55693,32.10911989212036
1617796257.48806,-15.35521,32.12474989891052
1617796257.50368,-2.259521,32.14036989212036
1617796257.51931,8.929657,32.15599989891052
1617796257.53493,17.92078,32.17161989212036
1617796257.55056,24.77257,32.18724989891052
1617796257.56619,29.68266,32.202879905700684
1617796257.58181,32.87968,32.21849989891052
1617796257.59744,34.55156,32.234129905700684
1617796257.61306,34.89259,32.24974989891052
1617796257.62869,34.11815,32.265379905700684
1617796257.64431,32.51274,32.28099989891052
1617796257.65994,30.40276,32.296629905700684
1617796257.67557,28.1342,32.312259912490845
1617796257.69119,25.99727,32.327879905700684
1617796257.70682,24.17197,32.343509912490845
1617796257.72244,22.70718,32.359129905700684
1617796257.73807,21.556,32.374759912490845
1617796257.75369,20.6947,32.390379905700684
1617796257.76932,20.14966,32.406009912490845
1617796257.78495,20.04175,32.421639919281006
1617796257.80057,20.50009,32.437259912490845
1617796257.8162,21.57375,32.452889919281006
1617796257.83182,23.09778,32.468509912490845
1617796257.84745,24.75171,32.484139919281006
1617796257.86307,26.09116,32.499759912490845
1617796257.8787,26.72321,32.515389919281006
1617796257.89433,26.42004,32.53101992607117
1617796257.90995,25.157,32.546639919281006
1617796257.92558,23.10574,32.56226992607117
1617796257.9412,20.50005,32.577889919281006
1617796257.95683,17.60545,32.59351992607117
1617796257.97245,14.61051,32.609139919281006
1617796257.98808,11.64113,32.62476992607117
1617796258.00371,8.755257,32.64039993286133
1617796258.01933,6.006065,32.65601992607117
1617796258.03496,3.41864,32.67164993286133
1617796258.05058,1.001961,32.68726992607117
1617796258.06621,-1.289268,32.70289993286133
1617796258.08183,-3.557518,32.71851992607117
1617796258.09746,-5.919624,32.73414993286133
1617796258.11309,-8.449394,32.74977993965149
1617796258.12871,-11.12242,32.76539993286133
1617796258.14434,-13.83132,32.78102993965149
1617796258.15996,-16.45287,32.79664993286133
1617796258.17559,-18.9339,32.81227993965149
1617796258.19121,-21.3877,32.82789993286133
1617796258.20684,-24.07479,32.84352993965149
1617796258.22247,-27.36141,32.85915994644165
1617796258.23809,-31.56786,32.87477993965149
1617796258.25372,-36.76661,32.89040994644165
1617796258.26934,-42.65379,32.90602993965149
1617796258.28497,-48.46524,32.92165994644165
1617796258.30059,-53.07043,32.93727993965149
1617796258.31622,-55.2192,32.95290994644165
1617796258.33185,-53.92422,32.96853995323181
1617796258.34747,-48.82534,32.98415994644165
1617796258.3631,-40.32988,32.99978995323181
1617796258.37872,-29.55383,33.01540994644165
1617796258.39435,-17.88799,33.03103995323181
1617796258.40997,-6.60849,33.04665994644165
1617796258.4256,3.451111,33.06228995323181
1617796258.44123,11.89803,33.07791996002197
1617796258.45685,18.64803,33.09353995323181
1617796258.47248,23.70205,33.10916996002197
1617796258.4881,27.03944,33.12478995323181
1617796258.50373,28.68422,33.14041996002197
1617796258.51935,28.79781,33.15603995323181
1617796258.53498,27.75969,33.17166996002197
1617796258.55061,26.07032,33.187299966812134
1617796258.56623,24.20041,33.20291996002197
1617796258.58186,22.43184,33.218549966812134
1617796258.59748,20.88634,33.23416996002197
1617796258.61311,19.55653,33.249799966812134
1617796258.62873,18.46437,33.26541996002197
1617796258.64436,17.70237,33.281049966812134
1617796258.65999,17.37026,33.296679973602295
1617796258.67561,17.53662,33.312299966812134
1617796258.69124,18.17899,33.327929973602295
1617796258.70686,19.2301,33.343549966812134
1617796258.72249,20.56408,33.359179973602295
1617796258.73811,22.02904,33.374799966812134
1617796258.75374,23.41499,33.390429973602295
1617796258.76937,24.40209,33.406059980392456
1617796258.78499,24.6489,33.421679973602295
1617796258.80062,23.8762,33.437309980392456
1617796258.81624,22.01265,33.452929973602295
1617796258.83187,19.23685,33.468559980392456
1617796258.84749,15.94591,33.484179973602295
1617796258.86312,12.59319,33.499809980392456
1617796258.87875,9.498968,33.51543998718262
1617796258.89437,6.725101,33.531059980392456
1617796258.91,4.070772,33.54668998718262
1617796258.92562,1.231503,33.562309980392456
1617796258.94125,-2.034488,33.57793998718262
1617796258.95687,-5.742408,33.593559980392456
1617796258.9725,-9.63772,33.60918998718262
1617796258.98813,-13.30987,33.62481999397278
1617796259.00375,-16.36012,33.64043998718262
1617796259.01938,-18.56702,33.65606999397278
1617796259.035,-19.96159,33.67168998718262
1617796259.05063,-20.79418,33.68731999397278
1617796259.06625,-21.40283,33.70293998718262
1617796259.08188,-22.09114,33.71856999397278
1617796259.09751,-22.97335,33.73420000076294
1617796259.11313,-23.95153,33.74981999397278
1617796259.12876,-24.65514,33.76545000076294
1617796259.14438,-24.4945,33.78106999397278
1617796259.16001,-22.7137,33.79670000076294
1617796259.17563,-18.53593,33.81231999397278
1617796259.19126,-11.35831,33.82795000076294
1617796259.20689,-0.904129,33.8435800075531
1617796259.22251,12.62897,33.85920000076294
1617796259.23814,28.65266,33.8748300075531
1617796259.25376,46.31513,33.89045000076294
1617796259.26939,64.69931,33.9060800075531
1617796259.28501,83.00787,33.92170000076294
1617796259.30064,100.6803,33.9373300075531
1617796259.31627,117.3785,33.95296001434326
1617796259.33189,132.9077,33.9685800075531
1617796259.34752,147.117,33.98421001434326
1617796259.36314,159.805,33.9998300075531
1617796259.37877,170.7368,34.01546001434326
1617796259.39439,179.825,34.0310800075531
1617796259.41002,187.3715,34.04671001434326
1617796259.42565,194.1631,34.062339782714844
1617796259.44127,201.3483,34.07796001434326
1617796259.4569,209.9473,34.093589782714844
1617796259.47252,220.2052,34.10921001434326
1617796259.48815,231.185,34.124839782714844
1617796259.50377,240.8221,34.14046001434326
1617796259.5194,246.5291,34.156089782714844
1617796259.53503,246.17,34.171719789505005
1617796259.55065,238.9093,34.187339782714844
1617796259.56628,225.5143,34.202969789505005
1617796259.5819,207.9852,34.218589782714844
1617796259.59753,188.7341,34.234219789505005
1617796259.61316,169.6915,34.249849796295166
1617796259.62878,151.8135,34.265469789505005
1617796259.64441,135.1671,34.281099796295166
1617796259.66003,119.3629,34.296719789505005
1617796259.67566,104.1355,34.312349796295166
1617796259.69128,89.66812,34.327969789505005
1617796259.70691,76.56055,34.343599796295166
1617796259.72254,65.4949,34.35922980308533
1617796259.73816,56.83221,34.374849796295166
1617796259.75379,50.29388,34.39047980308533
1617796259.76941,44.99115,34.406099796295166
1617796259.78504,39.73145,34.42172980308533
1617796259.80066,33.47644,34.437349796295166
1617796259.81629,25.8114,34.45297980308533
1617796259.83192,17.10504,34.46860980987549
1617796259.84754,8.361755,34.48422980308533
1617796259.86317,0.767395,34.49985980987549
1617796259.87879,-4.928162,34.51547980308533
1617796259.89442,-8.863525,34.53110980987549
1617796259.91004,-12.17767,34.54672980308533
1617796259.92567,-16.63013,34.56235980987549
1617796259.9413,-23.99799,34.57798981666565
1617796259.95692,-35.2832,34.59360980987549
1617796259.97255,-50.33789,34.60923981666565
1617796259.98817,-67.94769,34.62485980987549
1617796260.0038,-86.50549,34.64048981666565
1617796260.01942,-104.7316,34.65610980987549
1617796260.03505,-122.3713,34.67173981666565
1617796260.05068,-140.309,34.68736982345581
1617796260.0663,-160.2572,34.70298981666565
1617796260.08193,-184.2499,34.71861982345581
1617796260.09755,-214.267,34.73423981666565
1617796260.11318,-252.0051,34.74986982345581
1617796260.1288,-298.3724,34.76548981666565
1617796260.14443,-352.6315,34.78111982345581
1617796260.16006,-411.4193,34.79674983024597
1617796260.17568,-468.4314,34.81236982345581
1617796260.19131,-515.3372,34.82799983024597
1617796260.20693,-544.1389,34.84361982345581
1617796260.22256,-549.9288,34.85924983024597
1617796260.23818,-532.7339,34.87486982345581
1617796260.25381,-497.3965,34.89049983024597
1617796260.26944,-451.3923,34.90612983703613
1617796260.28506,-401.7775,34.92174983024597
1617796260.30069,-352.8073,34.93737983703613
1617796260.31631,-305.4597,34.95299983024597
1617796260.33194,-258.8326,34.96862983703613
1617796260.34756,-212.3,34.98424983024597
1617796260.36319,-166.983,34.99987983703613
1617796260.37882,-125.6476,35.015509843826294
1617796260.39444,-91.35767,35.03112983703613
1617796260.41007,-65.71875,35.046759843826294
1617796260.42569,-48.02417,35.06237983703613
1617796260.44132,-35.66309,35.078009843826294
1617796260.45694,-25.51465,35.09362983703613
1617796260.47257,-15.36194,35.109259843826294
1617796260.4882,-4.659912,35.124889850616455
1617796260.50382,5.580444,35.140509843826294
1617796260.51945,13.95251,35.156139850616455
1617796260.53507,19.65112,35.171759843826294
1617796260.5507,23.06958,35.187389850616455
1617796260.56632,25.54602,35.203009843826294
1617796260.58195,28.52698,35.218639850616455
1617796260.59758,32.7135,35.234269857406616
1617796260.6132,37.67029,35.249889850616455
1617796260.62883,42.09155,35.265519857406616
1617796260.64445,44.50647,35.281139850616455
1617796260.66008,44.04456,35.296769857406616
1617796260.6757,40.81726,35.312389850616455
1617796260.69133,35.83228,35.328019857406616
1617796260.70696,30.48962,35.34364986419678
1617796260.72258,25.97644,35.359269857406616
1617796260.73821,22.84839,35.37489986419678
1617796260.75383,20.9126,35.390519857406616
1617796260.76946,19.46167,35.40614986419678
1617796260.78508,17.6637,35.421769857406616
1617796260.80071,14.95355,35.43739986419678
1617796260.81634,11.17706,35.45302987098694
1617796260.83196,6.547241,35.46864986419678
1617796260.84759,1.415344,35.48427987098694
1617796260.86321,-3.982483,35.49989986419678
1617796260.87884,-9.554077,35.51552987098694
1617796260.89446,-15.31091,35.53114986419678
1617796260.91009,-21.08667,35.54677987098694
1617796260.92572,-26.36719,35.5624098777771
1617796260.94134,-30.2309,35.57802987098694
1617796260.95697,-31.62689,35.5936598777771
1617796260.97259,-29.70331,35.60927987098694
1617796260.98822,-24.19482,35.6249098777771
1617796261.00384,-15.57062,35.64052987098694
1617796261.01947,-4.915771,35.6561598777771
1617796261.0351,6.413696,35.67178988456726
1617796261.05072,17.13348,35.6874098777771
1617796261.06635,26.33466,35.70303988456726
1617796261.08197,33.53937,35.7186598777771
1617796261.0976,38.62848,35.73428988456726
1617796261.11322,41.72339,35.7499098777771
1617796261.12885,43.04712,35.76553988456726
1617796261.14448,42.90417,35.78116989135742
1617796261.1601,41.63727,35.79678988456726
1617796261.17573,39.58112,35.81241989135742
1617796261.19135,37.01813,35.82803988456726
1617796261.20698,34.14612,35.84366989135742
1617796261.2226,31.08972,35.85928988456726
1617796261.23823,27.96307,35.87491989135742
1617796261.25386,24.93939,35.89054989814758
1617796261.26948,22.26141,35.90616989135742
1617796261.28511,20.23291,35.92179989814758
1617796261.30073,19.12781,35.93741989135742
1617796261.31636,19.09662,35.95304989814758
1617796261.33198,20.10004,35.96866989135742
1617796261.34761,21.87573,35.98429989814758
1617796261.36324,23.98444,35.999929904937744
1617796261.37886,25.90088,36.01554989814758
1617796261.39449,27.16675,36.031179904937744
1617796261.41011,27.51196,36.04679989814758
1617796261.42574,26.90991,36.062429904937744
1617796261.44136,25.55524,36.07804989814758
1617796261.45699,23.72723,36.093679904937744
1617796261.47262,21.7146,36.109309911727905
1617796261.48824,19.65887,36.124929904937744
1617796261.50387,17.55487,36.140559911727905
1617796261.51949,15.27002,36.156179904937744
1617796261.53512,12.63226,36.171809911727905
1617796261.55074,9.492371,36.187429904937744
1617796261.56637,5.790894,36.203059911727905
1617796261.582,1.60321,36.218689918518066
1617796261.59762,-2.895752,36.234309911727905
1617796261.61325,-7.462463,36.249939918518066
1617796261.62887,-11.87213,36.265559911727905
1617796261.6445,-16.01361,36.281189918518066
1617796261.66012,-19.94604,36.296809911727905
1617796261.67575,-23.90662,36.312439918518066
1617796261.69138,-28.19171,36.32806992530823
1617796261.707,-33.03119,36.343689918518066
1617796261.72263,-38.33759,36.35931992530823
1617796261.73825,-43.6485,36.374939918518066
1617796261.75388,-48.065,36.39056992530823
1617796261.76951,-50.49084,36.40619993209839
1617796261.78513,-49.90411,36.42181992530823
1617796261.80076,-45.72726,36.43744993209839
1617796261.81638,-38.02475,36.45306992530823
1617796261.83201,-27.51706,36.46869993209839
1617796261.84763,-15.38702,36.48431992530823
1617796261.86326,-2.935699,36.49994993209839
1617796261.87889,8.728638,36.51557993888855
1617796261.89451,18.84888,36.53119993209839
1617796261.91014,27.0448,36.54682993888855
1617796261.92576,33.21103,36.56244993209839
1617796261.94139,37.40353,36.57807993888855
1617796261.95701,39.73309,36.59369993209839
1617796261.97264,40.41437,36.60932993888855
1617796261.98827,39.71469,36.62495994567871
1617796262.00389,37.9837,36.64057993888855
1617796262.01952,35.58316,36.65620994567871
1617796262.03514,32.83121,36.67182993888855
1617796262.05077,29.96011,36.68745994567871
1617796262.06639,27.15591,36.70307993888855
1617796262.08202,24.59558,36.71870994567871
1617796262.09765,22.46863,36.73433995246887
1617796262.11327,20.95679,36.74995994567871
1617796262.1289,20.16324,36.76558995246887
1617796262.14452,20.07938,36.78120994567871
1617796262.16015,20.55753,36.79683995246887
1617796262.17577,21.33041,36.81245994567871
1617796262.1914,22.09238,36.82808995246887
1617796262.20703,22.53323,36.84371995925903
1617796262.22265,22.48212,36.85933995246887
1617796262.23828,21.85242,36.87496995925903
1617796262.2539,20.68692,36.89058995246887
1617796262.26953,19.06906,36.90621995925903
1617796262.28515,17.08084,36.92183995246887
1617796262.30078,14.755,36.93746995925903
1617796262.31641,12.09274,36.953099966049194
1617796262.33203,9.096497,36.96871995925903
1617796262.34766,5.792206,36.984349966049194
1617796262.36328,2.261597,36.99996995925903
1617796262.37891,-1.388855,37.015599966049194
1617796262.39453,-5.043777,37.03121995925903
1617796262.41016,-8.6483,37.046849966049194
1617796262.42579,-12.20879,37.062479972839355
1617796262.44141,-15.80865,37.078099966049194
1617796262.45704,-19.58487,37.093729972839355
1617796262.47266,-23.72113,37.109349966049194
1617796262.48829,-28.40543,37.124979972839355
1617796262.50391,-33.71413,37.140599966049194
1617796262.51954,-39.45285,37.156229972839355
1617796262.53517,-44.99342,37.17185997962952
1617796262.55079,-49.30096,37.187479972839355
1617796262.56642,-51.12279,37.20310997962952
1617796262.58204,-49.40591,37.218729972839355
1617796262.59767,-43.6673,37.23435997962952
1617796262.61329,-34.26213,37.249979972839355
1617796262.62892,-22.28601,37.26560997962952
1617796262.64455,-9.289169,37.28123998641968
1617796262.66017,3.237305,37.29685997962952
1617796262.6758,14.22969,37.31248998641968
1617796262.69142,23.17763,37.32810997962952
1617796262.70705,30.05386,37.34373998641968
1617796262.72267,35.08582,37.35935997962952
1617796262.7383,38.51393,37.37498998641968
1617796262.75393,40.52766,37.39061999320984
1617796262.76955,41.24086,37.40623998641968
1617796262.78518,40.7722,37.42186999320984
1617796262.8008,39.30036,37.43748998641968
1617796262.81643,37.07939,37.45311999320984
1617796262.83205,34.42926,37.46873998641968
1617796262.84768,31.65353,37.48436999320984
1617796262.86331,29.02153,37.5
1617796262.87893,26.7338,37.51561999320984
1617796262.89456,24.96068,37.53125
1617796262.91018,23.84378,37.54686999320984
1617796262.92581,23.51788,37.5625
1617796262.94143,24.04938,37.57811999320984
1617796262.95706,25.38187,37.59375
1617796262.97269,27.29981,37.60938000679016
1617796262.98831,29.44119,37.625
1617796263.00394,31.37201,37.64063000679016
1617796263.01956,32.68323,37.65625
1617796263.03519,33.14075,37.67188000679016
1617796263.05081,32.69431,37.6875
1617796263.06644,31.47403,37.70313000679016
1617796263.08207,29.69757,37.71876001358032
1617796263.09769,27.55099,37.73438000679016
1617796263.11332,25.09029,37.75001001358032
1617796263.12894,22.23641,37.76563000679016
1617796263.14457,18.82087,37.78126001358032
1617796263.16019,14.74949,37.79688000679016
1617796263.17582,10.06215,37.81251001358032
1617796263.19145,4.975769,37.82814002037048
1617796263.20707,-0.2019463,37.84376001358032
1617796263.2227,-5.171768,37.85939002037048
1617796263.23832,-9.780624,37.87501001358032
1617796263.25395,-14.06721,37.89064002037048
1617796263.26957,-18.30077,37.90626001358032
1617796263.2852,-22.86199,37.92189002037048
1617796263.30083,-28.14513,37.937519788742065
1617796263.31645,-34.35358,37.95314002037048
1617796263.33208,-41.33424,37.968769788742065
1617796263.3477,-48.437,37.98439002037048
1617796263.36333,-54.55571,38.000019788742065
1617796263.37895,-58.32151,38.01564002037048
1617796263.39458,-58.49505,38.031269788742065
1617796263.41021,-54.37817,38.04689979553223
1617796263.42583,-46.08022,38.062519788742065
1617796263.44146,-34.52252,38.07814979553223
1617796263.45708,-21.17705,38.093769788742065
1617796263.47271,-7.60762,38.10939979553223
1617796263.48833,4.937164,38.125019788742065
1617796263.50396,15.74767,38.14064979553223
1617796263.51959,24.64862,38.15627980232239
1617796263.53521,31.75534,38.17189979553223
1617796263.55084,37.2677,38.18752980232239
1617796263.56646,41.29329,38.20314979553223
1617796263.58209,43.83266,38.21877980232239
1617796263.59771,44.90781,38.23439979553223
1617796263.61334,44.67357,38.25002980232239
1617796263.62897,43.47156,38.26565980911255
1617796263.64459,41.71715,38.28127980232239
1617796263.66022,39.81647,38.29690980911255
1617796263.67584,38.02296,38.31252980232239
1617796263.69147,36.43835,38.32815980911255
1617796263.70709,35.07498,38.34377980232239
1617796263.72272,33.93832,38.35940980911255
1617796263.73835,33.07141,38.37503981590271
1617796263.75397,32.59857,38.39065980911255
1617796263.7696,32.60983,38.40628981590271
1617796263.78522,33.13486,38.42190980911255
1617796263.80085,34.04903,38.43753981590271
1617796263.81647,35.07748,38.45315980911255
1617796263.8321,35.84981,38.46878981590271
1617796263.84773,36.0074,38.48441982269287
1617796263.86335,35.32005,38.50003981590271
1617796263.87898,33.75229,38.51566982269287
1617796263.8946,31.43791,38.53128981590271
1617796263.91023,28.6306,38.54691982269287
1617796263.92585,25.58197,38.56253981590271
1617796263.94148,22.44289,38.57816982269287
1617796263.95711,19.25085,38.59379982948303
1617796263.97273,15.92955,38.60941982269287
1617796263.98836,12.3847,38.62504982948303
1617796264.00398,8.560364,38.64066982269287
1617796264.01961,4.523727,38.65629982948303
1617796264.03523,0.4464111,38.67191982269287
1617796264.05086,-3.419037,38.68754982948303
1617796264.06649,-6.823547,38.70317983627319
1617796264.08211,-9.639771,38.71879982948303
1617796264.09774,-11.94629,38.73442983627319
1617796264.11336,-14.05188,38.75004982948303
1617796264.12899,-16.43484,38.76567983627319
1617796264.14461,-19.62784,38.78129982948303
1617796264.16024,-23.95029,38.79692983627319
1617796264.17587,-29.33789,38.812559843063354
1617796264.19149,-35.26791,38.82817983627319
1617796264.20712,-40.75317,38.843809843063354
1617796264.22274,-44.60059,38.85942983627319
1617796264.23837,-45.68066,38.875059843063354
1617796264.25399,-43.2326,38.89067983627319
1617796264.26962,-37.08185,38.906309843063354
1617796264.28525,-27.69324,38.921939849853516
1617796264.30087,-16.04419,38.937559843063354
1617796264.3165,-3.409454,38.953189849853516
1617796264.33212,8.972198,38.968809843063354
1617796264.34775,20.09729,38.984439849853516
1617796264.36337,29.37152,39.000059843063354
1617796264.379,36.58551,39.015689849853516
1617796264.39463,41.8616,39.03131985664368
1617796264.41025,45.48807,39.046939849853516
1617796264.42588,47.79352,39.06256985664368
1617796264.4415,49.07645,39.078189849853516
1617796264.45713,49.56454,39.09381985664368
1617796264.47276,49.48923,39.10944986343384
1617796264.48838,49.16083,39.12506985664368
1617796264.50401,48.9877,39.14069986343384
1617796264.51963,49.37399,39.15631985664368
1617796264.53526,50.66229,39.17194986343384
1617796264.55088,53.01465,39.18756985664368
1617796264.56651,56.44089,39.20319986343384
1617796264.58214,60.88208,39.218829870224
1617796264.59776,66.25104,39.23444986343384
1617796264.61339,72.46298,39.250079870224
1617796264.62901,79.36966,39.26569986343384
1617796264.64464,86.71182,39.281329870224
1617796264.66026,94.14252,39.29694986343384
1617796264.67589,101.3519,39.312579870224
1617796264.69152,108.1376,39.32820987701416
1617796264.70714,114.4542,39.343829870224
1617796264.72277,120.395,39.35945987701416
1617796264.73839,126.0887,39.375079870224
1617796264.75402,131.7483,39.39070987701416
1617796264.76964,137.7408,39.406329870224
1617796264.78527,144.6897,39.42195987701416
1617796264.8009,153.3781,39.43758988380432
1617796264.81652,164.4572,39.45320987701416
1617796264.83215,177.995,39.46883988380432
1617796264.84777,193.1897,39.48445987701416
1617796264.8634,208.448,39.50008988380432
1617796264.87902,221.7568,39.51570987701416
1617796264.89465,231.3367,39.53133988380432
1617796264.91028,236.1079,39.54696989059448
1617796264.9259,235.8764,39.56258988380432
1617796264.94153,231.1215,39.57821989059448
1617796264.95715,222.7048,39.59383988380432
1617796264.97278,211.505,39.60946989059448
1617796264.9884,198.2886,39.62508988380432
1617796265.00403,183.7661,39.64071989059448
1617796265.01966,168.6057,39.656349897384644
1617796265.03528,153.5474,39.67196989059448
1617796265.05091,139.3305,39.687599897384644
1617796265.06653,126.6604,39.70321989059448
1617796265.08216,116.035,39.718849897384644
1617796265.09778,107.6608,39.73446989059448
1617796265.11341,101.2807,39.750099897384644
1617796265.12904,96.13268,39.765729904174805
1617796265.14466,91.10359,39.781349897384644
1617796265.16029,84.9644,39.796979904174805
1617796265.17591,76.88916,39.812599897384644
1617796265.19154,66.74063,39.828229904174805
1617796265.20716,55.20766,39.843849897384644
1617796265.22279,43.53056,39.859479904174805
1617796265.23842,32.97208,39.875109910964966
1617796265.25404,24.1185,39.890729904174805
1617796265.26967,16.57166,39.906359910964966
1617796265.28529,8.983978,39.921979904174805
1617796265.30092,-0.3752441,39.937609910964966
1617796265.31654,-12.82901,39.953229904174805
1617796265.33217,-28.64981,39.968859910964966
1617796265.3478,-46.86826,39.98448991775513
1617796265.36342,-65.89178,40.000109910964966
1617796265.37905,-84.1481,40.01573991775513
1617796265.39467,-101.023,40.031359910964966
1617796265.4103,-117.1904,40.04698991775513
1617796265.42592,-134.3856,40.062609910964966
1617796265.44155,-154.8391,40.07823991775513
1617796265.45718,-180.8141,40.09386992454529
1617796265.4728,-214.3619,40.10948991775513
1617796265.48843,-256.9255,40.12511992454529
1617796265.50405,-308.6365,40.14073991775513
1617796265.51968,-367.1971,40.15636992454529
1617796265.5353,-427.3,40.17198991775513
1617796265.55093,-480.9973,40.18761992454529
1617796265.56656,-519.7791,40.20324993133545
1617796265.58218,-537.3752,40.21886992454529
1617796265.59781,-532.0419,40.23449993133545
1617796265.61343,-507.1347,40.25011992454529
1617796265.62906,-469.3869,40.26574993133545
1617796265.64468,-425.8853,40.28136992454529
1617796265.66031,-381.3229,40.29699993133545
1617796265.67594,-337.0773,40.31262993812561
1617796265.69156,-292.3278,40.32824993133545
1617796265.70719,-246.3824,40.34387993812561
1617796265.72281,-200.4847,40.35949993133545
1617796265.73844,-157.9878,40.37512993812561
1617796265.75406,-122.9664,40.39074993133545
1617796265.76969,-98.08179,40.40637993812561
1617796265.78532,-83.28931,40.42200994491577
1617796265.80094,-75.93439,40.43762993812561
1617796265.81657,-72.26044,40.45325994491577
1617796265.83219,-69.1665,40.46887993812561
1617796265.84782,-65.37714,40.48450994491577
1617796265.86344,-61.62744,40.50012993812561
1617796265.87907,-59.41809,40.51575994491577
1617796265.8947,-59.65558,40.53138995170593
1617796265.91032,-61.62384,40.54700994491577
1617796265.92595,-63.04407,40.56263995170593
1617796265.94157,-61.03595,40.57825994491577
1617796265.9572,-53.52264,40.59388995170593
1617796265.97282,-40.20508,40.60950994491577
1617796265.98845,-22.72302,40.62513995170593
1617796266.00408,-3.915771,40.640769958496094
1617796266.0197,13.4364,40.65638995170593
1617796266.03533,27.60248,40.672019958496094
1617796266.05095,38.38953,40.68763995170593
1617796266.06658,46.74255,40.703269958496094
1617796266.0822,53.88831,40.71888995170593
1617796266.09783,60.50006,40.734519958496094
1617796266.11346,66.31036,40.750149965286255
1617796266.12908,70.33038,40.765769958496094
1617796266.14471,71.51471,40.781399965286255
1617796266.16033,69.48712,40.797019958496094
1617796266.17596,64.82733,40.812649965286255
1617796266.19158,58.89685,40.828269958496094
1617796266.20721,53.22327,40.843899965286255
1617796266.22284,48.94977,40.859529972076416
1617796266.23846,46.47552,40.875149965286255
1617796266.25409,45.50299,40.890779972076416
1617796266.26971,45.37518,40.906399965286255
1617796266.28534,45.42133,40.922029972076416
1617796266.30096,45.26248,40.937649965286255
1617796266.31659,44.83566,40.953279972076416
1617796266.33222,44.29602,40.96890997886658
1617796266.34784,43.8439,40.984529972076416
1617796266.36347,43.53479,41.00015997886658
1617796266.37909,43.23654,41.015779972076416
1617796266.39472,42.6741,41.03140997886658
1617796266.41034,41.54688,41.047029972076416
1617796266.42597,39.65967,41.06265997886658
1617796266.4416,37.0069,41.07828998565674
1617796266.45722,33.78616,41.09390997886658
1617796266.47285,30.32306,41.10953998565674
1617796266.48847,26.93881,41.12515997886658
1617796266.5041,23.82593,41.14078998565674
1617796266.51972,20.97314,41.15640997886658
1617796266.53535,18.1828,41.17203998565674
1617796266.55098,15.1337,41.1876699924469
1617796266.5666,11.56781,41.20328998565674
1617796266.58223,7.374542,41.2189199924469
1617796266.59785,2.705597,41.23453998565674
1617796266.61348,-2.090698,41.2501699924469
1617796266.6291,-6.569794,41.26578998565674
1617796266.64473,-10.42126,41.2814199924469
1617796266.66036,-13.5853,41.29704999923706
1617796266.67598,-16.28076,41.3126699924469
1617796266.69161,-18.92941,41.32829999923706
1617796266.70723,-21.98718,41.3439199924469
1617796266.72286,-25.81235,41.35954999923706
1617796266.73849,-30.60266,41.37518000602722
1617796266.75411,-36.33401,41.39079999923706
1617796266.76974,-42.71094,41.40643000602722
1617796266.78536,-49.08136,41.42204999923706
1617796266.80099,-54.4364,41.43768000602722
1617796266.81661,-57.53229,41.45329999923706
1617796266.83224,-57.22772,41.46893000602722
1617796266.84787,-52.86194,41.48456001281738
1617796266.86349,-44.55719,41.50018000602722
1617796266.87912,-33.24393,41.51581001281738
1617796266.89474,-20.37274,41.53143000602722
1617796266.91037,-7.45752,41.54706001281738
1617796266.92599,4.349884,41.56268000602722
1617796266.94162,14.4344,41.57831001281738
1617796266.95725,22.68745,41.593940019607544
1617796266.97287,29.23392,41.60956001281738
1617796266.9885,34.2346,41.625190019607544
1617796267.00412,37.76256,41.64081001281738
1617796267.01975,39.80348,41.656440019607544
1617796267.03537,40.41507,41.67206001281738
1617796267.051,39.78342,41.687690019607544
1617796267.06663,38.25708,41.703319787979126
1617796267.08225,36.27246,41.718940019607544
1617796267.09788,34.26753,41.734569787979126
1617796267.1135,32.56717,41.750190019607544
1617796267.12913,31.3559,41.765819787979126
1617796267.14475,30.71043,41.781440019607544
1617796267.16038,30.61574,41.797069787979126
1617796267.17601,30.99118,41.81269979476929
1617796267.19163,31.7442,41.828319787979126
1617796267.20726,32.76053,41.84394979476929
1617796267.22288,33.93506,41.859569787979126
1617796267.23851,35.17876,41.87519979476929
1617796267.25413,36.37608,41.890819787979126
1617796267.26976,37.39471,41.90644979476929
1617796267.28539,38.06142,41.92207980155945
1617796267.30101,38.15802,41.93769979476929
1617796267.31664,37.48164,41.95332980155945
1617796267.33226,35.95969,41.96894979476929
1617796267.34789,33.68078,41.98457980155945
1617796267.36351,30.91383,42.00019979476929
1617796267.37914,27.99947,42.01582980155945
1617796267.39477,25.21922,42.03145980834961
1617796267.41039,22.6556,42.04707980155945
1617796267.42602,20.20875,42.06270980834961
1617796267.44164,17.61739,42.07832980155945
1617796267.45727,14.63366,42.09395980834961
1617796267.47289,11.10128,42.10957980155945
1617796267.48852,7.040859,42.12520980834961
1617796267.50415,2.6199,42.14083981513977
1617796267.51977,-1.900837,42.15645980834961
1617796267.5354,-6.236092,42.17208981513977
1617796267.55102,-10.13956,42.18770980834961
1617796267.56665,-13.43942,42.20333981513977
1617796267.58227,-16.12795,42.21895980834961
1617796267.5979,-18.35488,42.23458981513977
1617796267.61353,-20.41675,42.25021982192993
1617796267.62915,-22.75445,42.26583981513977
1617796267.64478,-25.80376,42.28146982192993
1617796267.6604,-29.83713,42.29708981513977
1617796267.67603,-34.7966,42.31271982192993
1617796267.69165,-40.15553,42.32833981513977
1617796267.70728,-44.93788,42.34396982192993
1617796267.72291,-47.93308,42.35959982872009
1617796267.73853,-48.02472,42.37521982192993
1617796267.75416,-44.54633,42.39084982872009
1617796267.76978,-37.55455,42.40646982192993
1617796267.78541,-27.81093,42.42209982872009
1617796267.80103,-16.54272,42.43771982192993
1617796267.81666,-5.077431,42.45334982872009
1617796267.83229,5.560398,42.468979835510254
1617796267.84791,14.77584,42.48459982872009
