timestamp,value,norm_ts
1619090185.18695,17.85362,4.802370071411133
1619090185.20257,18.37115,4.817990064620972
1619090185.2182,18.8629,4.833620071411133
1619090185.23383,19.2,4.849250078201294
1619090185.24945,19.28263,4.864870071411133
1619090185.26508,19.07156,4.880500078201294
1619090185.2807,18.55534,4.896120071411133
1619090185.29633,17.75471,4.911750078201294
1619090185.31195,16.70338,4.927370071411133
1619090185.32758,15.44672,4.943000078201294
1619090185.34321,14.01387,4.958630084991455
1619090185.35883,12.43027,4.974250078201294
1619090185.37446,10.66908,4.989880084991455
1619090185.39008,8.683182,5.005500078201294
1619090185.40571,6.433342,5.021130084991455
1619090185.42133,3.901245,5.036750078201294
1619090185.43696,1.118286,5.052380084991455
1619090185.45259,-1.882553,5.068010091781616
1619090185.46821,-5.064644,5.083630084991455
1619090185.48384,-8.371574,5.099260091781616
1619090185.49946,-11.73102,5.114880084991455
1619090185.51509,-15.04748,5.130510091781616
1619090185.53071,-18.23563,5.146130084991455
1619090185.54634,-21.3134,5.161760091781616
1619090185.56197,-24.40633,5.177390098571777
1619090185.57759,-27.70003,5.193010091781616
1619090185.59322,-31.35825,5.208640098571777
1619090185.60884,-35.30447,5.224260091781616
1619090185.62447,-39.17222,5.239890098571777
1619090185.64009,-42.29588,5.255510091781616
1619090185.65572,-43.91116,5.271140098571777
1619090185.67135,-43.36671,5.2867701053619385
1619090185.68697,-40.38805,5.302390098571777
1619090185.7026,-35.21394,5.3180201053619385
1619090185.71822,-28.53171,5.333640098571777
1619090185.73385,-21.28167,5.3492701053619385
1619090185.74947,-14.37862,5.364890098571777
1619090185.7651,-8.406677,5.3805201053619385
1619090185.78073,-3.555092,5.3961501121521
1619090185.79635,0.3346786,5.4117701053619385
1619090185.81198,3.59568,5.4274001121521
1619090185.8276,6.481796,5.4430201053619385
1619090185.84323,9.066971,5.4586501121521
1619090185.85885,11.26154,5.4742701053619385
1619090185.87448,12.86782,5.4899001121521
1619090185.89011,13.77801,5.505530118942261
1619090185.90573,14.03978,5.5211501121521
1619090185.92136,13.83212,5.536780118942261
1619090185.93698,13.41978,5.5524001121521
1619090185.95261,13.03248,5.568030118942261
1619090185.96823,12.7824,5.5836501121521
1619090185.98386,12.67206,5.599280118942261
1619090185.99949,12.6393,5.614910125732422
1619090186.01511,12.60939,5.630530118942261
1619090186.03074,12.53912,5.646160125732422
1619090186.04636,12.41686,5.661780118942261
1619090186.06199,12.26551,5.677410125732422
1619090186.07761,12.07116,5.693030118942261
1619090186.09324,11.76128,5.708660125732422
1619090186.10887,11.13707,5.724290132522583
1619090186.12449,9.97718,5.739910125732422
1619090186.14012,8.099457,5.755540132522583
1619090186.15574,5.461029,5.771160125732422
1619090186.17137,2.239616,5.786790132522583
1619090186.18699,-1.238564,5.802410125732422
1619090186.20262,-4.582542,5.818040132522583
1619090186.21825,-7.498222,5.833670139312744
1619090186.23387,-9.909775,5.849290132522583
1619090186.2495,-12.00924,5.864920139312744
1619090186.26512,-14.12923,5.880540132522583
1619090186.28075,-16.63364,5.896170139312744
1619090186.29637,-19.7993,5.911790132522583
1619090186.312,-23.70578,5.927420139312744
1619090186.32763,-28.25374,5.943050146102905
1619090186.34325,-33.11984,5.958670139312744
1619090186.35888,-37.74326,5.974300146102905
1619090186.3745,-41.38628,5.989920139312744
1619090186.39013,-43.25661,6.005550146102905
1619090186.40575,-42.71351,6.021170139312744
1619090186.42138,-39.55318,6.036800146102905
1619090186.43701,-34.0975,6.052430152893066
1619090186.45263,-27.10509,6.068050146102905
1619090186.46826,-19.55116,6.083680152893066
1619090186.48388,-12.28383,6.099300146102905
1619090186.49951,-5.799606,6.114930152893066
1619090186.51513,-0.2206802,6.130550146102905
1619090186.53076,4.571777,6.146180152893066
1619090186.54639,8.713623,6.1618101596832275
1619090186.56201,12.27853,6.177430152893066
1619090186.57764,15.27432,6.1930601596832275
1619090186.59326,17.79239,6.208680152893066
1619090186.60889,19.96735,6.2243101596832275
1619090186.62452,21.93536,6.239940166473389
1619090186.64014,23.70655,6.2555601596832275
1619090186.65577,25.07514,6.271190166473389
1619090186.67139,25.74305,6.2868101596832275
1619090186.68702,25.48189,6.302440166473389
1619090186.70264,24.34205,6.3180601596832275
1619090186.71827,22.70013,6.333690166473389
1619090186.7339,21.12436,6.34932017326355
1619090186.74952,20.07191,6.364940166473389
1619090186.76515,19.70392,6.38057017326355
1619090186.78077,19.82,6.396190166473389
1619090186.7964,19.98072,6.41182017326355
1619090186.81202,19.76028,6.427440166473389
1619090186.82765,18.89682,6.44307017326355
1619090186.84328,17.35509,6.458700180053711
1619090186.8589,15.20193,6.47432017326355
1619090186.87453,12.57887,6.489950180053711
1619090186.89015,9.601311,6.50557017326355
1619090186.90578,6.41333,6.521200180053711
1619090186.9214,3.138733,6.53682017326355
1619090186.93703,-0.1104889,6.552450180053711
1619090186.95266,-3.25972,6.568080186843872
1619090186.96828,-6.305786,6.583700180053711
1619090186.98391,-9.284599,6.599330186843872
1619090186.99953,-12.24321,6.614950180053711
1619090187.01516,-15.24102,6.630580186843872
1619090187.03078,-18.3755,6.646200180053711
1619090187.04641,-21.798,6.661830186843872
1619090187.06204,-25.68713,6.677460193634033
1619090187.07766,-30.12673,6.693080186843872
1619090187.09329,-34.90456,6.708710193634033
1619090187.10891,-39.43769,6.724330186843872
1619090187.12454,-42.84729,6.739960193634033
1619090187.14016,-44.23682,6.755580186843872
1619090187.15579,-43.0353,6.771210193634033
1619090187.17142,-39.24215,6.786840200424194
1619090187.18704,-33.40651,6.802460193634033
1619090187.20267,-26.41432,6.818090200424194
1619090187.21829,-19.16082,6.833710193634033
1619090187.23392,-12.27186,6.849340200424194
1619090187.24954,-6.048813,6.864960193634033
1619090187.26517,-0.5330276,6.880590200424194
1619090187.2808,4.351303,6.8962202072143555
1619090187.29642,8.671814,6.911840200424194
1619090187.31205,12.45351,6.9274702072143555
1619090187.32767,15.67234,6.943090200424194
1619090187.3433,18.32434,6.9587202072143555
1619090187.35892,20.40129,6.974340200424194
1619090187.37455,21.89759,6.9899702072143555
1619090187.39018,22.80657,7.005600214004517
1619090187.4058,23.14725,7.0212202072143555
1619090187.42143,22.9729,7.036850214004517
1619090187.43705,22.4299,7.0524702072143555
1619090187.45268,21.74469,7.068100214004517
1619090187.4683,21.14366,7.0837202072143555
1619090187.48393,20.77305,7.099350214004517
1619090187.49956,20.65749,7.114980220794678
1619090187.51518,20.67869,7.130600214004517
1619090187.53081,20.66246,7.146230220794678
1619090187.54643,20.44151,7.161850214004517
1619090187.56206,19.92172,7.177480220794678
1619090187.57768,19.10961,7.193100214004517
1619090187.59331,18.08036,7.208730220794678
1619090187.60894,16.93638,7.22435998916626
1619090187.62456,15.73806,7.239980220794678
1619090187.64019,14.42912,7.25560998916626
1619090187.65581,12.8564,7.271230220794678
1619090187.67144,10.86279,7.28685998916626
1619090187.68706,8.383293,7.302480220794678
1619090187.70269,5.520729,7.31810998916626
1619090187.71832,2.48,7.333739995956421
1619090187.73394,-0.5506115,7.34935998916626
1619090187.74957,-3.543365,7.364989995956421
1619090187.76519,-6.689625,7.38060998916626
1619090187.78082,-10.31574,7.396239995956421
1619090187.79644,-14.68548,7.41185998916626
1619090187.81207,-19.79564,7.427489995956421
1619090187.8277,-25.30707,7.443120002746582
1619090187.84332,-30.56617,7.458739995956421
1619090187.85895,-34.80637,7.474370002746582
1619090187.87457,-37.39627,7.489989995956421
1619090187.8902,-38.00171,7.505620002746582
1619090187.90582,-36.57024,7.521239995956421
1619090187.92145,-33.34308,7.536870002746582
1619090187.93708,-28.7101,7.552500009536743
1619090187.9527,-23.09743,7.568120002746582
1619090187.96833,-16.95187,7.583750009536743
1619090187.98395,-10.69449,7.599370002746582
1619090187.99958,-4.663429,7.615000009536743
1619090188.0152,0.8716373,7.630620002746582
1619090188.03083,5.767822,7.646250009536743
1619090188.04646,9.988693,7.661880016326904
1619090188.06208,13.58887,7.677500009536743
1619090188.07771,16.66648,7.693130016326904
1619090188.09333,19.34314,7.708750009536743
1619090188.10896,21.70935,7.724380016326904
1619090188.12458,23.82181,7.740000009536743
1619090188.14021,25.68098,7.755630016326904
1619090188.15584,27.23715,7.771260023117065
1619090188.17146,28.43334,7.786880016326904
1619090188.18709,29.26294,7.802510023117065
1619090188.20271,29.76939,7.818130016326904
1619090188.21834,30.05005,7.833760023117065
1619090188.23396,30.18482,7.849380016326904
1619090188.24959,30.17986,7.865010023117065
1619090188.26522,29.98019,7.880640029907227
1619090188.28084,29.51534,7.896260023117065
1619090188.29647,28.76465,7.911890029907227
1619090188.31209,27.8219,7.927510023117065
1619090188.32772,26.81231,7.943140029907227
1619090188.34334,25.80632,7.958760023117065
1619090188.35897,24.74023,7.974390029907227
1619090188.3746,23.38964,7.990020036697388
1619090188.39022,21.47179,8.005640029907227
1619090188.40585,18.87432,8.021270036697388
1619090188.42147,15.70046,8.036890029907227
1619090188.4371,12.25823,8.052520036697388
1619090188.45272,8.936443,8.068140029907227
1619090188.46835,5.960876,8.083770036697388
1619090188.48398,3.294651,8.099400043487549
1619090188.4996,0.6678143,8.115020036697388
1619090188.51523,-2.248079,8.130650043487549
1619090188.53085,-5.68334,8.146270036697388
1619090188.54648,-9.647758,8.161900043487549
1619090188.5621,-14.00189,8.177520036697388
1619090188.57773,-18.58512,8.193150043487549
1619090188.59336,-23.26289,8.20878005027771
1619090188.60898,-27.94293,8.224400043487549
1619090188.62461,-32.44234,8.24003005027771
1619090188.64023,-36.35244,8.255650043487549
1619090188.65586,-39.00256,8.27128005027771
1619090188.67148,-39.66283,8.286900043487549
1619090188.68711,-37.81332,8.30253005027771
1619090188.70274,-33.44386,8.318160057067871
1619090188.71836,-27.15125,8.33378005027771
1619090188.73399,-19.97896,8.349410057067871
1619090188.74961,-13.03131,8.36503005027771
1619090188.76524,-7.070951,8.380660057067871
1619090188.78086,-2.340925,8.39628005027771
1619090188.79649,1.348734,8.411910057067871
1619090188.81212,4.366594,8.427540063858032
1619090188.82774,6.964191,8.443160057067871
1619090188.84337,9.171534,8.458790063858032
1619090188.85899,10.88864,8.474410057067871
1619090188.87462,12.02994,8.490040063858032
1619090188.89024,12.67552,8.505660057067871
1619090188.90587,13.04123,8.521290063858032
1619090188.9215,13.34282,8.536920070648193
1619090188.93712,13.63432,8.552540063858032
1619090188.95275,13.79306,8.568170070648193
1619090188.96837,13.60377,8.583790063858032
1619090188.984,12.95592,8.599420070648193
1619090188.99962,11.94182,8.615040063858032
1619090189.01525,10.83739,8.630670070648193
1619090189.03088,9.954794,8.646300077438354
1619090189.0465,9.506794,8.661920070648193
1619090189.06213,9.506453,8.677550077438354
1619090189.07775,9.773054,8.693170070648193
1619090189.09338,10.03453,8.708800077438354
1619090189.109,9.980988,8.724420070648193
1619090189.12463,9.334465,8.740050077438354
1619090189.14026,7.887657,8.755680084228516
1619090189.15588,5.567223,8.771300077438354
1619090189.17151,2.462914,8.786930084228516
1619090189.18713,-1.212292,8.802550077438354
1619090189.20276,-5.088112,8.818180084228516
1619090189.21839,-8.812574,8.833810091018677
1619090189.23401,-12.13981,8.849430084228516
1619090189.24964,-15.0532,8.865060091018677
1619090189.26526,-17.76859,8.880680084228516
1619090189.28089,-20.64547,8.896310091018677
1619090189.29651,-24.02866,8.911930084228516
1619090189.31214,-28.08013,8.927560091018677
1619090189.32777,-32.69166,8.943190097808838
1619090189.34339,-37.44278,8.958810091018677
1619090189.35902,-41.69746,8.974440097808838
1619090189.37464,-44.71976,8.990060091018677
1619090189.39027,-45.82695,9.005690097808838
1619090189.40589,-44.56051,9.021310091018677
1619090189.42152,-40.80997,9.036940097808838
1619090189.43715,-34.89002,9.052570104598999
1619090189.45277,-27.49162,9.068190097808838
1619090189.4684,-19.56669,9.083820104598999
1619090189.48402,-12.03747,9.099440097808838
1619090189.49965,-5.588409,9.115070104598999
1619090189.51527,-0.4798431,9.130690097808838
1619090189.5309,3.430019,9.146320104598999
1619090189.54653,6.550488,9.16195011138916
1619090189.56215,9.299076,9.177570104598999
1619090189.57778,11.90706,9.19320011138916
1619090189.5934,14.34626,9.208820104598999
1619090189.60903,16.41074,9.22445011138916
1619090189.62465,17.87399,9.240070104598999
1619090189.64028,18.66229,9.25570011138916
1619090189.65591,18.87044,9.271330118179321
1619090189.67153,18.72876,9.28695011138916
1619090189.68716,18.42116,9.302580118179321
1619090189.70278,18.04359,9.31820011138916
1619090189.71841,17.56201,9.333830118179321
1619090189.73403,16.92762,9.34945011138916
1619090189.74966,16.15352,9.365080118179321
1619090189.76529,15.33008,9.380710124969482
1619090189.78091,14.59616,9.396330118179321
1619090189.79654,14.02125,9.411960124969482
1619090189.81216,13.54364,9.427580118179321
1619090189.82779,12.93091,9.443210124969482
1619090189.84341,11.91893,9.458830118179321
1619090189.85904,10.31398,9.474460124969482
1619090189.87467,8.075645,9.490090131759644
1619090189.89029,5.33299,9.505710124969482
1619090189.90592,2.280887,9.521340131759644
1619090189.92154,-0.8465698,9.536960124969482
1619090189.93717,-3.864487,9.552590131759644
1619090189.95279,-6.637229,9.568210124969482
1619090189.96842,-9.105535,9.583840131759644
1619090189.98405,-11.31459,9.599470138549805
1619090189.99967,-13.44911,9.615090131759644
1619090190.0153,-15.82379,9.630720138549805
1619090190.03092,-18.8253,9.646340131759644
1619090190.04655,-22.73254,9.661970138549805
1619090190.06217,-27.58737,9.677590131759644
1619090190.0778,-33.07225,9.693220138549805
1619090190.09343,-38.54755,9.708850145339966
1619090190.10905,-43.18804,9.724470138549805
1619090190.12468,-46.20846,9.740100145339966
1619090190.1403,-47.03954,9.755720138549805
1619090190.15593,-45.45736,9.771350145339966
1619090190.17155,-41.54217,9.786970138549805
1619090190.18718,-35.62978,9.802600145339966
1619090190.20281,-28.25117,9.818230152130127
1619090190.21843,-20.07868,9.833850145339966
1619090190.23406,-11.87432,9.849480152130127
1619090190.24968,-4.396015,9.865100145339966
1619090190.26531,1.746067,9.880730152130127
1619090190.28093,6.314505,9.896350145339966
1619090190.29656,9.489485,9.911980152130127
1619090190.31219,11.81654,9.927610158920288
1619090190.32781,13.90209,9.943230152130127
1619090190.34344,16.11672,9.958860158920288
1619090190.35906,18.41214,9.974480152130127
1619090190.37469,20.37962,9.990110158920288
1619090190.39031,21.55099,10.005730152130127
1619090190.40594,21.68005,10.021360158920288
1619090190.42157,20.94675,10.03699016571045
1619090190.43719,19.83907,10.052610158920288
1619090190.45282,18.87696,10.06824016571045
1619090190.46844,18.3731,10.083860158920288
1619090190.48407,18.31341,10.09949016571045
1619090190.49969,18.46888,10.115110158920288
1619090190.51532,18.5864,10.13074016571045
1619090190.53095,18.5304,10.14637017250061
1619090190.54657,18.3134,10.16199016571045
1619090190.5622,18.00722,10.17762017250061
1619090190.57782,17.62395,10.19324016571045
1619090190.59345,17.07499,10.20887017250061
1619090190.60907,16.21832,10.22449016571045
1619090190.6247,14.95317,10.24012017250061
1619090190.64033,13.26686,10.255750179290771
1619090190.65595,11.24583,10.27137017250061
1619090190.67158,9.034531,10.287000179290771
1619090190.6872,6.727631,10.30262017250061
1619090190.70283,4.350632,10.318250179290771
1619090190.71845,1.879234,10.33387017250061
1619090190.73408,-0.6927261,10.349500179290771
1619090190.74971,-3.316223,10.365130186080933
1619090190.76533,-5.912849,10.380750179290771
1619090190.78096,-8.363274,10.396380186080933
1619090190.79658,-10.64246,10.412000179290771
1619090190.81221,-12.84506,10.427630186080933
1619090190.82783,-15.18747,10.443250179290771
1619090190.84346,-17.95234,10.458880186080933
1619090190.85909,-21.36517,10.474510192871094
1619090190.87471,-25.44676,10.490130186080933
1619090190.89034,-29.8895,10.505760192871094
1619090190.90596,-34.05689,10.521380186080933
1619090190.92159,-37.07001,10.537010192871094
1619090190.93721,-38.0187,10.552630186080933
1619090190.95284,-36.23191,10.568260192871094
1619090190.96847,-31.50433,10.583890199661255
1619090190.98409,-24.24179,10.599510192871094
1619090190.99972,-15.37664,10.615140199661255
1619090191.01534,-6.126083,10.630760192871094
1619090191.03097,2.360603,10.646390199661255
1619090191.04659,9.309891,10.662010192871094
1619090191.06222,14.4789,10.677640199661255
1619090191.07785,18.08506,10.693270206451416
1619090191.09347,20.62704,10.708890199661255
1619090191.1091,22.64288,10.724520206451416
1619090191.12472,24.59796,10.740140199661255
1619090191.14035,26.79424,10.755770206451416
1619090191.15597,29.38175,10.771390199661255
1619090191.1716,32.3723,10.787020206451416
1619090191.18723,35.56,10.802650213241577
1619090191.20285,38.53203,10.818270206451416
1619090191.21848,40.69926,10.833900213241577
1619090191.2341,41.50592,10.849520206451416
1619090191.24973,40.64674,10.865150213241577
1619090191.26535,38.18506,10.880770206451416
1619090191.28098,34.6132,10.896400213241577
1619090191.29661,30.68519,10.912030220031738
1619090191.31223,27.12984,10.927650213241577
1619090191.32786,24.43811,10.943280220031738
1619090191.34348,22.75497,10.958900213241577
1619090191.35911,21.91678,10.974530220031738
1619090191.37473,21.60235,10.990150213241577
1619090191.39036,21.4906,11.005780220031738
1619090191.40599,21.33504,11.02140998840332
1619090191.42161,20.99086,11.037030220031738
1619090191.43724,20.36378,11.05265998840332
1619090191.45286,19.40044,11.068280220031738
1619090191.46849,18.08078,11.08390998840332
1619090191.48412,16.4284,11.099539995193481
1619090191.49974,14.55819,11.11515998840332
1619090191.51537,12.6667,11.130789995193481
1619090191.53099,10.98191,11.14640998840332
1619090191.54662,9.653969,11.162039995193481
1619090191.56224,8.678246,11.17765998840332
1619090191.57787,7.828644,11.193289995193481
1619090191.5935,6.755295,11.208920001983643
1619090191.60912,5.095993,11.224539995193481
1619090191.62475,2.642624,11.240170001983643
1619090191.64037,-0.6165009,11.255789995193481
1619090191.656,-4.513947,11.271420001983643
1619090191.67162,-8.764549,11.287039995193481
1619090191.68725,-13.04327,11.302670001983643
1619090191.70288,-16.93414,11.318300008773804
1619090191.7185,-19.93987,11.333920001983643
1619090191.73413,-21.522,11.349550008773804
1619090191.74975,-21.24132,11.365170001983643
1619090191.76538,-18.97587,11.380800008773804
1619090191.781,-15.04232,11.396420001983643
1619090191.79663,-10.11899,11.412050008773804
1619090191.81226,-5.005844,11.427680015563965
1619090191.82788,-0.3372803,11.443300008773804
1619090191.84351,3.597191,11.458930015563965
1619090191.85913,6.759277,11.474550008773804
1619090191.87476,9.214714,11.490180015563965
1619090191.89038,10.97203,11.505800008773804
1619090191.90601,12.01379,11.521430015563965
1619090191.92164,12.43616,11.537060022354126
1619090191.93726,12.53666,11.552680015563965
1619090191.95289,12.77085,11.568310022354126
1619090191.96851,13.50882,11.583930015563965
1619090191.98414,14.79472,11.599560022354126
1619090191.99976,16.30798,11.615180015563965
1619090192.01539,17.52676,11.630810022354126
1619090192.03102,18.08145,11.646440029144287
1619090192.04664,18.00138,11.662060022354126
1619090192.06227,17.74486,11.677690029144287
1619090192.07789,17.88734,11.693310022354126
1619090192.09352,18.78536,11.708940029144287
1619090192.10914,20.30257,11.724560022354126
1619090192.12477,21.81597,11.740190029144287
1619090192.1404,22.51693,11.755820035934448
1619090192.15602,21.82642,11.771440029144287
1619090192.17165,19.6428,11.787070035934448
1619090192.18727,16.36501,11.802690029144287
1619090192.2029,12.6699,11.818320035934448
1619090192.21852,9.1917,11.833940029144287
1619090192.23415,6.284966,11.849570035934448
1619090192.24978,3.947803,11.86520004272461
1619090192.2654,1.954578,11.880820035934448
1619090192.28103,0.06119537,11.89645004272461
1619090192.29665,-1.835434,11.912070035934448
1619090192.31228,-3.723194,11.92770004272461
1619090192.3279,-5.630676,11.943320035934448
1619090192.34353,-7.720715,11.95895004272461
1619090192.35916,-10.3346,11.97458004951477
1619090192.37478,-13.78754,11.99020004272461
1619090192.39041,-18.12056,12.00583004951477
1619090192.40603,-22.97564,12.02145004272461
1619090192.42166,-27.67014,12.03708004951477
1619090192.43728,-31.46018,12.05270004272461
1619090192.45291,-33.84555,12.06833004951477
1619090192.46854,-34.71982,12.083960056304932
1619090192.48416,-34.27474,12.09958004951477
1619090192.49979,-32.7425,12.115210056304932
1619090192.51541,-30.23209,12.13083004951477
1619090192.53104,-26.66893,12.146460056304932
1619090192.54666,-21.94151,12.16208004951477
1619090192.56229,-16.16505,12.177710056304932
1619090192.57792,-9.784767,12.193340063095093
1619090192.59354,-3.507244,12.208960056304932
1619090192.60917,1.97338,12.224590063095093
1619090192.62479,6.234499,12.240210056304932
1619090192.64042,9.243963,12.255840063095093
1619090192.65604,11.30425,12.271460056304932
1619090192.67167,12.84153,12.287090063095093
1619090192.6873,14.2182,12.302720069885254
1619090192.70292,15.57129,12.318340063095093
1619090192.71855,16.83539,12.333970069885254
1619090192.73417,17.82512,12.349590063095093
1619090192.7498,18.32359,12.365220069885254
1619090192.76542,18.15482,12.380840063095093
1619090192.78105,17.19554,12.396470069885254
1619090192.79668,15.43627,12.412100076675415
1619090192.8123,12.96228,12.427720069885254
1619090192.82793,9.9356,12.443350076675415
1619090192.84355,6.613342,12.458970069885254
1619090192.85918,3.265348,12.474600076675415
1619090192.8748,0.1996059,12.490220069885254
1619090192.89043,-2.273674,12.505850076675415
1619090192.90606,-3.869381,12.521480083465576
1619090192.92168,-4.435137,12.537100076675415
1619090192.93731,-4.083712,12.552730083465576
1619090192.95293,-3.279003,12.568350076675415
1619090192.96856,-2.804327,12.583980083465576
1619090192.98418,-3.497725,12.599600076675415
1619090192.99981,-5.865265,12.615230083465576
1619090193.01544,-9.850998,12.630860090255737
1619090193.03106,-14.81378,12.646480083465576
1619090193.04669,-19.81417,12.662110090255737
1619090193.06231,-24.08103,12.677730083465576
1619090193.07794,-27.31753,12.693360090255737
1619090193.09356,-29.7707,12.708980083465576
1619090193.10919,-32.02184,12.724610090255737
1619090193.12482,-34.55271,12.740240097045898
1619090193.14044,-37.47756,12.755860090255737
1619090193.15607,-40.45958,12.771490097045898
1619090193.17169,-42.88572,12.787110090255737
1619090193.18732,-44.09275,12.802740097045898
1619090193.20294,-43.60173,12.818360090255737
1619090193.21857,-41.20144,12.833990097045898
1619090193.2342,-36.94081,12.84962010383606
1619090193.24982,-31.07498,12.865240097045898
1619090193.26545,-24.03238,12.88087010383606
1619090193.28107,-16.38597,12.896490097045898
1619090193.2967,-8.776161,12.91212010383606
1619090193.31232,-1.801247,12.927740097045898
1619090193.32795,4.128914,12.94337010383606
1619090193.34358,8.900105,12.95900011062622
1619090193.3592,12.67483,12.97462010383606
1619090193.37483,15.77892,12.99025011062622
1619090193.39045,18.47192,13.00587010383606
1619090193.40608,20.793,13.02150011062622
1619090193.4217,22.52551,13.03712010383606
1619090193.43733,23.35555,13.05275011062622
1619090193.45296,23.06146,13.068380117416382
1619090193.46858,21.67904,13.08400011062622
1619090193.48421,19.52305,13.099630117416382
1619090193.49983,17.05453,13.11525011062622
1619090193.51546,14.72806,13.130880117416382
1619090193.53108,12.84996,13.14650011062622
1619090193.54671,11.51477,13.162130117416382
1619090193.56234,10.64329,13.177760124206543
1619090193.57796,10.01875,13.193380117416382
1619090193.59359,9.375755,13.209010124206543
1619090193.60921,8.447594,13.224630117416382
1619090193.62484,7.035007,13.240260124206543
1619090193.64047,4.98114,13.255890130996704
1619090193.65609,2.243225,13.271510124206543
1619090193.67172,-1.143726,13.287140130996704
1619090193.68734,-5.027634,13.302760124206543
1619090193.70297,-9.181202,13.318390130996704
1619090193.71859,-13.32083,13.334010124206543
1619090193.73422,-17.20174,13.349640130996704
1619090193.74985,-20.70943,13.365270137786865
1619090193.76547,-23.915,13.380890130996704
1619090193.7811,-27.06677,13.396520137786865
1619090193.79672,-30.41735,13.412140130996704
1619090193.81235,-34.05117,13.427770137786865
1619090193.82797,-37.7376,13.443390130996704
1619090193.8436,-40.94341,13.459020137786865
1619090193.85923,-43.00868,13.474650144577026
1619090193.87485,-43.34111,13.490270137786865
1619090193.89048,-41.57878,13.505900144577026
1619090193.9061,-37.66734,13.521520137786865
1619090193.92173,-31.87073,13.537150144577026
1619090193.93735,-24.66819,13.552770137786865
1619090193.95298,-16.74104,13.568400144577026
1619090193.96861,-8.863483,13.584030151367188
1619090193.98423,-1.755047,13.599650144577026
1619090193.99986,4.080162,13.615280151367188
1619090194.01548,8.45672,13.630900144577026
1619090194.03111,11.52295,13.646530151367188
1619090194.04673,13.60816,13.662150144577026
1619090194.06236,15.08558,13.677780151367188
1619090194.07799,16.20648,13.693410158157349
1619090194.09361,17.10261,13.709030151367188
1619090194.10924,17.83485,13.724660158157349
1619090194.12486,18.48509,13.740280151367188
1619090194.14049,19.10988,13.755910158157349
1619090194.15611,19.74576,13.771530151367188
1619090194.17174,20.30354,13.787160158157349
1619090194.18737,20.59509,13.80279016494751
1619090194.20299,20.45371,13.818410158157349
1619090194.21862,19.83081,13.83404016494751
1619090194.23424,18.89557,13.849660158157349
1619090194.24987,17.94284,13.86529016494751
1619090194.26549,17.24987,13.880910158157349
1619090194.28112,16.92702,13.89654016494751
1619090194.29675,16.85207,13.912170171737671
1619090194.31237,16.70267,13.92779016494751
1619090194.328,16.11545,13.943420171737671
1619090194.34362,14.84684,13.95904016494751
1619090194.35925,12.87719,13.974670171737671
1619090194.37487,10.4141,13.99029016494751
1619090194.3905,7.795033,14.005920171737671
1619090194.40613,5.301306,14.021550178527832
1619090194.42175,2.983406,14.037170171737671
1619090194.43738,0.6489172,14.052800178527832
1619090194.453,-2.083985,14.068420171737671
1619090194.46863,-5.557384,14.084050178527832
1619090194.48425,-9.909479,14.099670171737671
1619090194.49988,-14.94173,14.115300178527832
1619090194.51551,-20.16648,14.130930185317993
1619090194.53113,-24.92517,14.146550178527832
1619090194.54676,-28.5533,14.162180185317993
1619090194.56238,-30.50977,14.177800178527832
1619090194.57801,-30.43258,14.193430185317993
1619090194.59363,-28.2413,14.209050178527832
1619090194.60926,-24.10446,14.224680185317993
1619090194.62489,-18.43729,14.240310192108154
1619090194.64051,-11.87287,14.255930185317993
1619090194.65614,-5.129249,14.271560192108154
1619090194.67176,1.134878,14.287180185317993
1619090194.68739,6.450263,14.302810192108154
1619090194.70301,10.59672,14.318430185317993
1619090194.71864,13.58828,14.334060192108154
1619090194.73427,15.59309,14.349690198898315
1619090194.74989,16.85362,14.365310192108154
1619090194.76552,17.60069,14.380940198898315
1619090194.78114,17.9958,14.396560192108154
1619090194.79677,18.10639,14.412190198898315
1619090194.81239,17.90058,14.427810192108154
1619090194.82802,17.25778,14.443440198898315
1619090194.84365,16.08845,14.459070205688477
1619090194.85927,14.43078,14.474690198898315
1619090194.8749,12.49004,14.490320205688477
1619090194.89052,10.62338,14.505940198898315
1619090194.90615,9.173142,14.521570205688477
1619090194.92177,8.356035,14.537190198898315
1619090194.9374,8.174057,14.552820205688477
1619090194.95303,8.430031,14.568450212478638
1619090194.96865,8.831112,14.584070205688477
1619090194.98428,9.055174,14.599700212478638
1619090194.9999,8.853063,14.615320205688477
1619090195.01553,8.067341,14.630950212478638
1619090195.03115,6.648501,14.646570205688477
1619090195.04678,4.641395,14.662200212478638
1619090195.06241,2.167273,14.677830219268799
1619090195.07803,-0.5803814,14.693450212478638
1619090195.09366,-3.399119,14.709080219268799
1619090195.10928,-6.144281,14.724700212478638
1619090195.12491,-8.799335,14.740330219268799
1619090195.14053,-11.50339,14.755950212478638
1619090195.15616,-14.48311,14.771580219268799
1619090195.17179,-17.93417,14.78720998764038
1619090195.18741,-21.82996,14.802830219268799
1619090195.20304,-25.883,14.81845998764038
1619090195.21866,-29.53252,14.834080219268799
1619090195.23429,-32.09292,14.84970998764038
1619090195.24991,-32.91842,14.865330219268799
1619090195.26554,-31.59655,14.88095998764038
1619090195.28117,-28.05238,14.896589994430542
1619090195.29679,-22.54942,14.91220998764038
1619090195.31242,-15.62801,14.927839994430542
1619090195.32804,-8.012124,14.94345998764038
1619090195.34367,-0.4577904,14.959089994430542
1619090195.35929,6.364668,14.97470998764038
1619090195.37492,11.95886,14.990339994430542
1619090195.39055,16.1658,15.005970001220703
1619090195.40617,19.08924,15.021589994430542
1619090195.4218,21.04758,15.037220001220703
1619090195.43742,22.38058,15.052839994430542
1619090195.45305,23.2702,15.068470001220703
1619090195.46867,23.70713,15.084089994430542
1619090195.4843,23.59697,15.099720001220703
1619090195.49993,22.9058,15.115350008010864
1619090195.51555,21.78227,15.130970001220703
1619090195.53118,20.54616,15.146600008010864
1619090195.5468,19.51088,15.162220001220703
1619090195.56243,18.86852,15.177850008010864
1619090195.57805,18.6148,15.193470001220703
1619090195.59368,18.59027,15.209100008010864
1619090195.60931,18.59483,15.224730014801025
1619090195.62493,18.46312,15.240350008010864
1619090195.64056,18.09546,15.255980014801025
1619090195.65618,17.41171,15.271600008010864
1619090195.67181,16.28937,15.287230014801025
1619090195.68743,14.596,15.302850008010864
1619090195.70306,12.21959,15.318480014801025
1619090195.71869,9.253334,15.334110021591187
1619090195.73431,5.989458,15.349730014801025
1619090195.74994,2.856501,15.365360021591187
1619090195.76556,0.2078228,15.380980014801025
1619090195.78119,-1.873699,15.396610021591187
1619090195.79681,-3.645992,15.412230014801025
1619090195.81244,-5.670336,15.427860021591187
1619090195.82807,-8.569183,15.443490028381348
1619090195.84369,-12.7545,15.459110021591187
1619090195.85932,-18.18376,15.474740028381348
1619090195.87494,-24.31731,15.490360021591187
1619090195.89057,-30.23255,15.505990028381348
1619090195.90619,-34.8548,15.521610021591187
1619090195.92182,-37.3045,15.537240028381348
1619090195.93745,-37.07752,15.552870035171509
1619090195.95307,-34.20259,15.568490028381348
1619090195.9687,-29.14601,15.584120035171509
1619090195.98432,-22.68343,15.599740028381348
1619090195.99995,-15.70639,15.615370035171509
1619090196.01557,-8.970877,15.630990028381348
1619090196.0312,-2.975321,15.646620035171509
1619090196.04683,2.102938,15.66225004196167
1619090196.06245,6.325106,15.677870035171509
1619090196.07808,9.86736,15.69350004196167
1619090196.0937,12.87813,15.709120035171509
1619090196.10933,15.41431,15.72475004196167
1619090196.12495,17.43047,15.740370035171509
1619090196.14058,18.8367,15.75600004196167
1619090196.15621,19.55818,15.771630048751831
1619090196.17183,19.60068,15.78725004196167
1619090196.18746,19.13709,15.802880048751831
1619090196.20308,18.42046,15.81850004196167
1619090196.21871,17.75589,15.834130048751831
1619090196.23433,17.37853,15.84975004196167
1619090196.24996,17.36565,15.865380048751831
1619090196.26559,17.58722,15.881010055541992
1619090196.28121,17.82363,15.896630048751831
1619090196.29684,17.88427,15.912260055541992
1619090196.31246,17.70212,15.927880048751831
1619090196.32809,17.34292,15.943510055541992
1619090196.34372,16.90021,15.959140062332153
1619090196.35934,16.38683,15.974760055541992
1619090196.37497,15.63924,15.990390062332153
1619090196.39059,14.4283,16.006010055541992
1619090196.40622,12.63903,16.021640062332153
1619090196.42184,10.34979,16.037260055541992
1619090196.43747,7.866192,16.052890062332153
1619090196.4531,5.530014,16.068520069122314
1619090196.46872,3.539221,16.084140062332153
1619090196.48435,1.841594,16.099770069122314
1619090196.49997,0.1604252,16.115390062332153
1619090196.5156,-1.815221,16.131020069122314
1619090196.53122,-4.285019,16.146640062332153
1619090196.54685,-7.269605,16.162270069122314
1619090196.56248,-10.70155,16.177900075912476
1619090196.5781,-14.45325,16.193520069122314
1619090196.59373,-18.40359,16.209150075912476
1619090196.60935,-22.34142,16.224770069122314
1619090196.62498,-25.86884,16.240400075912476
1619090196.6406,-28.40914,16.256020069122314
1619090196.65623,-29.3589,16.271650075912476
1619090196.67186,-28.31673,16.287280082702637
1619090196.68748,-25.25845,16.302900075912476
1619090196.70311,-20.57599,16.318530082702637
1619090196.71873,-14.92525,16.334150075912476
1619090196.73436,-8.979643,16.349780082702637
1619090196.74998,-3.248359,16.365400075912476
1619090196.76561,1.971607,16.381030082702637
1619090196.78124,6.590215,16.396660089492798
1619090196.79686,10.60119,16.412280082702637
1619090196.81249,13.98646,16.427910089492798
1619090196.82811,16.68889,16.443530082702637
1619090196.84374,18.62516,16.459160089492798
1619090196.85936,19.79141,16.474780082702637
1619090196.87499,20.25897,16.490410089492798
1619090196.89062,20.1922,16.50604009628296
1619090196.90624,19.82074,16.521660089492798
1619090196.92187,19.36168,16.53729009628296
1619090196.93749,18.94874,16.552910089492798
1619090196.95312,18.58928,16.56854009628296
1619090196.96874,18.19713,16.584160089492798
1619090196.98437,17.63202,16.59979009628296
1619090197.0,16.80053,16.61542010307312
1619090197.01562,15.71877,16.63104009628296
1619090197.03125,14.53513,16.64667010307312
1619090197.04687,13.46852,16.66229009628296
1619090197.0625,12.6953,16.67792010307312
1619090197.07812,12.28433,16.69354009628296
1619090197.09375,12.10336,16.70917010307312
1619090197.10938,11.87337,16.72480010986328
1619090197.125,11.23957,16.74042010307312
1619090197.14063,9.91964,16.75605010986328
1619090197.15625,7.814417,16.77167010307312
1619090197.17188,5.051683,16.78730010986328
1619090197.1875,1.926933,16.80292010307312
1619090197.20313,-1.205517,16.81855010986328
1619090197.21876,-4.133667,16.834180116653442
1619090197.23438,-6.793415,16.84980010986328
1619090197.25001,-9.291245,16.865430116653442
1619090197.26563,-11.83021,16.88105010986328
1619090197.28126,-14.60897,16.896680116653442
1619090197.29688,-17.79923,16.91230010986328
1619090197.31251,-21.46075,16.927930116653442
1619090197.32814,-25.50354,16.943560123443604
1619090197.34376,-29.60484,16.959180116653442
1619090197.35939,-33.18388,16.974810123443604
1619090197.37501,-35.48441,16.990430116653442
1619090197.39064,-35.76468,17.006060123443604
1619090197.40626,-33.56586,17.021680116653442
1619090197.42189,-28.872,17.037310123443604
1619090197.43752,-22.196,17.052940130233765
1619090197.45314,-14.45821,17.068560123443604
1619090197.46877,-6.735455,17.084190130233765
1619090197.48439,0.02392197,17.099810123443604
1619090197.50002,5.219143,17.115440130233765
1619090197.51564,8.70715,17.131060123443604
1619090197.53127,10.74561,17.146690130233765
1619090197.5469,11.82449,17.162320137023926
1619090197.56252,12.45745,17.177940130233765
1619090197.57815,12.9804,17.193570137023926
1619090197.59377,13.50086,17.209190130233765
1619090197.6094,13.94394,17.224820137023926
1619090197.62502,14.14979,17.240440130233765
1619090197.64065,14.03432,17.256070137023926
1619090197.65628,13.63702,17.271700143814087
1619090197.6719,13.04285,17.287320137023926
1619090197.68753,12.27895,17.302950143814087
1619090197.70315,11.32374,17.318570137023926
1619090197.71878,10.09482,17.334200143814087
1619090197.7344,8.619301,17.349820137023926
1619090197.75003,7.048309,17.365450143814087
1619090197.76566,5.645576,17.381080150604248
1619090197.78128,4.629021,17.396700143814087
1619090197.79691,4.031242,17.412330150604248
1619090197.81253,3.675339,17.427950143814087
1619090197.82816,3.215057,17.443580150604248
1619090197.84378,2.327225,17.459200143814087
1619090197.85941,0.8649445,17.474830150604248
1619090197.87504,-1.069252,17.49046015739441
1619090197.89066,-3.224236,17.506080150604248
1619090197.90629,-5.314064,17.52171015739441
1619090197.92191,-7.246437,17.537330150604248
1619090197.93754,-9.149666,17.55296015739441
1619090197.95316,-11.30518,17.568580150604248
1619090197.96879,-14.03873,17.58421015739441
1619090197.98442,-17.5165,17.59984016418457
1619090198.00004,-21.656,17.61546015739441
1619090198.01567,-26.10768,17.63109016418457
1619090198.03129,-30.34924,17.64671015739441
1619090198.04692,-33.73825,17.66234016418457
1619090198.06254,-35.63048,17.67796015739441
1619090198.07817,-35.5572,17.69359016418457
1619090198.0938,-33.27512,17.70922017097473
1619090198.10942,-28.87855,17.72484016418457
1619090198.12505,-22.78418,17.74047017097473
1619090198.14067,-15.70612,17.75609016418457
1619090198.1563,-8.441788,17.77172017097473
1619090198.17192,-1.710541,17.78734016418457
1619090198.18755,4.001617,17.80297017097473
1619090198.20318,8.505066,17.818600177764893
1619090198.2188,11.87704,17.83422017097473
1619090198.23443,14.32163,17.849850177764893
1619090198.25005,16.02377,17.86547017097473
1619090198.26568,17.10901,17.881100177764893
1619090198.2813,17.62813,17.89672017097473
1619090198.29693,17.59229,17.912350177764893
1619090198.31256,17.02337,17.927980184555054
1619090198.32818,16.00912,17.943600177764893
1619090198.34381,14.6902,17.959230184555054
1619090198.35943,13.24908,17.974850177764893
1619090198.37506,11.87533,17.990480184555054
1619090198.39068,10.67946,18.006100177764893
1619090198.40631,9.6595,18.021730184555054
1619090198.42194,8.652206,18.037360191345215
1619090198.43756,7.357887,18.052980184555054
1619090198.45319,5.540009,18.068610191345215
1619090198.46881,3.125404,18.084230184555054
1619090198.48444,0.289444,18.099860191345215
1619090198.50007,-2.595474,18.115490198135376
1619090198.51569,-5.099419,18.131110191345215
1619090198.53132,-7.024757,18.146740198135376
1619090198.54694,-8.542091,18.162360191345215
1619090198.56257,-10.1339,18.177990198135376
1619090198.57819,-12.42518,18.193610191345215
1619090198.59382,-15.82233,18.209240198135376
1619090198.60945,-20.30939,18.224870204925537
1619090198.62507,-25.44655,18.240490198135376
1619090198.6407,-30.61565,18.256120204925537
1619090198.65632,-35.28166,18.271740198135376
1619090198.67195,-39.26971,18.287370204925537
1619090198.68757,-42.81802,18.302990198135376
1619090198.7032,-46.4544,18.318620204925537
1619090198.71883,-50.76608,18.3342502117157
1619090198.73445,-56.00751,18.349870204925537
1619090198.75008,-61.87571,18.3655002117157
1619090198.7657,-67.47441,18.381120204925537
1619090198.78133,-71.50577,18.3967502117157
1619090198.79695,-72.6232,18.412370204925537
1619090198.81258,-70.01447,18.4280002117157
1619090198.82821,-63.81044,18.44363021850586
1619090198.84383,-55.14183,18.4592502117157
1619090198.85946,-45.80939,18.47488021850586
1619090198.87508,-37.4583,18.4905002117157
1619090198.89071,-30.77661,18.50613021850586
1619090198.90633,-25.26873,18.5217502117157
1619090198.92196,-19.61218,18.53738021850586
1619090198.93759,-12.4199,18.55300998687744
1619090198.95321,-3.089561,18.56863021850586
1619090198.96884,8.117718,18.58425998687744
1619090198.98446,20.33895,18.59988021850586
1619090199.00009,32.60452,18.61550998687744
1619090199.01571,44.39725,18.63113021850586
1619090199.03134,55.65352,18.64675998687744
1619090199.04697,66.19933,18.662389993667603
1619090199.06259,74.66075,18.67800998687744
1619090199.07822,79.00372,18.693639993667603
1619090199.09384,77.95288,18.70925998687744
1619090199.10947,73.03357,18.724889993667603
1619090199.12509,68.44781,18.74050998687744
1619090199.14072,68.92769,18.756139993667603
1619090199.15635,77.27603,18.771770000457764
1619090199.17197,93.01234,18.787389993667603
1619090199.1876,112.6302,18.803020000457764
1619090199.20322,131.4797,18.818639993667603
1619090199.21885,147.179,18.834270000457764
1619090199.23447,159.0335,18.849889993667603
1619090199.2501,167.8615,18.865520000457764
1619090199.26573,174.7539,18.881150007247925
1619090199.28135,179.4886,18.896770000457764
1619090199.29698,180.0255,18.912400007247925
1619090199.3126,173.3835,18.928020000457764
1619090199.32823,157.2279,18.943650007247925
1619090199.34385,131.5309,18.959270000457764
1619090199.35948,99.10151,18.974900007247925
1619090199.37511,64.18176,18.990530014038086
1619090199.39073,30.45798,19.006150007247925
1619090199.40636,0.2220917,19.021780014038086
1619090199.42198,-27.27833,19.037400007247925
1619090199.43761,-55.05474,19.053030014038086
1619090199.45323,-85.912,19.068650007247925
1619090199.46886,-119.7436,19.084280014038086
1619090199.48449,-152.4077,19.099910020828247
1619090199.50011,-177.019,19.115530014038086
1619090199.51574,-187.2423,19.131160020828247
1619090199.53136,-180.2836,19.146780014038086
1619090199.54699,-158.4282,19.162410020828247
1619090199.56261,-128.1871,19.178030014038086
1619090199.57824,-97.30397,19.193660020828247
1619090199.59387,-71.70371,19.209290027618408
1619090199.60949,-53.67613,19.224910020828247
1619090199.62512,-42.2415,19.240540027618408
1619090199.64074,-34.85043,19.256160020828247
1619090199.65637,-29.45256,19.271790027618408
1619090199.67199,-25.40459,19.287410020828247
1619090199.68762,-23.30464,19.303040027618408
1619090199.70325,-23.85014,19.31867003440857
1619090199.71887,-26.59744,19.334290027618408
1619090199.7345,-29.44707,19.34992003440857
1619090199.75012,-29.30957,19.365540027618408
1619090199.76575,-23.54343,19.38117003440857
1619090199.78137,-11.36197,19.396790027618408
1619090199.797,5.489517,19.41242003440857
1619090199.81263,23.3476,19.42805004119873
1619090199.82825,37.96252,19.44367003440857
1619090199.84388,46.00932,19.45930004119873
1619090199.8595,46.23445,19.47492003440857
1619090199.87513,39.65915,19.49055004119873
1619090199.89075,28.89697,19.50617003440857
1619090199.90638,16.96889,19.52180004119873
1619090199.92201,6.202972,19.53743004798889
1619090199.93763,-2.321564,19.55305004119873
1619090199.95326,-8.674789,19.56868004798889
1619090199.96888,-13.50017,19.58430004119873
1619090199.98451,-17.43181,19.59993004798889
1619090200.00013,-20.69841,19.61555004119873
1619090200.01576,-23.16591,19.63118004798889
1619090200.03139,-24.66771,19.646810054779053
1619090200.04701,-25.43192,19.66243004798889
1619090200.06264,-26.28955,19.678060054779053
1619090200.07826,-28.50697,19.69368004798889
1619090200.09389,-33.22125,19.709310054779053
1619090200.10951,-40.87502,19.72493004798889
1619090200.12514,-50.93518,19.740560054779053
1619090200.14077,-62.02228,19.756190061569214
1619090200.15639,-72.40952,19.771810054779053
1619090200.17202,-80.61522,19.787440061569214
1619090200.18764,-85.74356,19.803060054779053
1619090200.20327,-87.55962,19.818690061569214
1619090200.21889,-86.27399,19.834310054779053
1619090200.23452,-82.28938,19.849940061569214
1619090200.25015,-76.07101,19.865570068359375
1619090200.26577,-68.10057,19.881190061569214
1619090200.2814,-58.9088,19.896820068359375
1619090200.29702,-49.03874,19.912440061569214
1619090200.31265,-39.01144,19.928070068359375
1619090200.32827,-29.3167,19.943690061569214
1619090200.3439,-20.38292,19.959320068359375
1619090200.35953,-12.56314,19.974950075149536
1619090200.37515,-6.127792,19.990570068359375
1619090200.39078,-1.148849,20.006200075149536
1619090200.4064,2.558426,20.021820068359375
1619090200.42203,5.447693,20.037450075149536
1619090200.43765,8.153061,20.053070068359375
1619090200.45328,11.23155,20.068700075149536
1619090200.46891,15.01767,20.084330081939697
1619090200.48453,19.4537,20.099950075149536
1619090200.50016,24.09659,20.115580081939697
1619090200.51578,28.28271,20.131200075149536
1619090200.53141,31.32389,20.146830081939697
1619090200.54703,32.75068,20.162450075149536
1619090200.56266,32.45713,20.178080081939697
1619090200.57829,30.77103,20.19371008872986
1619090200.59391,28.33125,20.209330081939697
1619090200.60954,25.85205,20.22496008872986
1619090200.62516,23.77547,20.240580081939697
1619090200.64079,22.0908,20.25621008872986
1619090200.65641,20.33863,20.271830081939697
1619090200.67204,17.91776,20.28746008872986
1619090200.68767,14.50607,20.30309009552002
1619090200.70329,10.29677,20.31871008872986
1619090200.71892,6.006248,20.33434009552002
1619090200.73454,2.46003,20.34996008872986
1619090200.75017,0.1783066,20.36559009552002
1619090200.76579,-0.8871155,20.38121008872986
1619090200.78142,-1.341515,20.39684009552002
1619090200.79705,-2.036476,20.41247010231018
1619090200.81267,-3.695255,20.42809009552002
1619090200.8283,-6.760284,20.44372010231018
1619090200.84392,-11.38997,20.45934009552002
1619090200.85955,-17.46141,20.47497010231018
1619090200.87518,-24.46448,20.490600109100342
1619090200.8908,-31.29537,20.50622010231018
1619090200.90643,-36.16984,20.521850109100342
1619090200.92205,-36.99839,20.53747010231018
1619090200.93768,-32.14989,20.553100109100342
1619090200.9533,-21.34715,20.56872010231018
1619090200.96893,-6.096872,20.584350109100342
1619090200.98456,10.6292,20.599980115890503
1619090201.00018,25.38291,20.615600109100342
1619090201.01581,35.45914,20.631230115890503
1619090201.03143,39.711,20.646850109100342
1619090201.04706,38.61845,20.662480115890503
1619090201.06268,33.70458,20.678100109100342
1619090201.07831,26.74774,20.693730115890503
1619090201.09394,19.22585,20.709360122680664
1619090201.10956,12.17686,20.724980115890503
1619090201.12519,6.369793,20.740610122680664
1619090201.14081,2.458442,20.756230115890503
1619090201.15644,0.8994155,20.771860122680664
1619090201.17206,1.80542,20.787480115890503
1619090201.18769,4.752086,20.803110122680664
1619090201.20332,8.901801,20.818740129470825
1619090201.21894,13.29037,20.834360122680664
1619090201.23457,17.18752,20.849990129470825
1619090201.25019,20.27566,20.865610122680664
1619090201.26582,22.66919,20.881240129470825
1619090201.28144,24.71692,20.896860122680664
1619090201.29707,26.70108,20.912490129470825
1619090201.3127,28.71472,20.928120136260986
1619090201.32832,30.60668,20.943740129470825
1619090201.34395,32.0963,20.959370136260986
1619090201.35957,32.90537,20.974990129470825
1619090201.3752,32.86198,20.990620136260986
1619090201.39082,31.90933,21.006240129470825
1619090201.40645,30.0912,21.021870136260986
1619090201.42208,27.50372,21.037500143051147
1619090201.4377,24.28876,21.053120136260986
1619090201.45333,20.67995,21.068750143051147
1619090201.46895,17.00336,21.084370136260986
1619090201.48458,13.60774,21.100000143051147
1619090201.5002,10.74485,21.115620136260986
1619090201.51583,8.465363,21.131250143051147
1619090201.53146,6.515518,21.14688014984131
1619090201.54708,4.399338,21.162500143051147
1619090201.56271,1.584534,21.17813014984131
1619090201.57833,-2.209244,21.193750143051147
1619090201.59396,-6.769577,21.20938014984131
1619090201.60958,-11.35999,21.225000143051147
1619090201.62521,-14.90791,21.24063014984131
1619090201.64084,-16.42442,21.25626015663147
1619090201.65646,-15.38724,21.27188014984131
1619090201.67209,-11.94245,21.28751015663147
1619090201.68771,-6.846111,21.30313014984131
1619090201.70334,-1.117226,21.31876015663147
1619090201.71896,4.308392,21.33438014984131
1619090201.73459,8.880741,21.35001015663147
1619090201.75022,12.42548,21.36564016342163
1619090201.76584,15.02794,21.38126015663147
1619090201.78147,16.81173,21.39689016342163
1619090201.79709,17.82113,21.41251015663147
1619090201.81272,18.02234,21.42814016342163
1619090201.82834,17.39523,21.44376015663147
1619090201.84397,16.06475,21.45939016342163
1619090201.8596,14.34222,21.475020170211792
1619090201.87522,12.61449,21.49064016342163
1619090201.89085,11.20948,21.506270170211792
1619090201.90647,10.25351,21.52189016342163
1619090201.9221,9.620323,21.537520170211792
1619090201.93772,9.00378,21.55314016342163
1619090201.95335,8.106182,21.568770170211792
1619090201.96898,6.791061,21.584400177001953
1619090201.9846,5.188328,21.600020170211792
1619090202.00023,3.610245,21.615650177001953
1619090202.01585,2.421761,21.631270170211792
1619090202.03148,1.807991,21.646900177001953
1619090202.0471,1.681767,21.662520170211792
1619090202.06273,1.705341,21.678150177001953
1619090202.07836,1.417881,21.693780183792114
1619090202.09398,0.4676514,21.709400177001953
1619090202.10961,-1.216255,21.725030183792114
1619090202.12523,-3.357544,21.740650177001953
1619090202.14086,-5.528233,21.756280183792114
1619090202.15648,-7.296764,21.771900177001953
1619090202.17211,-8.489872,21.787530183792114
1619090202.18774,-9.279457,21.803160190582275
1619090202.20336,-10.08524,21.818780183792114
1619090202.21899,-11.40374,21.834410190582275
1619090202.23461,-13.56927,21.850030183792114
1619090202.25024,-16.65196,21.865660190582275
1619090202.26586,-20.43854,21.881280183792114
1619090202.28149,-24.60059,21.896910190582275
1619090202.29712,-28.73476,21.912540197372437
1619090202.31274,-32.39025,21.928160190582275
1619090202.32837,-35.06577,21.943790197372437
1619090202.34399,-36.15828,21.959410190582275
1619090202.35962,-35.10078,21.975040197372437
1619090202.37524,-31.61174,21.990660190582275
1619090202.39087,-25.86657,22.006290197372437
1619090202.4065,-18.52968,22.021920204162598
1619090202.42212,-10.5831,22.037540197372437
1619090202.43775,-2.99041,22.053170204162598
1619090202.45337,3.576759,22.068790197372437
1619090202.469,8.84597,22.084420204162598
1619090202.48462,12.89532,22.100040197372437
1619090202.50025,15.94859,22.115670204162598
1619090202.51588,18.19827,22.13130021095276
1619090202.5315,19.73348,22.146920204162598
1619090202.54713,20.57114,22.16255021095276
1619090202.56275,20.76922,22.178170204162598
1619090202.57838,20.43273,22.19380021095276
1619090202.594,19.72506,22.209420204162598
1619090202.60963,18.79977,22.22505021095276
1619090202.62526,17.78518,22.24068021774292
1619090202.64088,16.71339,22.25630021095276
1619090202.65651,15.58564,22.27193021774292
1619090202.67213,14.40352,22.28755021095276
1619090202.68776,13.22346,22.30318021774292
1619090202.70338,12.18649,22.31880021095276
1619090202.71901,11.45826,22.33443021774292
1619090202.73464,11.12503,22.350059986114502
1619090202.75026,11.09338,22.36568021774292
1619090202.76589,11.03519,22.381309986114502
1619090202.78151,10.46832,22.39693021774292
1619090202.79714,8.961411,22.412559986114502
1619090202.81276,6.370697,22.42818021774292
1619090202.82839,2.905312,22.443809986114502
1619090202.84402,-0.8900986,22.459439992904663
1619090202.85964,-4.390739,22.475059986114502
1619090202.87527,-7.167442,22.490689992904663
1619090202.89089,-9.160034,22.506309986114502
1619090202.90652,-10.72243,22.521939992904663
1619090202.92214,-12.44025,22.537559986114502
1619090202.93777,-14.86685,22.553189992904663
1619090202.9534,-18.25881,22.568819999694824
1619090202.96902,-22.43731,22.584439992904663
1619090202.98465,-26.80421,22.600069999694824
1619090203.00027,-30.46982,22.615689992904663
1619090203.0159,-32.5168,22.631319999694824
1619090203.03152,-32.24991,22.646939992904663
1619090203.04715,-29.42745,22.662569999694824
1619090203.06278,-24.31633,22.678200006484985
1619090203.0784,-17.63129,22.693819999694824
1619090203.09403,-10.30985,22.709450006484985
1619090203.10965,-3.212921,22.725069999694824
1619090203.12528,3.102715,22.740700006484985
1619090203.1409,8.480782,22.756319999694824
1619090203.15653,13.04489,22.771950006484985
1619090203.17216,16.98215,22.787580013275146
1619090203.18778,20.36853,22.803200006484985
1619090203.20341,23.09155,22.818830013275146
1619090203.21903,24.96194,22.834450006484985
1619090203.23466,25.85751,22.850080013275146
1619090203.25028,25.85811,22.865700006484985
1619090203.26591,25.23675,22.881330013275146
1619090203.28154,24.33701,22.896960020065308
1619090203.29716,23.39716,22.912580013275146
1619090203.31279,22.49889,22.928210020065308
1619090203.32841,21.5548,22.943830013275146
1619090203.34404,20.48926,22.959460020065308
1619090203.35967,19.32425,22.97509002685547
1619090203.37529,18.21802,22.990710020065308
1619090203.39092,17.42834,23.00634002685547
1619090203.40654,17.07906,23.021960020065308
1619090203.42217,17.08101,23.03759002685547
1619090203.43779,17.04732,23.053210020065308
1619090203.45342,16.4684,23.06884002685547
1619090203.46905,14.92323,23.08447003364563
1619090203.48467,12.32225,23.10009002685547
1619090203.5003,8.968117,23.11572003364563
1619090203.51592,5.402618,23.13134002685547
1619090203.53155,2.166138,23.14697003364563
1619090203.54717,-0.4946671,23.16259002685547
1619090203.5628,-2.664246,23.17822003364563
1619090203.57843,-4.686447,23.19385004043579
1619090203.59405,-6.976578,23.20947003364563
1619090203.60968,-9.843231,23.22510004043579
1619090203.6253,-13.41258,23.24072003364563
1619090203.64093,-17.57816,23.25635004043579
1619090203.65655,-22.06146,23.27197003364563
1619090203.67218,-26.36638,23.28760004043579
1619090203.68781,-29.82947,23.303230047225952
1619090203.70343,-31.70814,23.31885004043579
1619090203.71906,-31.39038,23.334480047225952
1619090203.73468,-28.6035,23.35010004043579
1619090203.75031,-23.58586,23.365730047225952
1619090203.76593,-17.03674,23.38135004043579
1619090203.78156,-9.874054,23.396980047225952
1619090203.79719,-2.94799,23.412610054016113
1619090203.81281,3.223129,23.428230047225952
1619090203.82844,8.478706,23.443860054016113
1619090203.84406,12.91795,23.459480047225952
1619090203.85969,16.71801,23.475110054016113
1619090203.87531,19.90729,23.490730047225952
1619090203.89094,22.39108,23.506360054016113
1619090203.90657,24.00162,23.521990060806274
1619090203.92219,24.6758,23.537610054016113
1619090203.93782,24.54715,23.553240060806274
1619090203.95344,23.90925,23.568860054016113
1619090203.96907,23.10166,23.584490060806274
1619090203.98469,22.33803,23.600110054016113
1619090204.00032,21.62246,23.615740060806274
1619090204.01595,20.81805,23.631370067596436
1619090204.03157,19.80596,23.646990060806274
1619090204.0472,18.58418,23.662620067596436
1619090204.06282,17.30188,23.678240060806274
1619090204.07845,16.1394,23.693870067596436
1619090204.09407,15.11909,23.709490060806274
1619090204.1097,14.09489,23.725120067596436
1619090204.12533,12.76589,23.740750074386597
1619090204.14095,10.89993,23.756370067596436
1619090204.15658,8.458099,23.772000074386597
1619090204.1722,5.616592,23.787620067596436
1619090204.18783,2.664772,23.803250074386597
1619090204.20345,-0.165863,23.818870067596436
1619090204.21908,-2.791046,23.834500074386597
1619090204.23471,-5.236023,23.850130081176758
1619090204.25033,-7.583832,23.865750074386597
1619090204.26596,-9.961975,23.881380081176758
1619090204.28158,-12.50284,23.897000074386597
1619090204.29721,-15.42174,23.912630081176758
1619090204.31283,-18.95857,23.928250074386597
1619090204.32846,-23.23739,23.943880081176758
1619090204.34409,-28.13454,23.95951008796692
1619090204.35971,-33.12102,23.975130081176758
1619090204.37534,-37.43571,23.99076008796692
1619090204.39096,-40.26221,24.006380081176758
1619090204.40659,-41.05127,24.02201008796692
1619090204.42221,-39.63674,24.037630081176758
1619090204.43784,-36.18483,24.05326008796692
1619090204.45347,-31.12288,24.06889009475708
1619090204.46909,-24.97575,24.08451008796692
1619090204.48472,-18.25917,24.10014009475708
1619090204.50034,-11.42092,24.11576008796692
1619090204.51597,-4.886581,24.13139009475708
1619090204.53159,0.989048,24.14701008796692
1619090204.54722,5.860672,24.16264009475708
1619090204.56285,9.58939,24.17827010154724
1619090204.57847,12.25,24.19389009475708
1619090204.5941,14.01871,24.20952010154724
1619090204.60972,15.09419,24.22514009475708
1619090204.62535,15.63545,24.24077010154724
1619090204.64097,15.82654,24.25639009475708
1619090204.6566,15.79652,24.27202010154724
1619090204.67223,15.59401,24.287650108337402
1619090204.68785,15.08115,24.30327010154724
1619090204.70348,14.20789,24.318900108337402
1619090204.7191,13.01326,24.33452010154724
1619090204.73473,11.64122,24.350150108337402
1619090204.75035,10.28361,24.36577010154724
1619090204.76598,9.180374,24.381400108337402
1619090204.78161,8.779171,24.397030115127563
1619090204.79723,9.466217,24.412650108337402
1619090204.81286,11.39129,24.428280115127563
1619090204.82848,14.15939,24.443900108337402
1619090204.84411,17.21314,24.459530115127563
1619090204.85973,19.94904,24.475150108337402
1619090204.87536,21.91611,24.490780115127563
1619090204.89099,23.02093,24.506410121917725
1619090204.90661,23.70259,24.522030115127563
1619090204.92224,25.02587,24.537660121917725
1619090204.93786,28.10661,24.553280115127563
1619090204.95349,33.52669,24.568910121917725
1619090204.96911,40.7293,24.584530115127563
1619090204.98474,48.56563,24.600160121917725
1619090205.00037,55.62711,24.615790128707886
1619090205.01599,60.66712,24.631410121917725
1619090205.03162,62.86991,24.647040128707886
1619090205.04724,60.74883,24.662660121917725
1619090205.06287,53.82779,24.678290128707886
1619090205.07849,42.81641,24.693910121917725
1619090205.09412,31.0658,24.709540128707886
1619090205.10975,20.98678,24.725170135498047
1619090205.12537,14.52469,24.740790128707886
1619090205.141,13.07189,24.756420135498047
1619090205.15662,17.68408,24.772040128707886
1619090205.17225,28.26181,24.787670135498047
1619090205.18787,43.2395,24.803290128707886
1619090205.2035,60.0675,24.818920135498047
1619090205.21913,75.76789,24.834550142288208
1619090205.23475,87.82268,24.850170135498047
1619090205.25038,94.60806,24.865800142288208
1619090205.266,96.07439,24.881420135498047
1619090205.28163,93.34811,24.897050142288208
1619090205.29725,88.06677,24.912670135498047
1619090205.31288,81.68947,24.928300142288208
1619090205.32851,75.2681,24.94393014907837
1619090205.34413,69.61277,24.959550142288208
1619090205.35976,65.22363,24.97518014907837
1619090205.37538,62.2784,24.990800142288208
1619090205.39101,60.3744,25.00643014907837
1619090205.40663,58.85096,25.022050142288208
1619090205.42226,56.8318,25.03768014907837
1619090205.43789,53.45389,25.05331015586853
1619090205.45351,48.00511,25.06893014907837
1619090205.46914,40.27248,25.08456015586853
1619090205.48476,30.72226,25.10018014907837
1619090205.50039,20.30161,25.11581015586853
1619090205.51601,10.18004,25.13143014907837
1619090205.53164,1.306381,25.14706015586853
1619090205.54727,-5.584213,25.16269016265869
1619090205.56289,-10.06546,25.17831015586853
1619090205.57852,-12.03105,25.19394016265869
1619090205.59414,-11.70389,25.20956015586853
1619090205.60977,-9.592438,25.22519016265869
1619090205.6254,-6.482162,25.240820169448853
1619090205.64102,-3.626724,25.25644016265869
1619090205.65665,-2.683929,25.272070169448853
1619090205.67227,-5.617813,25.28769016265869
1619090205.6879,-14.01917,25.303320169448853
1619090205.70352,-28.6684,25.31894016265869
1619090205.71915,-49.03299,25.334570169448853
1619090205.73478,-73.33508,25.350200176239014
1619090205.7504,-98.94064,25.365820169448853
1619090205.76603,-123.1121,25.381450176239014
1619090205.78165,-143.775,25.397070169448853
1619090205.79728,-159.9833,25.412700176239014
1619090205.8129,-171.9751,25.428320169448853
1619090205.82853,-180.692,25.443950176239014
1619090205.84416,-187.3195,25.459580183029175
1619090205.85978,-192.8783,25.475200176239014
1619090205.87541,-198.1783,25.490830183029175
1619090205.89103,-203.8147,25.506450176239014
1619090205.90666,-210.1197,25.522080183029175
1619090205.92228,-216.905,25.537700176239014
1619090205.93791,-223.1018,25.553330183029175
1619090205.95354,-226.75,25.568960189819336
1619090205.96916,-225.3301,25.584580183029175
1619090205.98479,-216.6758,25.600210189819336
1619090206.00041,-199.9594,25.615830183029175
1619090206.01604,-176.231,25.631460189819336
1619090206.03166,-148.3034,25.647080183029175
1619090206.04729,-119.8273,25.662710189819336
1619090206.06292,-94.06342,25.678340196609497
1619090206.07854,-72.90921,25.693960189819336
1619090206.09417,-56.59903,25.709590196609497
1619090206.10979,-44.09924,25.725210189819336
1619090206.12542,-33.87384,25.740840196609497
1619090206.14104,-24.64417,25.756460189819336
1619090206.15667,-15.74869,25.772090196609497
1619090206.1723,-7.177551,25.787720203399658
1619090206.18792,0.7420654,25.803340196609497
1619090206.20355,7.619019,25.818970203399658
1619090206.21917,13.30945,25.834590196609497
1619090206.2348,17.96875,25.850220203399658
1619090206.25042,22.11984,25.865840196609497
1619090206.26605,26.51968,25.881470203399658
1619090206.28168,32.02582,25.89710021018982
1619090206.2973,39.50696,25.912720203399658
1619090206.31293,49.66864,25.92835021018982
1619090206.32855,62.84286,25.943970203399658
1619090206.34418,78.67236,25.95960021018982
1619090206.3598,95.96237,25.975220203399658
1619090206.37543,112.7101,25.99085021018982
1619090206.39106,126.5607,26.00648021697998
1619090206.40668,135.4211,26.02210021018982
1619090206.42231,138.119,26.03773021697998
1619090206.43793,134.7541,26.05335021018982
1619090206.45356,126.571,26.06898021697998
1619090206.46918,115.4209,26.08460021018982
1619090206.48481,103.146,26.10023021697998
1619090206.50044,91.07323,26.115859985351562
1619090206.51606,79.91071,26.13148021697998
1619090206.53169,69.9024,26.147109985351562
1619090206.54731,61.11101,26.16273021697998
1619090206.56294,53.58258,26.178359985351562
1619090206.57856,47.36208,26.19398021697998
1619090206.59419,42.3918,26.209609985351562
1619090206.60982,38.37794,26.225239992141724
1619090206.62544,34.82924,26.240859985351562
1619090206.64107,31.14783,26.256489992141724
1619090206.65669,26.82954,26.272109985351562
1619090206.67232,21.5872,26.287739992141724
1619090206.68794,15.45647,26.303359985351562
1619090206.70357,8.770554,26.318989992141724
1619090206.7192,2.068817,26.334619998931885
1619090206.73482,-4.084412,26.350239992141724
1619090206.75045,-9.234741,26.365869998931885
1619090206.76607,-13.02959,26.381489992141724
1619090206.7817,-15.23958,26.397119998931885
1619090206.79732,-15.64474,26.412739992141724
1619090206.81295,-14.07248,26.428369998931885
1619090206.82858,-10.47948,26.444000005722046
1619090206.8442,-5.12413,26.459619998931885
1619090206.85983,1.304214,26.475250005722046
1619090206.87545,7.818878,26.490869998931885
1619090206.89108,13.38148,26.506500005722046
1619090206.9067,17.26984,26.522119998931885
1619090206.92233,19.30034,26.537750005722046
1619090206.93796,19.86397,26.553380012512207
1619090206.95358,19.67528,26.569000005722046
1619090206.96921,19.39232,26.584630012512207
1619090206.98483,19.32039,26.600250005722046
1619090207.00046,19.35759,26.615880012512207
1619090207.01608,19.16859,26.631500005722046
1619090207.03171,18.44707,26.647130012512207
1619090207.04734,17.11899,26.662760019302368
1619090207.06296,15.33044,26.678380012512207
1619090207.07859,13.32146,26.694010019302368
1619090207.09421,11.29184,26.709630012512207
1619090207.10984,9.341431,26.725260019302368
1619090207.12546,7.479721,26.740880012512207
1619090207.14109,5.752457,26.756510019302368
1619090207.15672,4.257034,26.77214002609253
1619090207.17234,3.072571,26.787760019302368
1619090207.18797,2.159256,26.80339002609253
1619090207.20359,1.267319,26.819010019302368
1619090207.21922,0.0383606,26.83464002609253
1619090207.23484,-1.864578,26.850260019302368
1619090207.25047,-4.557266,26.86589002609253
1619090207.2661,-7.847168,26.88152003288269
1619090207.28172,-11.34927,26.89714002609253
1619090207.29735,-14.71902,26.91277003288269
1619090207.31297,-17.8345,26.92839002609253
1619090207.3286,-20.8161,26.94402003288269
1619090207.34422,-23.95479,26.95964002609253
1619090207.35985,-27.47147,26.97527003288269
1619090207.37548,-31.35741,26.99090003967285
1619090207.3911,-35.35138,27.00652003288269
1619090207.40673,-39.0213,27.02215003967285
1619090207.42235,-41.9678,27.03777003288269
1619090207.43798,-43.97421,27.05340003967285
1619090207.4536,-45.10638,27.06902003288269
1619090207.46923,-45.66743,27.08465003967285
1619090207.48486,-46.08803,27.100280046463013
1619090207.50048,-46.83466,27.11590003967285
1619090207.51611,-48.28728,27.131530046463013
1619090207.53173,-50.63031,27.14715003967285
1619090207.54736,-53.7522,27.162780046463013
1619090207.56298,-57.18898,27.17840003967285
1619090207.57861,-60.14357,27.194030046463013
1619090207.59424,-61.66098,27.209660053253174
1619090207.60986,-60.81781,27.225280046463013
1619090207.62549,-57.0567,27.240910053253174
1619090207.64111,-50.37582,27.256530046463013
1619090207.65674,-41.373,27.272160053253174
1619090207.67236,-31.09097,27.287780046463013
1619090207.68799,-20.7072,27.303410053253174
1619090207.70362,-11.24867,27.319040060043335
1619090207.71924,-3.330124,27.334660053253174
1619090207.73487,2.867096,27.350290060043335
1619090207.75049,7.540039,27.365910053253174
1619090207.76612,11.05687,27.381540060043335
1619090207.78174,13.77136,27.397160053253174
1619090207.79737,15.87247,27.412790060043335
1619090207.813,17.38448,27.428420066833496
1619090207.82862,18.2605,27.444040060043335
1619090207.84425,18.51492,27.459670066833496
1619090207.85987,18.30031,27.475290060043335
1619090207.8755,17.88171,27.490920066833496
1619090207.89112,17.57317,27.506540060043335
1619090207.90675,17.54448,27.522170066833496
1619090207.92238,17.79839,27.537800073623657
1619090207.938,18.20216,27.553420066833496
1619090207.95363,18.59595,27.569050073623657
1619090207.96925,18.90642,27.584670066833496
1619090207.98488,19.16197,27.600300073623657
1619090208.0005,19.41794,27.615920066833496
1619090208.01613,19.61752,27.631550073623657
1619090208.03176,19.55568,27.64718008041382
1619090208.04738,18.93604,27.662800073623657
1619090208.06301,17.5097,27.67843008041382
1619090208.07863,15.297,27.694050073623657
1619090208.09426,12.56711,27.70968008041382
1619090208.10988,9.775986,27.725300073623657
1619090208.12551,7.364059,27.74093008041382
1619090208.14114,5.531021,27.75656008720398
1619090208.15676,4.127747,27.77218008041382
1619090208.17239,2.751434,27.78781008720398
1619090208.18801,0.9050293,27.80343008041382
1619090208.20364,-1.750114,27.81906008720398
1619090208.21927,-5.223328,27.83469009399414
1619090208.23489,-9.168182,27.85031008720398
1619090208.25052,-13.0029,27.86594009399414
1619090208.26614,-16.1839,27.88156008720398
1619090208.28177,-18.42586,27.89719009399414
1619090208.29739,-19.83254,27.91281008720398
1619090208.31302,-20.84594,27.92844009399414
1619090208.32865,-22.04725,27.9440701007843
1619090208.34427,-23.93955,27.95969009399414
1619090208.3599,-26.76447,27.9753201007843
1619090208.37552,-30.48851,27.99094009399414
1619090208.39115,-34.74154,28.0065701007843
1619090208.40677,-38.90424,28.02219009399414
1619090208.4224,-42.16709,28.0378201007843
1619090208.43803,-43.68664,28.053450107574463
1619090208.45365,-42.75846,28.0690701007843
1619090208.46928,-39.02866,28.084700107574463
1619090208.4849,-32.64515,28.1003201007843
1619090208.50053,-24.21463,28.115950107574463
1619090208.51615,-14.72046,28.1315701007843
1619090208.53178,-5.232384,28.147200107574463
1619090208.54741,3.357971,28.162830114364624
1619090208.56303,10.44928,28.178450107574463
1619090208.57866,15.84671,28.194080114364624
1619090208.59428,19.65071,28.209700107574463
1619090208.60991,22.17762,28.225330114364624
1619090208.62553,23.86612,28.240950107574463
1619090208.64116,25.12229,28.256580114364624
1619090208.65679,26.21747,28.272210121154785
1619090208.67241,27.26603,28.287830114364624
1619090208.68804,28.24757,28.303460121154785
1619090208.70366,29.07552,28.319080114364624
1619090208.71929,29.66717,28.334710121154785
1619090208.73491,29.97519,28.350330114364624
1619090208.75054,29.98955,28.365960121154785
1619090208.76617,29.73053,28.381590127944946
1619090208.78179,29.2393,28.397210121154785
1619090208.79742,28.61717,28.412840127944946
1619090208.81304,27.98208,28.428460121154785
1619090208.82867,27.45684,28.444090127944946
1619090208.84429,27.06041,28.459710121154785
1619090208.85992,26.70635,28.475340127944946
1619090208.87555,26.21435,28.490970134735107
1619090208.89117,25.37656,28.506590127944946
1619090208.9068,24.03747,28.522220134735107
1619090208.92242,22.18899,28.537840127944946
1619090208.93805,19.944,28.553470134735107
1619090208.95367,17.52516,28.569090127944946
1619090208.9693,15.17063,28.584720134735107
1619090208.98493,13.06333,28.60035014152527
1619090209.00055,11.26825,28.615970134735107
1619090209.01618,9.671607,28.63160014152527
1619090209.0318,8.012378,28.647220134735107
1619090209.04743,6.020546,28.66285014152527
1619090209.06305,3.502588,28.678470134735107
1619090209.07868,0.4647255,28.69410014152527
1619090209.09431,-2.907173,28.70973014831543
1619090209.10993,-6.306513,28.72535014152527
1619090209.12556,-9.435518,28.74098014831543
1619090209.14118,-12.12568,28.75660014152527
1619090209.15681,-14.41286,28.77223014831543
1619090209.17243,-16.52464,28.78785014152527
1619090209.18806,-18.84738,28.80348014831543
1619090209.20369,-21.78376,28.81911015510559
1619090209.21931,-25.55517,28.83473014831543
1619090209.23494,-30.03952,28.85036015510559
1619090209.25056,-34.64655,28.86598014831543
1619090209.26619,-38.40601,28.88161015510559
1619090209.28181,-40.26891,28.89723014831543
1619090209.29744,-39.46848,28.91286015510559
1619090209.31307,-35.80719,28.928490161895752
1619090209.32869,-29.70422,28.94411015510559
1619090209.34432,-22.04614,28.959740161895752
1619090209.35994,-13.83269,28.97536015510559
1619090209.37557,-5.917355,28.990990161895752
1619090209.39119,1.14912,29.00661015510559
1619090209.40682,7.075779,29.022240161895752
1619090209.42245,11.78938,29.037870168685913
1619090209.43807,15.34927,29.053490161895752
1619090209.4537,17.93044,29.069120168685913
1619090209.46932,19.78608,29.084740161895752
1619090209.48495,21.19508,29.100370168685913
1619090209.50057,22.39244,29.115990161895752
1619090209.5162,23.48611,29.131620168685913
1619090209.53183,24.42004,29.147250175476074
1619090209.54745,25.06641,29.162870168685913
1619090209.56308,25.3381,29.178500175476074
1619090209.5787,25.29442,29.194120168685913
1619090209.59433,25.15029,29.209750175476074
1619090209.60995,25.22701,29.225370168685913
1619090209.62558,25.78781,29.241000175476074
1619090209.64121,26.88257,29.256630182266235
1619090209.65683,28.29035,29.272250175476074
1619090209.67246,29.59793,29.287880182266235
1619090209.68808,30.32603,29.303500175476074
1619090209.70371,30.10265,29.319130182266235
1619090209.71933,28.81735,29.334750175476074
1619090209.73496,26.59023,29.350380182266235
1619090209.75059,23.7593,29.366010189056396
1619090209.76621,20.73913,29.381630182266235
1619090209.78184,17.91708,29.397260189056396
1619090209.79746,15.53475,29.412880182266235
1619090209.81309,13.63989,29.428510189056396
1619090209.82871,12.08421,29.444130182266235
1619090209.84434,10.55093,29.459760189056396
1619090209.85997,8.670876,29.475390195846558
1619090209.87559,6.093605,29.491010189056396
1619090209.89122,2.655731,29.506640195846558
1619090209.90684,-1.550789,29.522260189056396
1619090209.92247,-6.177208,29.537890195846558
1619090209.93809,-10.75052,29.553510189056396
1619090209.95372,-14.8336,29.569140195846558
1619090209.96935,-18.21585,29.58477020263672
1619090209.98497,-21.00067,29.600390195846558
1619090210.0006,-23.52618,29.61602020263672
1619090210.01622,-26.20877,29.631640195846558
1619090210.03185,-29.31958,29.64727020263672
1619090210.04747,-32.82475,29.662890195846558
1619090210.0631,-36.34767,29.67852020263672
1619090210.07873,-39.24895,29.69415020942688
1619090210.09435,-40.76846,29.70977020263672
1619090210.10998,-40.27237,29.72540020942688
1619090210.1256,-37.37684,29.74102020263672
1619090210.14123,-32.08627,29.75665020942688
1619090210.15685,-24.8242,29.77227020263672
1619090210.17248,-16.37423,29.78790020942688
1619090210.18811,-7.747292,29.80353021621704
1619090210.20373,0.05873108,29.81915020942688
1619090210.21936,6.3181,29.83478021621704
1619090210.23498,10.75878,29.85040020942688
1619090210.25061,13.57576,29.86603021621704
1619090210.26623,15.25403,29.88165020942688
1619090210.28186,16.32494,29.89728021621704
1619090210.29749,17.1351,29.912909984588623
1619090210.31311,17.81953,29.92853021621704
1619090210.32874,18.33934,29.944159984588623
1619090210.34436,18.64311,29.95978021621704
1619090210.35999,18.74899,29.975409984588623
1619090210.37561,18.69528,29.99103021621704
1619090210.39124,18.4971,30.006659984588623
1619090210.40687,18.10963,30.022289991378784
1619090210.42249,17.4444,30.037909984588623
1619090210.43812,16.45009,30.053539991378784
1619090210.45374,15.20706,30.069159984588623
1619090210.46937,13.90466,30.084789991378784
1619090210.485,12.75842,30.100419998168945
1619090210.50062,11.89334,30.116039991378784
1619090210.51625,11.25403,30.131669998168945
1619090210.53187,10.59941,30.147289991378784
1619090210.5475,9.630157,30.162919998168945
1619090210.56312,8.073151,30.178539991378784
1619090210.57875,5.779846,30.194169998168945
1619090210.59438,2.774338,30.209800004959106
1619090210.61,-0.8073273,30.225419998168945
1619090210.62563,-4.686981,30.241050004959106
1619090210.64125,-8.520798,30.256669998168945
1619090210.65688,-11.95184,30.272300004959106
1619090210.6725,-14.74338,30.287919998168945
1619090210.68813,-16.89479,30.303550004959106
1619090210.70376,-18.70895,30.319180011749268
1619090210.71938,-20.74635,30.334800004959106
1619090210.73501,-23.64545,30.350430011749268
1619090210.75063,-27.89377,30.366050004959106
1619090210.76626,-33.57419,30.381680011749268
1619090210.78188,-40.2101,30.397300004959106
1619090210.79751,-46.78372,30.412930011749268
1619090210.81314,-51.93939,30.42856001853943
1619090210.82876,-54.38142,30.444180011749268
1619090210.84439,-53.31648,30.45981001853943
1619090210.86001,-48.65654,30.475430011749268
1619090210.87564,-41.08879,30.49106001853943
1619090210.89126,-31.78058,30.506680011749268
1619090210.90689,-21.99292,30.52231001853943
1619090210.92252,-12.72083,30.53794002532959
1619090210.93814,-4.533707,30.55356001853943
1619090210.95377,2.38031,30.56919002532959
1619090210.96939,8.037582,30.58481001853943
1619090210.98502,12.4823,30.60044002532959
1619090211.00064,15.75842,30.61606001853943
1619090211.01627,17.91725,30.63169002532959
1619090211.0319,19.1425,30.64732003211975
1619090211.04752,19.73659,30.66294002532959
1619090211.06315,20.04697,30.67857003211975
1619090211.07877,20.33214,30.69419002532959
1619090211.0944,20.67682,30.70982003211975
1619090211.11002,21.02419,30.72544002532959
1619090211.12565,21.19751,30.74107003211975
1619090211.14128,21.04105,30.756700038909912
1619090211.1569,20.45514,30.77232003211975
1619090211.17253,19.4489,30.787950038909912
1619090211.18815,18.15703,30.80357003211975
1619090211.20378,16.78452,30.819200038909912
1619090211.2194,15.57185,30.83482003211975
1619090211.23503,14.70328,30.850450038909912
1619090211.25066,14.21646,30.866080045700073
1619090211.26628,13.95815,30.881700038909912
1619090211.28191,13.62862,30.897330045700073
1619090211.29753,12.82486,30.912950038909912
1619090211.31316,11.18678,30.928580045700073
1619090211.32878,8.512512,30.944200038909912
1619090211.34441,4.769012,30.959830045700073
1619090211.36004,0.1619873,30.975460052490234
1619090211.37566,-4.954712,30.991080045700073
1619090211.39129,-10.19421,31.006710052490234
1619090211.40691,-15.27737,31.022330045700073
1619090211.42254,-20.12805,31.037960052490234
1619090211.43816,-24.8786,31.053580045700073
1619090211.45379,-29.76129,31.069210052490234
1619090211.46942,-34.92563,31.084840059280396
1619090211.48504,-40.27145,31.100460052490234
1619090211.50067,-45.314,31.116090059280396
1619090211.51629,-49.30563,31.131710052490234
1619090211.53192,-51.40594,31.147340059280396
1619090211.54754,-50.97675,31.162960052490234
1619090211.56317,-47.76651,31.178590059280396
1619090211.5788,-41.99817,31.194220066070557
1619090211.59442,-34.28192,31.209840059280396
1619090211.61005,-25.3952,31.225470066070557
1619090211.62567,-16.12912,31.241090059280396
1619090211.6413,-7.115265,31.256720066070557
1619090211.65692,1.194305,31.272340059280396
1619090211.67255,8.535675,31.287970066070557
1619090211.68818,14.82513,31.303600072860718
1619090211.7038,20.08853,31.319220066070557
1619090211.71943,24.42535,31.334850072860718
1619090211.73505,27.97812,31.350470066070557
1619090211.75068,30.85968,31.366100072860718
1619090211.7663,33.13791,31.381720066070557
1619090211.78193,34.85468,31.397350072860718
1619090211.79756,36.01205,31.41298007965088
1619090211.81318,36.61539,31.428600072860718
1619090211.82881,36.64755,31.44423007965088
1619090211.84443,36.09772,31.459850072860718
1619090211.86006,34.9845,31.47548007965088
1619090211.87568,33.37833,31.491100072860718
1619090211.89131,31.4516,31.50673007965088
1619090211.90694,29.4762,31.52236008644104
1619090211.92256,27.74969,31.53798007965088
1619090211.93819,26.49875,31.55361008644104
1619090211.95381,25.78357,31.56923007965088
1619090211.96944,25.48965,31.58486008644104
1619090211.98506,25.32593,31.60048007965088
1619090212.00069,24.96204,31.61611008644104
1619090212.01632,24.0741,31.6317400932312
1619090212.03194,22.40909,31.64736008644104
1619090212.04757,19.83618,31.6629900932312
1619090212.06319,16.41379,31.67861008644104
1619090212.07882,12.39194,31.6942400932312
1619090212.09444,8.192078,31.70986008644104
1619090212.11007,4.267731,31.7254900932312
1619090212.1257,0.9494324,31.741120100021362
1619090212.14132,-1.672302,31.7567400932312
1619090212.15695,-3.831787,31.772370100021362
1619090212.17257,-6.016937,31.7879900932312
1619090212.1882,-8.776428,31.803620100021362
1619090212.20382,-12.48096,31.8192400932312
1619090212.21945,-17.08722,31.834870100021362
1619090212.23508,-22.06339,31.850500106811523
1619090212.2507,-26.46365,31.866120100021362
1619090212.26633,-29.2352,31.881750106811523
1619090212.28195,-29.53668,31.897370100021362
1619090212.29758,-27.0538,31.913000106811523
1619090212.3132,-22.09454,31.928620100021362
1619090212.32883,-15.47455,31.944250106811523
1619090212.34446,-8.208984,31.959880113601685
1619090212.36008,-1.190948,31.975500106811523
1619090212.37571,5.056366,31.991130113601685
1619090212.39133,10.42294,32.00675010681152
1619090212.40696,15.07275,32.022380113601685
1619090212.42258,19.18591,32.03800010681152
1619090212.43821,22.80457,32.053630113601685
1619090212.45384,25.78726,32.069260120391846
1619090212.46946,27.93204,32.084880113601685
1619090212.48509,29.10474,32.100510120391846
1619090212.50071,29.36914,32.116130113601685
1619090212.51634,28.98825,32.131760120391846
1619090212.53196,28.31375,32.147380113601685
1619090212.54759,27.6199,32.163010120391846
1619090212.56322,27.02219,32.17864012718201
1619090212.57884,26.44818,32.194260120391846
1619090212.59447,25.76154,32.20989012718201
1619090212.61009,24.88947,32.225510120391846
1619090212.62572,23.86755,32.24114012718201
1619090212.64135,22.81339,32.25677013397217
1619090212.65697,21.80219,32.27239012718201
1619090212.6726,20.8338,32.28802013397217
1619090212.68822,19.82349,32.30364012718201
1619090212.70385,18.66995,32.31927013397217
1619090212.71947,17.32574,32.33489012718201
1619090212.7351,15.76559,32.35052013397217
1619090212.75073,13.97424,32.36615014076233
1619090212.76635,11.86801,32.38177013397217
1619090212.78198,9.316895,32.39740014076233
1619090212.7976,6.229431,32.41302013397217
1619090212.81323,2.652191,32.42865014076233
1619090212.82885,-1.202789,32.44427013397217
1619090212.84448,-4.99765,32.45990014076233
1619090212.86011,-8.384003,32.47553014755249
1619090212.87573,-11.16864,32.49115014076233
1619090212.89136,-13.40533,32.50678014755249
1619090212.90698,-15.36844,32.52240014076233
1619090212.92261,-17.50256,32.53803014755249
1619090212.93823,-20.24396,32.55365014076233
1619090212.95386,-23.85138,32.56928014755249
1619090212.96949,-28.28165,32.58491015434265
1619090212.98511,-33.1601,32.60053014755249
1619090213.00074,-37.8103,32.61616015434265
1619090213.01636,-41.44342,32.63178014755249
1619090213.03199,-43.36505,32.64741015434265
1619090213.04761,-43.13394,32.66303014755249
1619090213.06324,-40.59949,32.67866015434265
1619090213.07887,-35.91727,32.69429016113281
1619090213.09449,-29.47763,32.70991015434265
1619090213.11012,-21.8158,32.72554016113281
1619090213.12574,-13.53214,32.74116015434265
1619090213.14137,-5.239319,32.75679016113281
1619090213.15699,2.487244,32.77241015434265
1619090213.17262,9.219452,32.78804016113281
1619090213.18825,14.7099,32.803670167922974
1619090213.20387,18.94766,32.81929016113281
1619090213.2195,22.12271,32.834920167922974
1619090213.23512,24.49765,32.85054016113281
1619090213.25075,26.35901,32.866170167922974
1619090213.26637,27.90039,32.88179016113281
1619090213.282,29.22815,32.897420167922974
1619090213.29763,30.32986,32.913050174713135
1619090213.31325,31.18604,32.928670167922974
1619090213.32888,31.75333,32.944300174713135
1619090213.3445,32.00558,32.959920167922974
1619090213.36013,31.95224,32.975550174713135
1619090213.37575,31.66147,32.991170167922974
1619090213.39138,31.22272,33.006800174713135
1619090213.40701,30.75735,33.022430181503296
1619090213.42263,30.36035,33.038050174713135
1619090213.43826,30.0517,33.053680181503296
1619090213.45388,29.72192,33.069300174713135
1619090213.46951,29.17584,33.084930181503296
1619090213.48513,28.20538,33.100550174713135
1619090213.50076,26.6824,33.116180181503296
1619090213.51639,24.63974,33.13181018829346
1619090213.53201,22.26352,33.147430181503296
1619090213.54764,19.78625,33.16306018829346
1619090213.56326,17.41461,33.178680181503296
1619090213.57889,15.23322,33.19431018829346
1619090213.59451,13.18466,33.209930181503296
1619090213.61014,11.05869,33.22556018829346
1619090213.62577,8.62204,33.24119019508362
1619090213.64139,5.709137,33.25681018829346
1619090213.65702,2.275818,33.27244019508362
1619090213.67264,-1.498688,33.28806018829346
1619090213.68827,-5.301514,33.30369019508362
1619090213.70389,-8.778381,33.31931018829346
1619090213.71952,-11.67303,33.33494019508362
1619090213.73515,-13.93878,33.35057020187378
1619090213.75077,-15.75012,33.36619019508362
1619090213.7664,-17.44626,33.38182020187378
1619090213.78202,-19.41547,33.39744019508362
1619090213.79765,-22.03644,33.41307020187378
1619090213.81327,-25.53284,33.42869019508362
1619090213.8289,-29.92072,33.44432020187378
1619090213.84453,-34.9021,33.45995020866394
1619090213.86015,-39.83682,33.47557020187378
1619090213.87578,-43.79095,33.49120020866394
1619090213.8914,-45.75748,33.50682020187378
1619090213.90703,-44.99344,33.52245020866394
1619090213.92265,-41.28235,33.53807020187378
1619090213.93828,-35.05154,33.55370020866394
1619090213.95391,-27.21851,33.5693302154541
1619090213.96953,-18.87897,33.58495020866394
1619090213.98516,-10.97186,33.6005802154541
1619090214.00078,-4.054077,33.61620020866394
1619090214.01641,1.714447,33.6318302154541
1619090214.03203,6.477386,33.64745020866394
1619090214.04766,10.50839,33.6630802154541
1619090214.06329,14.05264,33.67871022224426
1619090214.07891,17.22925,33.6943302154541
1619090214.09454,20.05957,33.70996022224426
1619090214.11016,22.45111,33.7255802154541
1619090214.12579,24.30627,33.74121022224426
1619090214.14141,25.59769,33.7568302154541
1619090214.15704,26.38712,33.77246022224426
1619090214.17267,26.83905,33.788089990615845
1619090214.18829,27.13016,33.80371022224426
1619090214.20392,27.39359,33.819339990615845
1619090214.21954,27.62622,33.83496022224426
1619090214.23517,27.75681,33.850589990615845
1619090214.25079,27.64996,33.86621022224426
1619090214.26642,27.2132,33.881839990615845
1619090214.28205,26.44629,33.897469997406006
1619090214.29767,25.39496,33.913089990615845
1619090214.3133,24.13504,33.928719997406006
1619090214.32892,22.69794,33.944339990615845
1619090214.34455,21.09811,33.959969997406006
1619090214.36017,19.33243,33.975589990615845
1619090214.3758,17.41595,33.991219997406006
1619090214.39143,15.42792,34.00685000419617
1619090214.40705,13.47452,34.022469997406006
1619090214.42268,11.68985,34.03810000419617
1619090214.4383,10.142,34.053719997406006
1619090214.45393,8.782471,34.06935000419617
1619090214.46955,7.426147,34.084969997406006
1619090214.48518,5.828949,34.10060000419617
1619090214.50081,3.757507,34.11623001098633
1619090214.51643,1.122009,34.13185000419617
1619090214.53206,-1.97403,34.14748001098633
1619090214.54768,-5.261688,34.16310000419617
1619090214.56331,-8.376923,34.17873001098633
1619090214.57893,-11.03918,34.19435000419617
1619090214.59456,-13.12677,34.20998001098633
1619090214.61019,-14.72964,34.22561001777649
1619090214.62581,-16.11835,34.24123001098633
1619090214.64144,-17.69153,34.25686001777649
1619090214.65706,-19.83893,34.27248001098633
1619090214.67269,-22.84113,34.28811001777649
1619090214.68831,-26.73807,34.30373001098633
1619090214.70394,-31.30362,34.31936001777649
1619090214.71957,-36.05014,34.33499002456665
1619090214.73519,-40.27487,34.35061001777649
1619090214.75082,-43.22754,34.36624002456665
1619090214.76644,-44.25558,34.38186001777649
1619090214.78207,-42.9473,34.39749002456665
1619090214.79769,-39.24423,34.41311001777649
1619090214.81332,-33.48911,34.42874002456665
1619090214.82895,-26.37146,34.44437003135681
1619090214.84457,-18.78122,34.45999002456665
1619090214.8602,-11.60648,34.47562003135681
1619090214.87582,-5.509491,34.49124002456665
1619090214.89145,-0.7471313,34.50687003135681
1619090214.90707,2.807343,34.52249002456665
1619090214.9227,5.532654,34.53812003135681
1619090214.93833,7.867004,34.55375003814697
1619090214.95395,10.08618,34.56937003135681
1619090214.96958,12.24387,34.58500003814697
1619090214.9852,14.24274,34.60062003135681
1619090215.00083,15.92599,34.61625003814697
1619090215.01645,17.21289,34.63187003135681
1619090215.03208,18.10706,34.64750003814697
1619090215.04771,18.66498,34.663130044937134
1619090215.06333,18.96045,34.67875003814697
1619090215.07896,19.03549,34.694380044937134
1619090215.09458,18.92166,34.71000003814697
1619090215.11021,18.71448,34.725630044937134
1619090215.12583,18.55859,34.74125003814697
1619090215.14146,18.58765,34.756880044937134
1619090215.15709,18.86368,34.772510051727295
1619090215.17271,19.33807,34.788130044937134
1619090215.18834,19.84323,34.803760051727295
1619090215.20396,20.134,34.819380044937134
1619090215.21959,19.94962,34.835010051727295
1619090215.23521,19.14478,34.850630044937134
1619090215.25084,17.73215,34.866260051727295
1619090215.26647,15.8996,34.881890058517456
1619090215.28209,13.92236,34.897510051727295
1619090215.29772,12.02374,34.913140058517456
1619090215.31334,10.28391,34.928760051727295
1619090215.32897,8.588684,34.944390058517456
1619090215.3446,6.737213,34.96002006530762
1619090215.36022,4.562256,34.975640058517456
1619090215.37585,2.04129,34.99127006530762
1619090215.39147,-0.6090393,35.006890058517456
1619090215.4071,-3.091675,35.02252006530762
1619090215.42272,-5.166016,35.038140058517456
1619090215.43835,-6.77829,35.05377006530762
1619090215.45398,-8.104034,35.06940007209778
1619090215.4696,-9.454132,35.08502006530762
1619090215.48523,-11.13705,35.10065007209778
1619090215.50085,-13.35312,35.11627006530762
1619090215.51648,-16.16949,35.13190007209778
1619090215.5321,-19.33868,35.14752006530762
1619090215.54773,-22.5278,35.16315007209778
1619090215.56336,-25.31375,35.17878007888794
1619090215.57898,-27.27414,35.19440007209778
1619090215.59461,-28.0325,35.21003007888794
1619090215.61023,-27.31549,35.22565007209778
1619090215.62586,-25.01398,35.24128007888794
1619090215.64148,-21.22406,35.25690007209778
1619090215.65711,-16.2973,35.27253007888794
1619090215.67274,-10.241,35.2881600856781
1619090215.68836,-3.106293,35.30378007888794
1619090215.70399,5.012299,35.3194100856781
1619090215.71961,13.76663,35.33503007888794
1619090215.73524,22.51663,35.3506600856781
1619090215.75086,30.41492,35.36628007888794
1619090215.76649,36.776,35.3819100856781
1619090215.78212,41.29733,35.39754009246826
1619090215.79774,44.10992,35.4131600856781
1619090215.81337,46.41302,35.42879009246826
1619090215.82899,49.49997,35.4444100856781
1619090215.84462,54.27615,35.46004009246826
1619090215.86024,60.81818,35.4756600856781
1619090215.87587,68.31073,35.49129009246826
1619090215.8915,75.47556,35.50692009925842
1619090215.90712,81.29068,35.52254009246826
1619090215.92275,85.41922,35.53817009925842
1619090215.93837,88.2764,35.55379009246826
1619090215.954,91.77786,35.56942009925842
1619090215.96962,97.96649,35.58504009246826
1619090215.98525,108.503,35.60067009925842
1619090216.00088,124.0318,35.616300106048584
1619090216.0165,143.8586,35.63192009925842
1619090216.03213,166.0237,35.647550106048584
1619090216.04775,187.9209,35.66317009925842
1619090216.06338,206.7057,35.678800106048584
1619090216.079,214.1192,35.69442009925842
1619090216.09463,204.0307,35.710050106048584
1619090216.11026,173.8444,35.725680112838745
1619090216.12588,126.8869,35.741300106048584
1619090216.14151,71.995,35.756930112838745
1619090216.15713,19.93922,35.772550106048584
1619090216.17276,-20.90102,35.788180112838745
1619090216.18838,-46.99405,35.803800106048584
1619090216.20401,-59.88338,35.819430112838745
1619090216.21964,-64.49859,35.835060119628906
1619090216.23526,-65.73042,35.850680112838745
1619090216.25089,-67.54845,35.866310119628906
1619090216.26651,-71.59586,35.881930112838745
1619090216.28214,-77.55876,35.897560119628906
1619090216.29776,-83.93567,35.913180112838745
1619090216.31339,-90.12177,35.928810119628906
1619090216.32902,-95.98826,35.94444012641907
1619090216.34464,-101.9313,35.960060119628906
1619090216.36027,-108.7341,35.97569012641907
1619090216.37589,-116.5426,35.991310119628906
1619090216.39152,-125.7753,36.00694012641907
1619090216.40714,-136.6344,36.022560119628906
1619090216.42277,-149.3071,36.03819012641907
1619090216.4384,-163.9583,36.05382013320923
1619090216.45402,-180.2734,36.06944012641907
1619090216.46965,-196.9178,36.08507013320923
1619090216.48527,-211.845,36.10069012641907
1619090216.5009,-223.1126,36.11632013320923
1619090216.51652,-226.1462,36.13194012641907
1619090216.53215,-218.9279,36.14757013320923
1619090216.54778,-201.6023,36.16320013999939
1619090216.5634,-176.2099,36.17882013320923
1619090216.57903,-145.9406,36.19445013999939
1619090216.59465,-113.8066,36.21007013320923
1619090216.61028,-81.43508,36.22570013999939
1619090216.6259,-49.10904,36.24132013320923
1619090216.64153,-16.43218,36.25695013999939
1619090216.65716,16.9116,36.27258014678955
1619090216.67278,49.64614,36.28820013999939
1619090216.68841,79.36719,36.30383014678955
1619090216.70403,103.0367,36.31945013999939
1619090216.71966,116.7033,36.33508014678955
1619090216.73528,117.1599,36.35070013999939
1619090216.75091,104.2081,36.36633014678955
1619090216.76654,81.55521,36.38196015357971
1619090216.78216,55.48718,36.39758014678955
1619090216.79779,32.32518,36.41321015357971
1619090216.81341,15.51251,36.42883014678955
1619090216.82904,4.871334,36.44446015357971
1619090216.84466,-1.927822,36.46008014678955
1619090216.86029,-7.34127,36.47571015357971
1619090216.87592,-12.94204,36.49134016036987
1619090216.89154,-19.19249,36.50696015357971
1619090216.90717,-25.91748,36.52259016036987
1619090216.92279,-33.0144,36.53821015357971
1619090216.93842,-40.09125,36.55384016036987
1619090216.95404,-47.48285,36.56946015357971
1619090216.96967,-55.44694,36.58509016036987
1619090216.9853,-63.71638,36.600720167160034
1619090217.00092,-71.34583,36.61634016036987
1619090217.01655,-76.84632,36.631970167160034
1619090217.03217,-78.58389,36.64759016036987
1619090217.0478,-75.55363,36.663220167160034
1619090217.06342,-67.88829,36.67884016036987
1619090217.07905,-56.93904,36.694470167160034
1619090217.09468,-44.95203,36.710100173950195
1619090217.1103,-33.96764,36.725720167160034
1619090217.12593,-25.05358,36.741350173950195
1619090217.14155,-18.16716,36.756970167160034
1619090217.15718,-12.43784,36.772600173950195
1619090217.1728,-6.756941,36.788220167160034
1619090217.18843,-0.4648294,36.803850173950195
1619090217.20406,6.371822,36.819480180740356
1619090217.21968,13.0322,36.835100173950195
1619090217.23531,18.50567,36.850730180740356
1619090217.25093,22.1374,36.866350173950195
1619090217.26656,23.92894,36.881980180740356
1619090217.28218,24.42641,36.897600173950195
1619090217.29781,24.416,36.913230180740356
1619090217.31344,24.55915,36.92886018753052
1619090217.32906,25.18121,36.944480180740356
1619090217.34469,26.20106,36.96011018753052
1619090217.36031,27.31269,36.975730180740356
1619090217.37594,28.1317,36.99136018753052
1619090217.39156,28.4818,37.006980180740356
1619090217.40719,28.42235,37.02261018753052
1619090217.42282,28.15446,37.03824019432068
1619090217.43844,27.85007,37.05386018753052
1619090217.45407,27.55527,37.06949019432068
1619090217.46969,27.17847,37.08511018753052
1619090217.48532,26.55798,37.10074019432068
1619090217.50094,25.56075,37.11636018753052
1619090217.51657,24.10113,37.13199019432068
1619090217.5322,22.1731,37.14762020111084
1619090217.54782,19.85648,37.16324019432068
1619090217.56345,17.24896,37.17887020111084
1619090217.57907,14.43874,37.19449019432068
1619090217.5947,11.51303,37.21012020111084
1619090217.61033,8.490471,37.225750207901
1619090217.62595,5.315735,37.24137020111084
1619090217.64158,1.889572,37.257000207901
1619090217.6572,-1.902061,37.27262020111084
1619090217.67283,-6.071007,37.288250207901
1619090217.68845,-10.47475,37.30387020111084
1619090217.70408,-14.87501,37.319500207901
1619090217.71971,-19.06334,37.33513021469116
1619090217.73533,-22.99092,37.350750207901
1619090217.75096,-26.82938,37.36638021469116
1619090217.76658,-30.82873,37.382000207901
1619090217.78221,-35.13725,37.39763021469116
1619090217.79783,-39.58795,37.413250207901
1619090217.81346,-43.691,37.42888021469116
1619090217.82909,-46.72209,37.44451022148132
1619090217.84471,-47.99094,37.46013021469116
1619090217.86034,-47.01978,37.47576022148132
1619090217.87596,-43.71841,37.49138021469116
1619090217.89159,-38.38226,37.50701022148132
1619090217.90721,-31.57716,37.52263021469116
1619090217.92284,-24.0151,37.53826022148132
1619090217.93847,-16.39488,37.553889989852905
1619090217.95409,-9.284805,37.56951022148132
1619090217.96972,-3.047318,37.585139989852905
1619090217.98534,2.220856,37.60076022148132
1619090218.00097,6.63327,37.616389989852905
1619090218.01659,10.47571,37.63201022148132
1619090218.03222,14.01563,37.647639989852905
1619090218.04785,17.37453,37.663269996643066
1619090218.06347,20.48643,37.678889989852905
1619090218.0791,23.12718,37.694519996643066
1619090218.09472,25.06107,37.710139989852905
1619090218.11035,26.17409,37.725769996643066
1619090218.12597,26.52811,37.741389989852905
1619090218.1416,26.32181,37.757019996643066
1619090218.15723,25.79947,37.77265000343323
1619090218.17285,25.12563,37.788269996643066
1619090218.18848,24.37541,37.80390000343323
1619090218.2041,23.55754,37.819519996643066
1619090218.21973,22.66852,37.83515000343323
1619090218.23535,21.77721,37.850769996643066
1619090218.25098,20.99014,37.86640000343323
1619090218.26661,20.37962,37.88203001022339
1619090218.28223,19.92619,37.89765000343323
1619090218.29786,19.50246,37.91328001022339
1619090218.31348,18.86884,37.92890000343323
1619090218.32911,17.77098,37.94453001022339
1619090218.34473,15.99867,37.96015000343323
1619090218.36036,13.48944,37.97578001022339
1619090218.37599,10.36247,37.99141001701355
1619090218.39161,6.88974,38.00703001022339
1619090218.40724,3.438736,38.02266001701355
1619090218.42286,0.3610535,38.03828001022339
1619090218.43849,-2.148651,38.05391001701355
1619090218.45411,-4.108887,38.06953001022339
1619090218.46974,-5.749283,38.08516001701355
1619090218.48537,-7.459015,38.10079002380371
1619090218.50099,-9.68486,38.11641001701355
1619090218.51662,-12.7628,38.13204002380371
1619090218.53224,-16.8221,38.14766001701355
1619090218.54787,-21.65996,38.16329002380371
1619090218.56349,-26.70253,38.17891001701355
1619090218.57912,-31.07008,38.19454002380371
1619090218.59475,-33.79022,38.21017003059387
1619090218.61037,-34.05519,38.22579002380371
1619090218.626,-31.48882,38.24142003059387
1619090218.64162,-26.29825,38.25704002380371
1619090218.65725,-19.1779,38.27267003059387
1619090218.67287,-11.09659,38.28829002380371
1619090218.6885,-3.028336,38.30392003059387
1619090218.70413,4.31543,38.31955003738403
1619090218.71975,10.51407,38.33517003059387
1619090218.73538,15.44986,38.35080003738403
1619090218.751,19.1993,38.36642003059387
1619090218.76663,21.95186,38.38205003738403
1619090218.78225,23.95511,38.39767003059387
1619090218.79788,25.48077,38.41330003738403
1619090218.81351,26.7641,38.428930044174194
1619090218.82913,27.94189,38.44455003738403
1619090218.84476,29.01602,38.460180044174194
1619090218.86038,29.88766,38.47580003738403
1619090218.87601,30.40256,38.491430044174194
1619090218.89163,30.46466,38.50705003738403
1619090218.90726,30.07669,38.522680044174194
1619090218.92289,29.39163,38.538310050964355
1619090218.93851,28.65079,38.553930044174194
1619090218.95414,28.1022,38.569560050964355
1619090218.96976,27.87518,38.585180044174194
1619090218.98539,27.92902,38.600810050964355
1619090219.00101,28.07291,38.616430044174194
1619090219.01664,28.05801,38.632060050964355
1619090219.03227,27.68188,38.64769005775452
1619090219.04789,26.8573,38.663310050964355
1619090219.06352,25.604,38.67894005775452
1619090219.07914,23.99911,38.694560050964355
1619090219.09477,22.10678,38.71019005775452
1619090219.11039,19.93347,38.725810050964355
1619090219.12602,17.47061,38.74144005775452
1619090219.14165,14.72272,38.75707006454468
1619090219.15727,11.73251,38.77269005775452
1619090219.1729,8.577728,38.78832006454468
1619090219.18852,5.302979,38.80394005775452
1619090219.20415,1.946899,38.81957006454468
1619090219.21977,-1.479645,38.83519005775452
1619090219.2354,-4.922729,38.85082006454468
1619090219.25103,-8.293793,38.86645007133484
1619090219.26665,-11.49008,38.88207006454468
1619090219.28228,-14.54404,38.89770007133484
1619090219.2979,-17.67514,38.91332006454468
1619090219.31353,-21.24878,38.92895007133484
1619090219.32915,-25.57355,38.94457006454468
1619090219.34478,-30.60843,38.96020007133484
1619090219.36041,-35.78403,38.975830078125
1619090219.37603,-40.05435,38.99145007133484
1619090219.39166,-42.21979,39.007080078125
1619090219.40728,-41.37936,39.02270007133484
1619090219.42291,-37.31744,39.038330078125
1619090219.43853,-30.59152,39.05395007133484
1619090219.45416,-22.32684,39.069580078125
1619090219.46979,-13.80286,39.08521008491516
1619090219.48541,-6.029419,39.100830078125
1619090219.50104,0.46875,39.11646008491516
1619090219.51666,5.646301,39.132080078125
1619090219.53229,9.777924,39.14771008491516
1619090219.54791,13.25381,39.163330078125
1619090219.56354,16.36639,39.17896008491516
1619090219.57917,19.29346,39.19459009170532
1619090219.59479,22.06482,39.21021008491516
1619090219.61042,24.59201,39.22584009170532
1619090219.62604,26.71173,39.24146008491516
1619090219.64167,28.2713,39.25709009170532
1619090219.65729,29.19504,39.27271008491516
1619090219.67292,29.54031,39.28834009170532
1619090219.68855,29.51025,39.30397009849548
1619090219.70417,29.37561,39.31959009170532
1619090219.7198,29.38153,39.33522009849548
1619090219.73542,29.62201,39.35084009170532
1619090219.75105,30.0116,39.36647009849548
1619090219.76668,30.34943,39.382100105285645
1619090219.7823,30.39905,39.39772009849548
1619090219.79793,29.98688,39.413350105285645
1619090219.81355,29.04611,39.42897009849548
1619090219.82918,27.63013,39.444600105285645
1619090219.8448,25.80481,39.46022009849548
1619090219.86043,23.6098,39.475850105285645
1619090219.87606,21.03394,39.491480112075806
1619090219.89168,18.02997,39.507100105285645
1619090219.90731,14.63797,39.522730112075806
1619090219.92293,11.02402,39.538350105285645
1619090219.93856,7.469818,39.553980112075806
1619090219.95418,4.248108,39.569600105285645
1619090219.96981,1.477112,39.585230112075806
1619090219.98544,-1.013641,39.60086011886597
1619090220.00106,-3.582764,39.616480112075806
1619090220.01669,-6.640594,39.63211011886597
1619090220.03231,-10.42438,39.647730112075806
1619090220.04794,-14.89026,39.66336011886597
1619090220.06356,-19.76895,39.678980112075806
1619090220.07919,-24.68527,39.69461011886597
1619090220.09482,-29.32919,39.71024012565613
1619090220.11044,-33.43484,39.72586011886597
1619090220.12607,-36.75137,39.74149012565613
1619090220.14169,-38.90247,39.75711011886597
1619090220.15732,-39.41876,39.77274012565613
1619090220.17294,-37.89157,39.78836011886597
1619090220.18857,-34.19373,39.80399012565613
1619090220.2042,-28.63791,39.81962013244629
1619090220.21982,-21.92911,39.83524012565613
1619090220.23545,-14.91306,39.85087013244629
1619090220.25107,-8.31546,39.86649012565613
1619090220.2667,-2.523163,39.88212013244629
1619090220.28232,2.455261,39.89774012565613
1619090220.29795,6.835938,39.91337013244629
1619090220.31358,10.84842,39.92900013923645
1619090220.3292,14.586,39.94462013244629
1619090220.34483,17.95682,39.96025013923645
1619090220.36045,20.72067,39.97587013244629
1619090220.37608,22.60632,39.99150013923645
1619090220.3917,23.47351,40.00712013244629
1619090220.40733,23.40332,40.02275013923645
1619090220.42296,22.71994,40.03838014602661
1619090220.43858,21.84576,40.05400013923645
1619090220.45421,21.12936,40.06963014602661
1619090220.46983,20.65674,40.08525013923645
1619090220.48546,20.25165,40.10088014602661
1619090220.50108,19.60583,40.11650013923645
1619090220.51671,18.50296,40.13213014602661
1619090220.53234,16.96454,40.14776015281677
1619090220.54796,15.22339,40.16338014602661
1619090220.56359,13.58148,40.17901015281677
1619090220.57921,12.22461,40.19463014602661
1619090220.59484,11.09079,40.21026015281677
1619090220.61046,9.934235,40.22588014602661
1619090220.62609,8.442719,40.24151015281677
1619090220.64172,6.42981,40.257140159606934
1619090220.65734,3.901123,40.27276015281677
1619090220.67297,1.044312,40.288390159606934
1619090220.68859,-1.909821,40.30401015281677
1619090220.70422,-4.754303,40.319640159606934
1619090220.71984,-7.393799,40.33526015281677
1619090220.73547,-9.836121,40.350890159606934
1619090220.7511,-12.16138,40.366520166397095
1619090220.76672,-14.47845,40.382140159606934
1619090220.78235,-16.90543,40.397770166397095
1619090220.79797,-19.57156,40.413390159606934
1619090220.8136,-22.58862,40.429020166397095
1619090220.82922,-26.01385,40.444640159606934
1619090220.84485,-29.73114,40.460270166397095
1619090220.86048,-33.34778,40.475900173187256
1619090220.8761,-36.19092,40.491520166397095
1619090220.89173,-37.40796,40.507150173187256
1619090220.90735,-36.26019,40.522770166397095
1619090220.92298,-32.43674,40.538400173187256
1619090220.9386,-26.24942,40.554020166397095
1619090220.95423,-18.5343,40.569650173187256
1619090220.96986,-10.40588,40.58528017997742
1619090220.98548,-2.850098,40.600900173187256
1619090221.00111,3.569244,40.61653017997742
1619090221.01673,8.8013,40.632150173187256
1619090221.03236,13.12332,40.64778017997742
1619090221.04798,16.93515,40.663400173187256
1619090221.06361,20.45132,40.67903017997742
1619090221.07924,23.67007,40.69466018676758
1619090221.09486,26.39337,40.71028017997742
1619090221.11049,28.36496,40.72591018676758
1619090221.12611,29.41479,40.74153017997742
1619090221.14174,29.56653,40.75716018676758
1619090221.15736,29.05161,40.77278017997742
1619090221.17299,28.22403,40.78841018676758
1619090221.18862,27.38905,40.80404019355774
1619090221.20424,26.7076,40.81966018676758
1619090221.21987,26.17586,40.83529019355774
1619090221.23549,25.68832,40.85091018676758
1619090221.25112,25.12726,40.86654019355774
1619090221.26674,24.41862,40.88216018676758
1619090221.28237,23.56184,40.89779019355774
1619090221.298,22.75539,40.9134202003479
1619090221.31362,22.19408,40.92904019355774
1619090221.32925,21.92833,40.9446702003479
1619090221.34487,21.74036,40.96029019355774
1619090221.3605,21.21625,40.9759202003479
1619090221.37612,19.92773,40.99154019355774
1619090221.39175,17.65637,41.0071702003479
1619090221.40738,14.55968,41.02280020713806
1619090221.423,11.10089,41.0384202003479
1619090221.43863,8.17247,41.05405020713806
1619090221.45425,6.476486,41.0696702003479
1619090221.46988,6.18541,41.08530020713806
1619090221.4855,6.771561,41.1009202003479
1619090221.50113,7.236908,41.11655020713806
1619090221.51676,6.629074,41.13218021392822
1619090221.53238,4.552139,41.14780020713806
1619090221.54801,1.254715,41.16343021392822
1619090221.56363,-2.600967,41.17905020713806
1619090221.57926,-5.852005,41.19468021392822
1619090221.59488,-7.65889,41.21030020713806
1619090221.61051,-7.757202,41.22593021392822
1619090221.62614,-6.401093,41.241560220718384
1619090221.64176,-4.054962,41.25718021392822
1619090221.65739,-0.9298401,41.272810220718384
1619090221.67301,3.172913,41.28843021392822
1619090221.68864,8.74791,41.304060220718384
1619090221.70426,16.23648,41.31968021392822
1619090221.71989,26.52458,41.335310220718384
1619090221.73552,40.28209,41.350939989089966
1619090221.75114,57.81813,41.366560220718384
1619090221.76677,78.88353,41.382189989089966
1619090221.78239,102.4485,41.397810220718384
1619090221.79802,126.7755,41.413439989089966
1619090221.81364,149.5991,41.429060220718384
1619090221.82927,168.4449,41.444689989089966
1619090221.8449,176.8831,41.46031999588013
1619090221.86052,170.3357,41.475939989089966
1619090221.87615,147.5406,41.49156999588013
1619090221.89177,111.8543,41.507189989089966
1619090221.9074,70.28751,41.52281999588013
1619090221.92302,30.40295,41.538439989089966
1619090221.93865,-2.448975,41.55406999588013
1619090221.95428,-26.10332,41.56970000267029
1619090221.9699,-40.83044,41.58531999588013
1619090221.98553,-47.91847,41.60095000267029
1619090222.00115,-48.01969,41.61656999588013
1619090222.01678,-41.78552,41.63220000267029
1619090222.0324,-30.6152,41.64781999588013
1619090222.04803,-16.89015,41.66345000267029
1619090222.06366,-4.171593,41.67908000946045
1619090222.07928,3.976082,41.69470000267029
1619090222.09491,5.284521,41.71033000946045
1619090222.11053,-0.7112198,41.72595000267029
1619090222.12616,-12.50447,41.74158000946045
1619090222.14178,-26.62335,41.75720000267029
1619090222.15741,-39.45889,41.77283000946045
1619090222.17304,-48.68287,41.78846001625061
1619090222.18866,-54.02186,41.80408000946045
1619090222.20429,-57.17915,41.81971001625061
1619090222.21991,-60.79597,41.83533000946045
1619090222.23554,-67.32318,41.85096001625061
1619090222.25116,-77.25728,41.86658000946045
1619090222.26679,-90.01544,41.88221001625061
1619090222.28242,-103.6752,41.89784002304077
1619090222.29804,-116.3092,41.91346001625061
1619090222.31367,-126.8969,41.92909002304077
1619090222.32929,-135.741,41.94471001625061
1619090222.34492,-144.071,41.96034002304077
1619090222.36054,-152.9844,41.97596001625061
1619090222.37617,-162.5547,41.99159002304077
1619090222.3918,-171.9315,42.00722002983093
1619090222.40742,-179.055,42.02284002304077
1619090222.42305,-181.0706,42.03847002983093
1619090222.43867,-175.658,42.05409002304077
1619090222.4543,-161.8071,42.06972002983093
1619090222.46993,-139.8859,42.085350036621094
1619090222.48555,-111.3963,42.10097002983093
1619090222.50118,-78.61845,42.116600036621094
1619090222.5168,-41.71026,42.13222002983093
1619090222.53243,-4.269104,42.147850036621094
1619090222.54805,27.91771,42.16347002983093
1619090222.56368,49.54443,42.179100036621094
1619090222.57931,58.28176,42.194730043411255
1619090222.59493,56.00634,42.210350036621094
1619090222.61056,47.68707,42.225980043411255
1619090222.62618,38.69854,42.241600036621094
1619090222.64181,32.46125,42.257230043411255
1619090222.65743,29.53873,42.272850036621094
1619090222.67306,27.93128,42.288480043411255
1619090222.68869,24.73462,42.304110050201416
1619090222.70431,19.40704,42.319730043411255
1619090222.71994,13.14235,42.335360050201416
1619090222.73556,7.675217,42.350980043411255
1619090222.75119,4.249519,42.366610050201416
1619090222.76681,2.996117,42.382230043411255
1619090222.78244,3.091728,42.397860050201416
1619090222.79807,3.454651,42.41349005699158
1619090222.81369,3.159363,42.429110050201416
1619090222.82932,2.230949,42.44474005699158
1619090222.84494,1.531025,42.460360050201416
1619090222.86057,2.424908,42.47599005699158
1619090222.87619,5.091766,42.491610050201416
1619090222.89182,8.698193,42.50724005699158
1619090222.90745,11.8834,42.52287006378174
1619090222.92307,13.41571,42.53849005699158
1619090222.9387,12.79823,42.55412006378174
1619090222.95432,10.16266,42.56974005699158
1619090222.96995,6.386559,42.58537006378174
1619090222.98557,2.772717,42.60099005699158
1619090223.0012,0.2921829,42.61662006378174
1619090223.01683,-0.8026123,42.6322500705719
1619090223.03245,-0.8359184,42.64787006378174
1619090223.04808,-0.5064163,42.6635000705719
1619090223.0637,-0.5408897,42.67912006378174
1619090223.07933,-1.410686,42.6947500705719
1619090223.09495,-3.31793,42.71037006378174
1619090223.11058,-6.036627,42.7260000705719
1619090223.12621,-8.995991,42.74163007736206
1619090223.14183,-11.67105,42.7572500705719
1619090223.15746,-13.89738,42.77288007736206
1619090223.17308,-15.86644,42.7885000705719
1619090223.18871,-18.02274,42.80413007736206
1619090223.20433,-20.8638,42.8197500705719
1619090223.21996,-24.60416,42.83538007736206
1619090223.23559,-29.08444,42.85101008415222
1619090223.25121,-33.69757,42.86663007736206
1619090223.26684,-37.5665,42.88226008415222
1619090223.28246,-39.89263,42.89788007736206
1619090223.29809,-40.19814,42.91351008415222
1619090223.31371,-38.32586,42.92913007736206
1619090223.32934,-34.39997,42.94476008415222
1619090223.34497,-28.75009,42.96039009094238
1619090223.36059,-21.85382,42.97601008415222
1619090223.37622,-14.31567,42.99164009094238
1619090223.39184,-6.840672,43.00726008415222
1619090223.40747,-0.0745945,43.02289009094238
1619090223.42309,5.510849,43.03851008415222
1619090223.43872,9.766876,43.05414009094238
1619090223.45435,12.92623,43.069770097732544
1619090223.46997,15.40879,43.08539009094238
1619090223.4856,17.58787,43.101020097732544
1619090223.50122,19.57708,43.11664009094238
1619090223.51685,21.22702,43.132270097732544
1619090223.53247,22.28798,43.14789009094238
1619090223.5481,22.61672,43.163520097732544
1619090223.56373,22.28452,43.179150104522705
1619090223.57935,21.52658,43.194770097732544
1619090223.59498,20.59946,43.210400104522705
1619090223.6106,19.67357,43.226020097732544
1619090223.62623,18.7581,43.241650104522705
1619090223.64185,17.81739,43.257270097732544
1619090223.65748,16.7916,43.272900104522705
1619090223.67311,15.65382,43.288530111312866
1619090223.68873,14.3851,43.304150104522705
1619090223.70436,12.95998,43.319780111312866
1619090223.71998,11.34552,43.335400104522705
1619090223.73561,9.531006,43.351030111312866
1619090223.75123,7.529846,43.366650104522705
1619090223.76686,5.361122,43.382280111312866
1619090223.78249,3.04303,43.39791011810303
1619090223.79811,0.5654144,43.413530111312866
1619090223.81374,-2.077118,43.42916011810303
1619090223.82936,-4.852997,43.444780111312866
1619090223.84499,-7.647804,43.46041011810303
1619090223.86061,-10.27956,43.476030111312866
1619090223.87624,-12.5424,43.49166011810303
1619090223.89187,-14.29977,43.50729012489319
1619090223.90749,-15.53572,43.52291011810303
1619090223.92312,-16.31182,43.53854012489319
1619090223.93874,-16.78169,43.55416011810303
1619090223.95437,-17.11865,43.56979012489319
1619090223.96999,-17.52805,43.58541011810303
1619090223.98562,-18.21638,43.60104012489319
1619090224.00125,-19.34196,43.61667013168335
1619090224.01687,-20.89981,43.63229012489319
1619090224.0325,-22.65343,43.64792013168335
1619090224.04812,-24.12044,43.66354012489319
1619090224.06375,-24.63747,43.67917013168335
1619090224.07937,-23.55382,43.69479012489319
1619090224.095,-20.43408,43.71042013168335
1619090224.11063,-15.17758,43.72605013847351
1619090224.12625,-8.137375,43.74167013168335
1619090224.14188,-0.02296448,43.75730013847351
1619090224.1575,8.21283,43.77292013168335
1619090224.17313,15.6226,43.78855013847351
1619090224.18875,21.46872,43.80417013168335
1619090224.20438,25.43498,43.81980013847351
1619090224.22001,27.6864,43.83543014526367
1619090224.23563,28.80594,43.85105013847351
1619090224.25126,29.60445,43.86668014526367
1619090224.26688,30.76659,43.88230013847351
1619090224.28251,32.59555,43.89793014526367
1619090224.29813,34.89798,43.91355013847351
1619090224.31376,37.08504,43.92918014526367
1619090224.32939,38.44347,43.94481015205383
1619090224.34501,38.45972,43.96043014526367
1619090224.36064,36.9922,43.97606015205383
1619090224.37626,34.3167,43.99168014526367
1619090224.39189,30.99489,44.00731015205383
1619090224.40751,27.62675,44.02293014526367
1619090224.42314,24.69386,44.03856015205383
1619090224.43877,22.43472,44.054190158843994
1619090224.45439,20.85989,44.06981015205383
1619090224.47002,19.80022,44.085440158843994
1619090224.48564,19.01723,44.10106015205383
1619090224.50127,18.24365,44.116690158843994
1619090224.51689,17.22485,44.13231015205383
1619090224.53252,15.71039,44.147940158843994
1619090224.54815,13.5079,44.163570165634155
1619090224.56377,10.54332,44.179190158843994
1619090224.5794,6.91449,44.194820165634155
1619090224.59502,2.855255,44.210440158843994
1619090224.61065,-1.305328,44.226070165634155
1619090224.62628,-5.306625,44.241700172424316
1619090224.6419,-9.076767,44.257320165634155
1619090224.65753,-12.74355,44.272950172424316
1619090224.67315,-16.56888,44.288570165634155
1619090224.68878,-20.81194,44.304200172424316
1619090224.7044,-25.52455,44.319820165634155
1619090224.72003,-30.4691,44.335450172424316
1619090224.73566,-35.15295,44.35108017921448
1619090224.75128,-38.85118,44.366700172424316
1619090224.76691,-40.8287,44.38233017921448
1619090224.78253,-40.51074,44.397950172424316
1619090224.79816,-37.67953,44.41358017921448
1619090224.81378,-32.56461,44.429200172424316
1619090224.82941,-25.84982,44.44483017921448
1619090224.84504,-18.47018,44.46046018600464
1619090224.86066,-11.36279,44.47608017921448
1619090224.87629,-5.162781,44.49171018600464
1619090224.89191,-0.02856445,44.50733017921448
1619090224.90754,4.290649,44.52296018600464
1619090224.92316,8.229706,44.53858017921448
1619090224.93879,12.12222,44.55421018600464
1619090224.95442,15.99307,44.5698401927948
1619090224.97004,19.56238,44.58546018600464
1619090224.98567,22.40662,44.6010901927948
1619090225.00129,24.22903,44.61671018600464
1619090225.01692,25.00034,44.6323401927948
1619090225.03254,24.99677,44.64796018600464
1619090225.04817,24.63849,44.6635901927948
1619090225.0638,24.29996,44.67922019958496
1619090225.07942,24.19733,44.6948401927948
1619090225.09505,24.35458,44.71047019958496
1619090225.11067,24.69995,44.7260901927948
1619090225.1263,25.15979,44.74172019958496
1619090225.14192,25.65646,44.7573401927948
1619090225.15755,26.04102,44.77297019958496
1619090225.17318,26.0679,44.78860020637512
1619090225.1888,25.44998,44.80422019958496
1619090225.20443,23.98645,44.81985020637512
1619090225.22005,21.69638,44.83547019958496
1619090225.23568,18.81894,44.85110020637512
1619090225.2513,15.73865,44.86672019958496
1619090225.26693,12.74149,44.88235020637512
1619090225.28256,9.910431,44.89798021316528
1619090225.29818,7.107635,44.91360020637512
1619090225.31381,4.091431,44.92923021316528
1619090225.32943,0.7174072,44.94485020637512
1619090225.34506,-2.943878,44.96048021316528
1619090225.36068,-6.56543,44.97610020637512
1619090225.37631,-9.670349,44.99173021316528
1619090225.39194,-11.77631,45.007360219955444
1619090225.40756,-12.55698,45.02298021316528
1619090225.42319,-11.9733,45.038610219955444
1619090225.43881,-10.32867,45.05423021316528
1619090225.45444,-8.297089,45.069860219955444
1619090225.47006,-6.757141,45.08548021316528
1619090225.48569,-6.618317,45.101110219955444
1619090225.50132,-8.475922,45.116739988327026
1619090225.51694,-12.40759,45.132360219955444
1619090225.53257,-17.86978,45.147989988327026
1619090225.54819,-23.82849,45.163610219955444
1619090225.56382,-29.02994,45.179239988327026
1619090225.57944,-32.336,45.194860219955444
1619090225.59507,-33.01282,45.210489988327026
1619090225.6107,-30.85632,45.22611999511719
1619090225.62632,-26.1698,45.241739988327026
1619090225.64195,-19.6217,45.25736999511719
1619090225.65757,-12.09653,45.272989988327026
1619090225.6732,-4.50238,45.28861999511719
1619090225.68882,2.404388,45.304239988327026
1619090225.70445,8.093506,45.31986999511719
1619090225.72008,12.39273,45.33550000190735
1619090225.7357,15.40955,45.35111999511719
1619090225.75133,17.52444,45.36675000190735
1619090225.76695,19.1561,45.38236999511719
1619090225.78258,20.60855,45.39800000190735
1619090225.7982,21.97427,45.41361999511719
1619090225.81383,23.17514,45.42925000190735
1619090225.82946,24.07755,45.44488000869751
1619090225.84508,24.59772,45.46050000190735
1619090225.86071,24.79294,45.47613000869751
1619090225.87633,24.79825,45.49175000190735
1619090225.89196,24.72018,45.50738000869751
1619090225.90758,24.55453,45.52300000190735
1619090225.92321,24.18591,45.53863000869751
1619090225.93884,23.46332,45.55426001548767
1619090225.95446,22.32489,45.56988000869751
1619090225.97009,20.85016,45.58551001548767
1619090225.98571,19.23502,45.60113000869751
1619090226.00134,17.73648,45.61676001548767
1619090226.01696,16.57846,45.63238000869751
1619090226.03259,15.83221,45.64801001548767
1619090226.04822,15.43454,45.66364002227783
1619090226.06384,15.12903,45.67926001548767
1619090226.07947,14.5524,45.69489002227783
1619090226.09509,13.28662,45.71051001548767
1619090226.11072,11.02408,45.72614002227783
1619090226.12634,7.731659,45.74176001548767
1619090226.14197,3.705994,45.75739002227783
1619090226.1576,-0.5235901,45.77302002906799
1619090226.17322,-4.378479,45.78864002227783
1619090226.18885,-7.438019,45.80427002906799
1619090226.20447,-9.681885,45.81989002227783
1619090226.2201,-11.41226,45.83552002906799
1619090226.23572,-13.17599,45.85114002227783
