timestamp,value,norm_ts
1619089755.9952,3.513733,3.6460700035095215
1619089756.01082,3.417969,3.6616899967193604
1619089756.02645,2.99585,3.6773200035095215
1619089756.04207,1.944885,3.6929399967193604
1619089756.0577,0.2436523,3.7085700035095215
1619089756.07332,-1.836792,3.7241899967193604
1619089756.08895,-3.900085,3.7398200035095215
1619089756.10458,-5.65387,3.7554500102996826
1619089756.1202,-7.071045,3.7710700035095215
1619089756.13583,-8.35849,3.7867000102996826
1619089756.15145,-9.773895,3.8023200035095215
1619089756.16708,-11.3786,3.8179500102996826
1619089756.1827,-12.96429,3.8335700035095215
1619089756.19833,-14.08319,3.8492000102996826
1619089756.21396,-14.3183,3.8648300170898438
1619089756.22958,-13.50839,3.8804500102996826
1619089756.24521,-11.80911,3.8960800170898438
1619089756.26083,-9.613983,3.9117000102996826
1619089756.27646,-7.312103,3.9273300170898438
1619089756.29209,-5.139465,3.942960023880005
1619089756.30771,-3.114136,3.9585800170898438
1619089756.32334,-1.174927,3.974210023880005
1619089756.33896,0.7044678,3.9898300170898438
1619089756.35459,2.432281,4.005460023880005
1619089756.37021,3.848785,4.021080017089844
1619089756.38584,4.809998,4.036710023880005
1619089756.40147,5.325806,4.052340030670166
1619089756.41709,5.545837,4.067960023880005
1619089756.43272,5.732422,4.083590030670166
1619089756.44834,6.119873,4.099210023880005
1619089756.46397,6.855713,4.114840030670166
1619089756.47959,7.922028,4.130460023880005
1619089756.49522,9.125031,4.146090030670166
1619089756.51085,10.19971,4.161720037460327
1619089756.52647,10.93875,4.177340030670166
1619089756.5421,11.21854,4.192970037460327
1619089756.55772,11.07153,4.208590030670166
1619089756.57335,10.6189,4.224220037460327
1619089756.58897,9.984253,4.239840030670166
1619089756.6046,9.225037,4.255470037460327
1619089756.62023,8.309814,4.271100044250488
1619089756.63585,7.149139,4.286720037460327
1619089756.65148,5.685669,4.302350044250488
1619089756.6671,3.981628,4.317970037460327
1619089756.68273,2.21698,4.333600044250488
1619089756.69835,0.6340942,4.349220037460327
1619089756.71398,-0.5759888,4.364850044250488
1619089756.72961,-1.437164,4.380480051040649
1619089756.74523,-2.167969,4.396100044250488
1619089756.76086,-3.109406,4.411730051040649
1619089756.77648,-4.550873,4.427350044250488
1619089756.79211,-6.559692,4.442980051040649
1619089756.80773,-8.886017,4.458600044250488
1619089756.82336,-11.03757,4.474230051040649
1619089756.83899,-12.44061,4.4898600578308105
1619089756.85461,-12.69278,4.505480051040649
1619089756.87024,-11.73309,4.5211100578308105
1619089756.88586,-9.854919,4.536730051040649
1619089756.90149,-7.529236,4.5523600578308105
1619089756.91711,-5.197662,4.567980051040649
1619089756.93274,-3.099426,4.5836100578308105
1619089756.94837,-1.28418,4.599240064620972
1619089756.96399,0.3607483,4.6148600578308105
1619089756.97962,1.957153,4.630490064620972
1619089756.99524,3.583603,4.6461100578308105
1619089757.01087,5.253693,4.661740064620972
1619089757.02649,6.95517,4.6773600578308105
1619089757.04212,8.618683,4.692990064620972
1619089757.05775,10.14984,4.708620071411133
1619089757.07337,11.42648,4.724240064620972
1619089757.089,12.28619,4.739870071411133
1619089757.10462,12.63249,4.755490064620972
1619089757.12025,12.41328,4.771120071411133
1619089757.13587,11.71437,4.786740064620972
1619089757.1515,10.69698,4.802370071411133
1619089757.16713,9.609421,4.818000078201294
1619089757.18275,8.678802,4.833620071411133
1619089757.19838,8.072372,4.849250078201294
1619089757.214,7.844299,4.864870071411133
1619089757.22963,7.913208,4.880500078201294
1619089757.24525,8.129089,4.896120071411133
1619089757.26088,8.27272,4.911750078201294
1619089757.27651,8.159103,4.927380084991455
1619089757.29213,7.689301,4.943000078201294
1619089757.30776,6.841858,4.958630084991455
1619089757.32338,5.631332,4.974250078201294
1619089757.33901,4.086472,4.989880084991455
1619089757.35463,2.260391,5.005500078201294
1619089757.37026,0.2645416,5.021130084991455
1619089757.38589,-1.745468,5.036760091781616
1619089757.40151,-3.637497,5.052380084991455
1619089757.41714,-5.352127,5.068010091781616
1619089757.43276,-7.011139,5.083630084991455
1619089757.44839,-8.765686,5.099260091781616
1619089757.46401,-10.68649,5.114880084991455
1619089757.47964,-12.64163,5.130510091781616
1619089757.49527,-14.24846,5.146140098571777
1619089757.51089,-15.01959,5.161760091781616
1619089757.52652,-14.61308,5.177390098571777
1619089757.54214,-12.98146,5.193010091781616
1619089757.55777,-10.40889,5.208640098571777
1619089757.57339,-7.345505,5.224260091781616
1619089757.58902,-4.198151,5.239890098571777
1619089757.60465,-1.196945,5.2555201053619385
1619089757.62027,1.612411,5.271140098571777
1619089757.6359,4.205902,5.2867701053619385
1619089757.65152,6.457779,5.302390098571777
1619089757.66715,8.145782,5.3180201053619385
1619089757.68277,9.11113,5.333640098571777
1619089757.6984,9.430435,5.3492701053619385
1619089757.71403,9.418053,5.3649001121521
1619089757.72965,9.475693,5.3805201053619385
1619089757.74528,9.850212,5.3961501121521
1619089757.7609,10.46879,5.4117701053619385
1619089757.77653,10.99154,5.4274001121521
1619089757.79215,11.04981,5.4430201053619385
1619089757.80778,10.48422,5.4586501121521
1619089757.82341,9.465805,5.474280118942261
1619089757.83903,8.387672,5.4899001121521
1619089757.85466,7.628342,5.505530118942261
1619089757.87028,7.357307,5.5211501121521
1619089757.88591,7.478806,5.536780118942261
1619089757.90153,7.761299,5.5524001121521
1619089757.91716,7.994255,5.568030118942261
1619089757.93279,8.033279,5.583660125732422
1619089757.94841,7.801361,5.599280118942261
1619089757.96404,7.215897,5.614910125732422
1619089757.97966,6.157257,5.630530118942261
1619089757.99529,4.592575,5.646160125732422
1619089758.01091,2.647667,5.661780118942261
1619089758.02654,0.6037369,5.677410125732422
1619089758.04217,-1.209534,5.693040132522583
1619089758.05779,-2.652603,5.708660125732422
1619089758.07342,-3.84985,5.724290132522583
1619089758.08904,-5.112877,5.739910125732422
1619089758.10467,-6.78735,5.755540132522583
1619089758.12029,-8.981121,5.771160125732422
1619089758.13592,-11.49666,5.786790132522583
1619089758.15155,-13.88066,5.802420139312744
1619089758.16717,-15.64784,5.818040132522583
1619089758.1828,-16.46725,5.833670139312744
1619089758.19842,-16.30481,5.849290132522583
1619089758.21405,-15.31577,5.864920139312744
1619089758.22967,-13.74079,5.880540132522583
1619089758.2453,-11.75359,5.896170139312744
1619089758.26093,-9.405712,5.911800146102905
1619089758.27655,-6.696785,5.927420139312744
1619089758.29218,-3.685368,5.943050146102905
1619089758.3078,-0.5321484,5.958670139312744
1619089758.32343,2.482857,5.974300146102905
1619089758.33905,5.058512,5.989920139312744
1619089758.35468,6.981692,6.005550146102905
1619089758.37031,8.254189,6.021180152893066
1619089758.38593,9.088385,6.036800146102905
1619089758.40156,9.821232,6.052430152893066
1619089758.41718,10.70912,6.068050146102905
1619089758.43281,11.78375,6.083680152893066
1619089758.44844,12.80993,6.0993101596832275
1619089758.46406,13.44906,6.114930152893066
1619089758.47969,13.44018,6.1305601596832275
1619089758.49531,12.78688,6.146180152893066
1619089758.51094,11.73243,6.1618101596832275
1619089758.52656,10.64508,6.177430152893066
1619089758.54219,9.828671,6.1930601596832275
1619089758.55782,9.374201,6.208690166473389
1619089758.57344,9.203579,6.2243101596832275
1619089758.58907,9.128494,6.239940166473389
1619089758.60469,9.00528,6.2555601596832275
1619089758.62032,8.711203,6.271190166473389
1619089758.63594,8.171116,6.2868101596832275
1619089758.65157,7.271179,6.302440166473389
1619089758.6672,5.866016,6.31807017326355
1619089758.68282,3.893475,6.333690166473389
1619089758.69845,1.385208,6.34932017326355
1619089758.71407,-1.413197,6.364940166473389
1619089758.7297,-4.166878,6.38057017326355
1619089758.74532,-6.537064,6.396190166473389
1619089758.76095,-8.321674,6.41182017326355
1619089758.77658,-9.463322,6.427450180053711
1619089758.7922,-10.0639,6.44307017326355
1619089758.80783,-10.33206,6.458700180053711
1619089758.82345,-10.54843,6.47432017326355
1619089758.83908,-10.94912,6.489950180053711
1619089758.8547,-11.69307,6.50557017326355
1619089758.87033,-12.77282,6.521200180053711
1619089758.88596,-13.99727,6.536830186843872
1619089758.90158,-15.03295,6.552450180053711
1619089758.91721,-15.48499,6.568080186843872
1619089758.93283,-14.97045,6.583700180053711
1619089758.94846,-13.24049,6.599330186843872
1619089758.96408,-10.23385,6.614950180053711
1619089758.97971,-6.119751,6.630580186843872
1619089758.99534,-1.306847,6.646210193634033
1619089759.01096,3.604454,6.661830186843872
1619089759.02659,8.0019,6.677460193634033
1619089759.04221,11.39697,6.693080186843872
1619089759.05784,13.55672,6.708710193634033
1619089759.07346,14.54362,6.724330186843872
1619089759.08909,14.61227,6.739960193634033
1619089759.10472,14.08312,6.755590200424194
1619089759.12034,13.18839,6.771210193634033
1619089759.13597,12.0746,6.786840200424194
1619089759.15159,10.82089,6.802460193634033
1619089759.16722,9.534103,6.818090200424194
1619089759.18284,8.335892,6.833710193634033
1619089759.19847,7.325058,6.849340200424194
1619089759.2141,6.483688,6.864969968795776
1619089759.22972,5.720566,6.880590200424194
1619089759.24535,4.922623,6.896219968795776
1619089759.26097,4.031662,6.911840200424194
1619089759.2766,3.070084,6.927469968795776
1619089759.29222,2.094879,6.943090200424194
1619089759.30785,1.119507,6.958719968795776
1619089759.32348,0.07829285,6.9743499755859375
1619089759.3391,-1.122498,6.989969968795776
1619089759.35473,-2.490341,7.0055999755859375
1619089759.37035,-3.933472,7.021219968795776
1619089759.38598,-5.272202,7.0368499755859375
1619089759.4016,-6.372818,7.052469968795776
1619089759.41723,-7.265533,7.0680999755859375
1619089759.43286,-8.060608,7.083729982376099
1619089759.44848,-8.923843,7.0993499755859375
1619089759.46411,-9.904327,7.114979982376099
1619089759.47973,-10.90976,7.1305999755859375
1619089759.49536,-11.78961,7.146229982376099
1619089759.51098,-12.41124,7.1618499755859375
1619089759.52661,-12.73283,7.177479982376099
1619089759.54224,-12.80663,7.19310998916626
1619089759.55786,-12.7063,7.208729982376099
1619089759.57349,-12.48651,7.22435998916626
1619089759.58911,-12.16623,7.239979982376099
1619089759.60474,-11.7435,7.25560998916626
1619089759.62036,-11.22429,7.271229982376099
1619089759.63599,-10.61237,7.28685998916626
1619089759.65162,-9.874191,7.302489995956421
1619089759.66724,-8.888168,7.31810998916626
1619089759.68287,-7.491379,7.333739995956421
1619089759.69849,-5.533005,7.34935998916626
1619089759.71412,-2.966995,7.364989995956421
1619089759.72974,0.1087799,7.38060998916626
1619089759.74537,3.451691,7.396239995956421
1619089759.761,6.752243,7.411870002746582
1619089759.77662,9.71434,7.427489995956421
1619089759.79225,12.09669,7.443120002746582
1619089759.80787,13.75266,7.458739995956421
1619089759.8235,14.65421,7.474370002746582
1619089759.83912,14.89436,7.489989995956421
1619089759.85475,14.67589,7.505620002746582
1619089759.87038,14.23566,7.521250009536743
1619089759.886,13.78726,7.536870002746582
1619089759.90163,13.40265,7.552500009536743
1619089759.91725,13.01929,7.568120002746582
1619089759.93288,12.4808,7.583750009536743
1619089759.9485,11.64249,7.599370002746582
1619089759.96413,10.49814,7.615000009536743
1619089759.97976,9.196747,7.630630016326904
1619089759.99538,8.013397,7.646250009536743
1619089760.01101,7.215668,7.661880016326904
1619089760.02663,6.956848,7.677500009536743
1619089760.04226,7.184692,7.693130016326904
1619089760.05788,7.709961,7.708750009536743
1619089760.07351,8.299347,7.724380016326904
1619089760.08914,8.78363,7.740010023117065
1619089760.10476,9.079529,7.755630016326904
1619089760.12039,9.201569,7.771260023117065
1619089760.13601,9.151825,7.786880016326904
1619089760.15164,8.905762,7.802510023117065
1619089760.16726,8.423157,7.818130016326904
1619089760.18289,7.700928,7.833760023117065
1619089760.19852,6.81662,7.849390029907227
1619089760.21414,5.920197,7.865010023117065
1619089760.22977,5.214935,7.880640029907227
1619089760.24539,4.815155,7.896260023117065
1619089760.26102,4.684143,7.911890029907227
1619089760.27664,4.652405,7.927510023117065
1619089760.29227,4.444916,7.943140029907227
1619089760.3079,3.845673,7.958770036697388
1619089760.32352,2.763885,7.974390029907227
1619089760.33915,1.277435,7.990020036697388
1619089760.35477,-0.3811035,8.005640029907227
1619089760.3704,-1.918732,8.021270036697388
1619089760.38602,-3.042725,8.036890029907227
1619089760.40165,-3.519379,8.052520036697388
1619089760.41728,-3.187958,8.068150043487549
1619089760.4329,-1.999054,8.083770036697388
1619089760.44853,0.03909302,8.099400043487549
1619089760.46415,2.821014,8.115020036697388
1619089760.47978,6.108887,8.130650043487549
1619089760.4954,9.578552,8.146270036697388
1619089760.51103,12.82693,8.161900043487549
1619089760.52666,15.49127,8.17753005027771
1619089760.54228,17.29279,8.193150043487549
1619089760.55791,18.12714,8.20878005027771
1619089760.57353,18.10532,8.224400043487549
1619089760.58916,17.50223,8.24003005027771
1619089760.60478,16.68765,8.255650043487549
1619089760.62041,16.01157,8.27128005027771
1619089760.63604,15.72272,8.286910057067871
1619089760.65166,15.8851,8.30253005027771
1619089760.66729,16.39389,8.318160057067871
1619089760.68291,17.02246,8.33378005027771
1619089760.69854,17.50955,8.349410057067871
1619089760.71416,17.60696,8.36503005027771
1619089760.72979,17.14355,8.380660057067871
1619089760.74542,16.06668,8.396290063858032
1619089760.76104,14.45242,8.411910057067871
1619089760.77667,12.5853,8.427540063858032
1619089760.79229,10.80908,8.443160057067871
1619089760.80792,9.475159,8.458790063858032
1619089760.82354,8.772766,8.474410057067871
1619089760.83917,8.608948,8.490040063858032
1619089760.8548,8.650024,8.505670070648193
1619089760.87042,8.469391,8.521290063858032
1619089760.88605,7.708313,8.536920070648193
1619089760.90167,6.251526,8.552540063858032
1619089760.9173,4.230316,8.568170070648193
1619089760.93292,1.887878,8.583790063858032
1619089760.94855,-0.552887,8.599420070648193
1619089760.96418,-2.970032,8.615050077438354
1619089760.9798,-5.345947,8.630670070648193
1619089760.99543,-7.669617,8.646300077438354
1619089761.01105,-9.889404,8.661920070648193
1619089761.02668,-11.89233,8.677550077438354
1619089761.0423,-13.59433,8.693170070648193
1619089761.05793,-14.94928,8.708800077438354
1619089761.07356,-15.95963,8.724430084228516
1619089761.08918,-16.61288,8.740050077438354
1619089761.10481,-16.84839,8.755680084228516
1619089761.12043,-16.59818,8.771300077438354
1619089761.13606,-15.76593,8.786930084228516
1619089761.15169,-14.31396,8.802560091018677
1619089761.16731,-12.22357,8.818180084228516
1619089761.18294,-9.574646,8.833810091018677
1619089761.19856,-6.527588,8.849430084228516
1619089761.21419,-3.322021,8.865060091018677
1619089761.22981,-0.2524414,8.880680084228516
1619089761.24544,2.45401,8.896310091018677
1619089761.26107,4.66275,8.911940097808838
1619089761.27669,6.416229,8.927560091018677
1619089761.29232,7.836304,8.943190097808838
1619089761.30794,9.017151,8.958810091018677
1619089761.32357,9.962128,8.974440097808838
1619089761.33919,10.56934,8.990060091018677
1619089761.35482,10.71887,9.005690097808838
1619089761.37045,10.41403,9.021320104598999
1619089761.38607,9.842499,9.036940097808838
1619089761.4017,9.277252,9.052570104598999
1619089761.41732,8.936188,9.068190097808838
1619089761.43295,8.847717,9.083820104598999
1619089761.44857,8.811859,9.099440097808838
1619089761.4642,8.554138,9.115070104598999
1619089761.47983,7.899689,9.13070011138916
1619089761.49545,6.926178,9.146320104598999
1619089761.51108,5.914307,9.16195011138916
1619089761.5267,5.177521,9.177570104598999
1619089761.54233,4.87085,9.19320011138916
1619089761.55795,4.870911,9.208820104598999
1619089761.57358,4.840149,9.22445011138916
1619089761.58921,4.458649,9.240080118179321
1619089761.60483,3.596283,9.25570011138916
1619089761.62046,2.39563,9.271330118179321
1619089761.63608,1.162842,9.28695011138916
1619089761.65171,0.1729126,9.302580118179321
1619089761.66733,-0.4918823,9.31820011138916
1619089761.68296,-0.990387,9.333830118179321
1619089761.69859,-1.581085,9.349460124969482
1619089761.71421,-2.418976,9.365080118179321
1619089761.72984,-3.496185,9.380710124969482
1619089761.74546,-4.652374,9.396330118179321
1619089761.76109,-5.705688,9.411960124969482
1619089761.77671,-6.598114,9.427580118179321
1619089761.79234,-7.376495,9.443210124969482
1619089761.80797,-8.089539,9.458840131759644
1619089761.82359,-8.682922,9.474460124969482
1619089761.83922,-8.908661,9.490090131759644
1619089761.85484,-8.463287,9.505710124969482
1619089761.87047,-7.101898,9.521340131759644
1619089761.88609,-4.798584,9.536960124969482
1619089761.90172,-1.799591,9.552590131759644
1619089761.91735,1.453491,9.568220138549805
1619089761.93297,4.482025,9.583840131759644
1619089761.9486,6.911316,9.599470138549805
1619089761.96422,8.574646,9.615090131759644
1619089761.97985,9.507782,9.630720138549805
1619089761.99547,9.868317,9.646340131759644
1619089762.0111,9.861023,9.661970138549805
1619089762.02673,9.673401,9.677600145339966
1619089762.04235,9.443359,9.693220138549805
1619089762.05798,9.242981,9.708850145339966
1619089762.0736,9.050781,9.724470138549805
1619089762.08923,8.817078,9.740100145339966
1619089762.10485,8.464264,9.755720138549805
1619089762.12048,7.944763,9.771350145339966
1619089762.13611,7.272797,9.786980152130127
1619089762.15173,6.537537,9.802600145339966
1619089762.16736,5.84082,9.818230152130127
1619089762.18298,5.224548,9.833850145339966
1619089762.19861,4.600861,9.849480152130127
1619089762.21423,3.836151,9.865100145339966
1619089762.22986,2.808624,9.880730152130127
1619089762.24549,1.534851,9.896360158920288
1619089762.26111,0.2334595,9.911980152130127
1619089762.27674,-0.7999268,9.927610158920288
1619089762.29236,-1.331787,9.943230152130127
1619089762.30799,-1.363495,9.958860158920288
1619089762.32361,-1.177094,9.974480152130127
1619089762.33924,-1.142517,9.990110158920288
1619089762.35487,-1.552521,10.00574016571045
1619089762.37049,-2.410553,10.021360158920288
1619089762.38612,-3.437439,10.03699016571045
1619089762.40174,-4.246613,10.052610158920288
1619089762.41737,-4.581482,10.06824016571045
1619089762.43299,-4.454346,10.083860158920288
1619089762.44862,-4.14093,10.09949016571045
1619089762.46425,-4.015106,10.11512017250061
1619089762.47987,-4.33313,10.13074016571045
1619089762.4955,-5.133514,10.14637017250061
1619089762.51112,-6.269592,10.16199016571045
1619089762.52675,-7.48761,10.17762017250061
1619089762.54237,-8.560303,10.19324016571045
1619089762.558,-9.317047,10.20887017250061
1619089762.57363,-9.650787,10.224500179290771
1619089762.58925,-9.486115,10.24012017250061
1619089762.60488,-8.767944,10.255750179290771
1619089762.6205,-7.497803,10.27137017250061
1619089762.63613,-5.752258,10.287000179290771
1619089762.65175,-3.678589,10.30262017250061
1619089762.66738,-1.450348,10.318250179290771
1619089762.68301,0.7937927,10.333880186080933
1619089762.69863,2.946503,10.349500179290771
1619089762.71426,4.925354,10.365130186080933
1619089762.72988,6.616882,10.380750179290771
1619089762.74551,7.851868,10.396380186080933
1619089762.76113,8.446991,10.412000179290771
1619089762.77676,8.238892,10.427630186080933
1619089762.79239,7.23468,10.443260192871094
1619089762.80801,5.622406,10.458880186080933
1619089762.82364,3.687958,10.474510192871094
1619089762.83926,1.729431,10.490130186080933
1619089762.85489,-0.05993652,10.505760192871094
1619089762.87051,-1.644379,10.521380186080933
1619089762.88614,-3.044739,10.537010192871094
1619089762.90177,-4.268402,10.552640199661255
1619089762.91739,-5.215698,10.568260192871094
1619089762.93302,-5.71225,10.583890199661255
1619089762.94864,-5.594238,10.599510192871094
1619089762.96427,-4.823029,10.615140199661255
1619089762.97989,-3.564026,10.630760192871094
1619089762.99552,-2.086548,10.646390199661255
1619089763.01115,-0.6797791,10.662019968032837
1619089763.02677,0.4998474,10.677640199661255
1619089763.0424,1.421967,10.693269968032837
1619089763.05802,2.123413,10.708890199661255
1619089763.07365,2.618652,10.724519968032837
1619089763.08927,2.883514,10.740140199661255
1619089763.1049,2.888763,10.755769968032837
1619089763.12053,2.696259,10.771399974822998
1619089763.13615,2.492523,10.787019968032837
1619089763.15178,2.465363,10.802649974822998
1619089763.1674,2.717621,10.818269968032837
1619089763.18303,3.175781,10.833899974822998
1619089763.19865,3.644073,10.849519968032837
1619089763.21428,3.898804,10.865149974822998
1619089763.22991,3.859283,10.88077998161316
1619089763.24553,3.610077,10.896399974822998
1619089763.26116,3.383362,10.91202998161316
1619089763.27678,3.414429,10.927649974822998
1619089763.29241,3.851288,10.94327998161316
1619089763.30804,4.743164,10.95890998840332
1619089763.32366,6.040649,10.97452998161316
1619089763.33929,7.664551,10.99015998840332
1619089763.35491,9.523621,11.00577998161316
1619089763.37054,11.49817,11.02140998840332
1619089763.38616,13.40717,11.03702998161316
1619089763.40179,15.02936,11.05265998840332
1619089763.41742,16.17499,11.068289995193481
1619089763.43304,16.74146,11.08390998840332
1619089763.44867,16.78296,11.099539995193481
1619089763.46429,16.4577,11.11515998840332
1619089763.47992,15.95801,11.130789995193481
1619089763.49554,15.41772,11.14640998840332
1619089763.51117,14.88776,11.162039995193481
1619089763.5268,14.3869,11.177670001983643
1619089763.54242,13.91974,11.193289995193481
1619089763.55805,13.51843,11.208920001983643
1619089763.57367,13.17706,11.224539995193481
1619089763.5893,12.84274,11.240170001983643
1619089763.60492,12.35486,11.255789995193481
1619089763.62055,11.51309,11.271420001983643
1619089763.63618,10.19754,11.287050008773804
1619089763.6518,8.401703,11.302670001983643
1619089763.66743,6.313202,11.318300008773804
1619089763.68305,4.250793,11.333920001983643
1619089763.69868,2.580414,11.349550008773804
1619089763.7143,1.530853,11.365170001983643
1619089763.72993,1.16037,11.380800008773804
1619089763.74556,1.267456,11.396430015563965
1619089763.76118,1.54071,11.412050008773804
1619089763.77681,1.633453,11.427680015563965
1619089763.79243,1.313202,11.443300008773804
1619089763.80806,0.5621338,11.458930015563965
1619089763.82368,-0.4530029,11.474550008773804
1619089763.83931,-1.477386,11.490180015563965
1619089763.85494,-2.32135,11.505810022354126
1619089763.87056,-2.934875,11.521430015563965
1619089763.88619,-3.431152,11.537060022354126
1619089763.90181,-4.027039,11.552680015563965
1619089763.91744,-4.919769,11.568310022354126
1619089763.93306,-6.199005,11.583930015563965
1619089763.94869,-7.816986,11.599560022354126
1619089763.96432,-9.595947,11.615190029144287
1619089763.97994,-11.20544,11.630810022354126
1619089763.99557,-12.29636,11.646440029144287
1619089764.01119,-12.54587,11.662060022354126
1619089764.02682,-11.84033,11.677690029144287
1619089764.04244,-10.35196,11.693310022354126
1619089764.05807,-8.529846,11.708940029144287
1619089764.0737,-6.908417,11.724570035934448
1619089764.08932,-5.837433,11.740190029144287
1619089764.10495,-5.366791,11.755820035934448
1619089764.12057,-5.254059,11.771440029144287
1619089764.1362,-5.111847,11.787070035934448
1619089764.15182,-4.669739,11.802690029144287
1619089764.16745,-3.882721,11.818320035934448
1619089764.18308,-2.915771,11.83395004272461
1619089764.1987,-2.019196,11.849570035934448
1619089764.21433,-1.382843,11.86520004272461
1619089764.22995,-1.008423,11.880820035934448
1619089764.24558,-0.8197327,11.89645004272461
1619089764.2612,-0.6897583,11.912070035934448
1619089764.27683,-0.5535583,11.92770004272461
1619089764.29246,-0.4570313,11.94333004951477
1619089764.30808,-0.4735413,11.95895004272461
1619089764.32371,-0.6233215,11.97458004951477
1619089764.33933,-0.8077087,11.99020004272461
1619089764.35496,-0.8417664,12.00583004951477
1619089764.37058,-0.5341492,12.02145004272461
1619089764.38621,0.1749878,12.03708004951477
1619089764.40184,1.133087,12.052710056304932
1619089764.41746,1.986328,12.06833004951477
1619089764.43309,2.344238,12.083960056304932
1619089764.44871,1.9422,12.09958004951477
1619089764.46434,0.7744446,12.115210056304932
1619089764.47996,-0.8783875,12.13083004951477
1619089764.49559,-2.60022,12.146460056304932
1619089764.51122,-4.023071,12.162090063095093
1619089764.52684,-4.941956,12.177710056304932
1619089764.54247,-5.329285,12.193340063095093
1619089764.55809,-5.280426,12.208960056304932
1619089764.57372,-4.926117,12.224590063095093
1619089764.58934,-4.371155,12.240210056304932
1619089764.60497,-3.734833,12.255840063095093
1619089764.6206,-3.167267,12.271470069885254
1619089764.63622,-2.81662,12.287090063095093
1619089764.65185,-2.764008,12.302720069885254
1619089764.66747,-2.944733,12.318340063095093
1619089764.6831,-3.158997,12.333970069885254
1619089764.69872,-3.130157,12.349590063095093
1619089764.71435,-2.64859,12.365220069885254
1619089764.72998,-1.71524,12.380850076675415
1619089764.7456,-0.5417175,12.396470069885254
1619089764.76123,0.5281982,12.412100076675415
1619089764.77685,1.189362,12.427720069885254
1619089764.79248,1.288727,12.443350076675415
1619089764.8081,0.8911133,12.458970069885254
1619089764.82373,0.2420349,12.474600076675415
1619089764.83936,-0.3288574,12.490230083465576
1619089764.85498,-0.5638733,12.505850076675415
1619089764.87061,-0.3132629,12.521480083465576
1619089764.88623,0.4208374,12.537100076675415
1619089764.90186,1.503448,12.552730083465576
1619089764.91748,2.675415,12.568350076675415
1619089764.93311,3.63031,12.583980083465576
1619089764.94874,4.086731,12.599610090255737
1619089764.96436,3.912903,12.615230083465576
1619089764.97999,3.236816,12.630860090255737
1619089764.99561,2.431915,12.646480083465576
1619089765.01124,1.942108,12.662110090255737
1619089765.02686,2.125183,12.677730083465576
1619089765.04249,3.043701,12.693360090255737
1619089765.05812,4.48526,12.708990097045898
1619089765.07374,6.01593,12.724610090255737
1619089765.08937,7.179871,12.740240097045898
1619089765.10499,7.594879,12.755860090255737
1619089765.12062,7.044769,12.771490097045898
1619089765.13624,5.499847,12.787110090255737
1619089765.15187,3.115417,12.802740097045898
1619089765.1675,0.2340698,12.81837010383606
1619089765.18312,-2.744049,12.833990097045898
1619089765.19875,-5.420441,12.84962010383606
1619089765.21437,-7.497711,12.865240097045898
1619089765.23,-8.852722,12.88087010383606
1619089765.24562,-9.505035,12.896490097045898
1619089765.26125,-9.54718,12.91212010383606
1619089765.27688,-9.042908,12.92775011062622
1619089765.2925,-8.011292,12.94337010383606
1619089765.30813,-6.450409,12.95900011062622
1619089765.32375,-4.435455,12.97462010383606
1619089765.33938,-2.133575,12.99025011062622
1619089765.355,0.1818542,13.00587010383606
1619089765.37063,2.265747,13.02150011062622
1619089765.38626,3.922729,13.037130117416382
1619089765.40188,5.093628,13.05275011062622
1619089765.41751,5.805389,13.068380117416382
1619089765.43313,6.148651,13.08400011062622
1619089765.44876,6.271118,13.099630117416382
1619089765.46438,6.304932,13.11525011062622
1619089765.48001,6.396759,13.130880117416382
1619089765.49564,6.623779,13.146510124206543
1619089765.51126,7.016327,13.162130117416382
1619089765.52689,7.553864,13.177760124206543
1619089765.54251,8.200256,13.193380117416382
1619089765.55814,8.930542,13.209010124206543
1619089765.57377,9.68457,13.224640130996704
1619089765.58939,10.40939,13.240260124206543
1619089765.60502,11.00247,13.255890130996704
1619089765.62064,11.3764,13.271510124206543
1619089765.63627,11.52615,13.287140130996704
1619089765.65189,11.54099,13.302760124206543
1619089765.66752,11.60812,13.318390130996704
1619089765.68315,11.92557,13.334020137786865
1619089765.69877,12.57425,13.349640130996704
1619089765.7144,13.40118,13.365270137786865
1619089765.73002,14.04053,13.380890130996704
1619089765.74565,14.06009,13.396520137786865
1619089765.76127,13.1868,13.412140130996704
1619089765.7769,11.44342,13.427770137786865
1619089765.79253,9.150391,13.443400144577026
1619089765.80815,6.761108,13.459020137786865
1619089765.82378,4.643524,13.474650144577026
1619089765.8394,2.917664,13.490270137786865
1619089765.85503,1.418945,13.505900144577026
1619089765.87065,-0.1529846,13.521520137786865
1619089765.88628,-2.100891,13.537150144577026
1619089765.90191,-4.566833,13.552780151367188
1619089765.91753,-7.482941,13.568400144577026
1619089765.93316,-10.65601,13.584030151367188
1619089765.94878,-13.78,13.599650144577026
1619089765.96441,-16.48715,13.615280151367188
1619089765.98003,-18.37363,13.630900144577026
1619089765.99566,-19.06537,13.646530151367188
1619089766.01129,-18.23511,13.662160158157349
1619089766.02691,-15.77826,13.677780151367188
1619089766.04254,-11.85934,13.693410158157349
1619089766.05816,-6.899963,13.709030151367188
1619089766.07379,-1.497681,13.724660158157349
1619089766.08941,3.730835,13.740280151367188
1619089766.10504,8.274323,13.755910158157349
1619089766.12067,11.78772,13.77154016494751
1619089766.13629,14.07117,13.787160158157349
1619089766.15192,15.09726,13.80279016494751
1619089766.16754,14.90417,13.818410158157349
1619089766.18317,13.67746,13.83404016494751
1619089766.19879,11.67477,13.849660158157349
1619089766.21442,9.171448,13.86529016494751
1619089766.23005,6.335541,13.880920171737671
1619089766.24567,3.138885,13.89654016494751
1619089766.2613,-0.6412354,13.912170171737671
1619089766.27692,-5.278625,13.92779016494751
1619089766.29255,-10.90485,13.943420171737671
1619089766.30817,-17.37335,13.95904016494751
1619089766.3238,-24.17871,13.974670171737671
1619089766.33943,-30.4964,13.990300178527832
1619089766.35505,-35.32324,14.005920171737671
1619089766.37068,-37.64197,14.021550178527832
1619089766.3863,-36.64752,14.037170171737671
1619089766.40193,-31.97369,14.052800178527832
1619089766.41755,-23.90121,14.068420171737671
1619089766.43318,-13.44098,14.084050178527832
1619089766.44881,-2.207001,14.099680185317993
1619089766.46443,8.023743,14.115300178527832
1619089766.48006,15.78821,14.130930185317993
1619089766.49568,20.33612,14.146550178527832
1619089766.51131,21.76993,14.162180185317993
1619089766.52693,20.82779,14.177800178527832
1619089766.54256,18.51624,14.193430185317993
1619089766.55819,15.69519,14.209060192108154
1619089766.57381,12.91205,14.224680185317993
1619089766.58944,10.39474,14.240310192108154
1619089766.60506,8.167542,14.255930185317993
1619089766.62069,6.216858,14.271560192108154
1619089766.63631,4.508789,14.287180185317993
1619089766.65194,3.048767,14.302810192108154
1619089766.66757,1.779358,14.318440198898315
1619089766.68319,0.6472168,14.334060192108154
1619089766.69882,-0.4698181,14.349690198898315
1619089766.71444,-1.674225,14.365310192108154
1619089766.73007,-3.008911,14.380940198898315
1619089766.74569,-4.393402,14.396560192108154
1619089766.76132,-5.57843,14.412190198898315
1619089766.77695,-6.217468,14.427819967269897
1619089766.79257,-6.005585,14.443440198898315
1619089766.8082,-4.870941,14.459069967269897
1619089766.82382,-3.061646,14.474690198898315
1619089766.83945,-1.086792,14.490319967269897
1619089766.85507,0.5217285,14.505940198898315
1619089766.8707,1.41449,14.521569967269897
1619089766.88633,1.553284,14.537199974060059
1619089766.90195,1.224091,14.552819967269897
1619089766.91758,0.831543,14.568449974060059
1619089766.9332,0.7485352,14.584069967269897
1619089766.94883,1.130951,14.599699974060059
1619089766.96445,1.903992,14.615319967269897
1619089766.98008,2.790436,14.630949974060059
1619089766.99571,3.466949,14.64657998085022
1619089767.01133,3.653229,14.662199974060059
1619089767.02696,3.215698,14.67782998085022
1619089767.04258,2.293884,14.693449974060059
1619089767.05821,1.19693,14.70907998085022
1619089767.07383,0.3196716,14.724699974060059
1619089767.08946,-0.06472778,14.74032998085022
1619089767.10509,0.105957,14.75595998764038
1619089767.12071,0.6400757,14.77157998085022
1619089767.13634,1.25116,14.78720998764038
1619089767.15196,1.673676,14.80282998085022
1619089767.16759,1.797455,14.81845998764038
1619089767.18321,1.679077,14.83407998085022
1619089767.19884,1.424164,14.84970998764038
1619089767.21447,1.175903,14.865339994430542
1619089767.23009,1.033081,14.88095998764038
1619089767.24572,1.124207,14.896589994430542
1619089767.26134,1.546753,14.91220998764038
1619089767.27697,2.367004,14.927839994430542
1619089767.29259,3.504272,14.94345998764038
1619089767.30822,4.747559,14.959089994430542
1619089767.32385,5.819916,14.974720001220703
1619089767.33947,6.495819,14.990339994430542
1619089767.3551,6.707336,15.005970001220703
1619089767.37072,6.581879,15.021589994430542
1619089767.38635,6.34671,15.037220001220703
1619089767.40197,6.212097,15.052839994430542
1619089767.4176,6.26767,15.068470001220703
1619089767.43323,6.468384,15.084100008010864
1619089767.44885,6.674377,15.099720001220703
1619089767.46448,6.750153,15.115350008010864
1619089767.4801,6.545776,15.130970001220703
1619089767.49573,5.99054,15.146600008010864
1619089767.51135,5.071228,15.162220001220703
1619089767.52698,3.836548,15.177850008010864
1619089767.54261,2.444397,15.193480014801025
1619089767.55823,1.125397,15.209100008010864
1619089767.57386,0.1107178,15.224730014801025
1619089767.58948,-0.475708,15.240350008010864
1619089767.60511,-0.6375427,15.255980014801025
1619089767.62073,-0.5601807,15.271600008010864
1619089767.63636,-0.4661865,15.287230014801025
1619089767.65199,-0.536499,15.302860021591187
1619089767.66761,-0.8448792,15.318480014801025
1619089767.68324,-1.33548,15.334110021591187
1619089767.69886,-1.906738,15.349730014801025
1619089767.71449,-2.435181,15.365360021591187
1619089767.73011,-2.855438,15.380980014801025
1619089767.74574,-3.090637,15.396610021591187
1619089767.76137,-3.078552,15.412240028381348
1619089767.77699,-2.737976,15.427860021591187
1619089767.79262,-2.058075,15.443490028381348
1619089767.80824,-1.147156,15.459110021591187
1619089767.82387,-0.1992798,15.474740028381348
1619089767.83949,0.5940857,15.490360021591187
1619089767.85512,1.165405,15.505990028381348
1619089767.87075,1.646942,15.521620035171509
1619089767.88637,2.302094,15.537240028381348
1619089767.902,3.334076,15.552870035171509
1619089767.91762,4.759125,15.568490028381348
1619089767.93325,6.319794,15.584120035171509
1619089767.94887,7.583832,15.599740028381348
1619089767.9645,8.200745,15.615370035171509
1619089767.98013,8.045105,15.63100004196167
1619089767.99575,7.322021,15.646620035171509
1619089768.01138,6.409668,15.66225004196167
1619089768.027,5.676941,15.677870035171509
1619089768.04263,5.292969,15.69350004196167
1619089768.05825,5.19162,15.709120035171509
1619089768.07388,5.157776,15.72475004196167
1619089768.08951,4.958099,15.740380048751831
1619089768.10513,4.538605,15.75600004196167
1619089768.12076,3.984711,15.771630048751831
1619089768.13638,3.486633,15.78725004196167
1619089768.15201,3.177185,15.802880048751831
1619089768.16763,2.988373,15.81850004196167
1619089768.18326,2.688293,15.834130048751831
1619089768.19889,1.998199,15.849760055541992
1619089768.21451,0.7674255,15.865380048751831
1619089768.23014,-0.9328918,15.881010055541992
1619089768.24576,-2.823975,15.896630048751831
1619089768.26139,-4.590088,15.912260055541992
1619089768.27702,-6.008423,15.927890062332153
1619089768.29264,-7.029816,15.943510055541992
1619089768.30827,-7.755127,15.959140062332153
1619089768.32389,-8.298706,15.974760055541992
1619089768.33952,-8.705811,15.990390062332153
1619089768.35514,-8.940338,16.006010055541992
1619089768.37077,-8.941467,16.021640062332153
1619089768.3864,-8.710419,16.037270069122314
1619089768.40202,-8.346497,16.052890062332153
1619089768.41765,-7.951416,16.068520069122314
1619089768.43327,-7.602203,16.084140062332153
1619089768.4489,-7.293549,16.099770069122314
1619089768.46452,-6.988525,16.115390062332153
1619089768.48015,-6.66275,16.131020069122314
1619089768.49578,-6.344696,16.146650075912476
1619089768.5114,-6.095367,16.162270069122314
1619089768.52703,-5.915161,16.177900075912476
1619089768.54265,-5.787231,16.193520069122314
1619089768.55828,-5.647125,16.209150075912476
1619089768.5739,-5.439209,16.224770069122314
1619089768.58953,-5.146667,16.240400075912476
1619089768.60516,-4.768799,16.256030082702637
1619089768.62078,-4.301514,16.271650075912476
1619089768.63641,-3.730988,16.287280082702637
1619089768.65203,-3.049774,16.302900075912476
1619089768.66766,-2.268799,16.318530082702637
1619089768.68328,-1.476349,16.334150075912476
1619089768.69891,-0.7338562,16.349780082702637
1619089768.71454,-0.1227112,16.365410089492798
1619089768.73016,0.3623962,16.381030082702637
1619089768.74579,0.7761536,16.396660089492798
1619089768.76141,1.197418,16.412280082702637
1619089768.77704,1.667328,16.427910089492798
1619089768.79266,2.161224,16.443530082702637
1619089768.80829,2.603607,16.459160089492798
1619089768.82392,2.893127,16.47479009628296
1619089768.83954,2.983856,16.490410089492798
1619089768.85517,2.897705,16.50604009628296
1619089768.87079,2.699707,16.521660089492798
1619089768.88642,2.458954,16.53729009628296
1619089768.90204,2.176453,16.552910089492798
1619089768.91767,1.799561,16.56854009628296
1619089768.9333,1.259705,16.58417010307312
1619089768.94892,0.5327759,16.59979009628296
1619089768.96455,-0.349823,16.61542010307312
1619089768.98017,-1.292389,16.63104009628296
1619089768.9958,-2.228394,16.64667010307312
1619089769.01142,-3.141632,16.66229009628296
1619089769.02705,-4.032227,16.67792010307312
1619089769.04268,-4.912994,16.69355010986328
1619089769.0583,-5.781769,16.70917010307312
1619089769.07393,-6.611481,16.72480010986328
1619089769.08955,-7.379669,16.74042010307312
1619089769.10518,-8.112335,16.75605010986328
1619089769.1208,-8.804047,16.77167010307312
1619089769.13643,-9.41684,16.78730010986328
1619089769.15206,-9.834442,16.802930116653442
1619089769.16768,-9.893341,16.81855010986328
1619089769.18331,-9.501801,16.834180116653442
1619089769.19893,-8.685059,16.84980010986328
1619089769.21456,-7.621155,16.865430116653442
1619089769.23018,-6.562042,16.88105010986328
1619089769.24581,-5.717621,16.896680116653442
1619089769.26144,-5.154663,16.912310123443604
1619089769.27706,-4.839935,16.927930116653442
1619089769.29269,-4.650742,16.943560123443604
1619089769.30831,-4.439529,16.959180116653442
1619089769.32394,-4.12085,16.974810123443604
1619089769.33956,-3.648972,16.990430116653442
1619089769.35519,-3.043015,17.006060123443604
1619089769.37082,-2.408707,17.021690130233765
1619089769.38644,-1.873398,17.037310123443604
1619089769.40207,-1.544235,17.052940130233765
1619089769.41769,-1.446716,17.068560123443604
1619089769.43332,-1.505142,17.084190130233765
1619089769.44894,-1.612717,17.099810123443604
1619089769.46457,-1.713593,17.115440130233765
1619089769.4802,-1.829254,17.131070137023926
1619089769.49582,-2.010086,17.146690130233765
1619089769.51145,-2.271515,17.162320137023926
1619089769.52707,-2.534058,17.177940130233765
1619089769.5427,-2.644592,17.193570137023926
1619089769.55832,-2.478424,17.209190130233765
1619089769.57395,-2.047333,17.224820137023926
1619089769.58958,-1.495132,17.240450143814087
1619089769.6052,-0.9997559,17.256070137023926
1619089769.62083,-0.6725616,17.271700143814087
1619089769.63645,-0.5023041,17.287320137023926
1619089769.65208,-0.401886,17.302950143814087
1619089769.6677,-0.2883759,17.318570137023926
1619089769.68333,-0.1964111,17.334200143814087
1619089769.69896,-0.2367401,17.349830150604248
1619089769.71458,-0.5166016,17.365450143814087
1619089769.73021,-1.066864,17.381080150604248
1619089769.74583,-1.80571,17.396700143814087
1619089769.76146,-2.591629,17.412330150604248
1619089769.77708,-3.311539,17.427950143814087
1619089769.79271,-3.941467,17.443580150604248
1619089769.80834,-4.491241,17.45921015739441
1619089769.82396,-4.970535,17.474830150604248
1619089769.83959,-5.331146,17.49046015739441
1619089769.85521,-5.446655,17.506080150604248
1619089769.87084,-5.213684,17.52171015739441
1619089769.88646,-4.623032,17.537330150604248
1619089769.90209,-3.81105,17.55296015739441
1619089769.91772,-3.017258,17.56859016418457
1619089769.93334,-2.480377,17.58421015739441
1619089769.94897,-2.326035,17.59984016418457
1619089769.96459,-2.475311,17.61546015739441
1619089769.98022,-2.682678,17.63109016418457
1619089769.99584,-2.6073,17.64671015739441
1619089770.01147,-2.017593,17.66234016418457
1619089770.0271,-0.8905029,17.67797017097473
1619089770.04272,0.5622711,17.69359016418457
1619089770.05835,1.999924,17.70922017097473
1619089770.07397,3.099258,17.72484016418457
1619089770.0896,3.671265,17.74047017097473
1619089770.10522,3.742615,17.75609016418457
1619089770.12085,3.454483,17.77172017097473
1619089770.13648,3.003296,17.787350177764893
1619089770.1521,2.541245,17.80297017097473
1619089770.16773,2.19278,17.818600177764893
1619089770.18335,2.022415,17.83422017097473
1619089770.19898,2.067459,17.849850177764893
1619089770.2146,2.32634,17.86547017097473
1619089770.23023,2.745743,17.881100177764893
1619089770.24586,3.228409,17.896730184555054
1619089770.26148,3.602798,17.912350177764893
1619089770.27711,3.714615,17.927980184555054
1619089770.29273,3.467072,17.943600177764893
1619089770.30836,2.886917,17.959230184555054
1619089770.32398,2.074661,17.974850177764893
1619089770.33961,1.192505,17.990480184555054
1619089770.35524,0.3820801,18.006110191345215
1619089770.37086,-0.243927,18.021730184555054
1619089770.38649,-0.6234894,18.037360191345215
1619089770.40211,-0.7823029,18.052980184555054
1619089770.41774,-0.789917,18.068610191345215
1619089770.43337,-0.7506561,18.084240198135376
1619089770.44899,-0.7575836,18.099860191345215
1619089770.46462,-0.8666687,18.115490198135376
1619089770.48024,-1.019852,18.131110191345215
1619089770.49587,-1.056305,18.146740198135376
1619089770.51149,-0.8010559,18.162360191345215
1619089770.52712,-0.163681,18.177990198135376
1619089770.54275,0.7799225,18.193619966506958
1619089770.55837,1.821869,18.209240198135376
1619089770.574,2.675781,18.224869966506958
1619089770.58962,3.141541,18.240490198135376
1619089770.60525,3.215057,18.256119966506958
1619089770.62087,3.021164,18.271740198135376
1619089770.6365,2.719574,18.287369966506958
1619089770.65213,2.34494,18.30299997329712
1619089770.66775,1.810989,18.318619966506958
1619089770.68338,1.049286,18.33424997329712
1619089770.699,0.1602325,18.349869966506958
1619089770.71463,-0.5817871,18.36549997329712
1619089770.73025,-0.8320618,18.381119966506958
1619089770.74588,-0.4118652,18.39674997329712
1619089770.76151,0.5119019,18.41237998008728
1619089770.77713,1.482468,18.42799997329712
1619089770.79276,2.002182,18.44362998008728
1619089770.80838,1.828445,18.45924997329712
1619089770.82401,1.090118,18.47487998008728
1619089770.83963,0.1942444,18.49049997329712
1619089770.85526,-0.4446106,18.50612998008728
1619089770.87089,-0.628479,18.52175998687744
1619089770.88651,-0.3740387,18.53737998008728
1619089770.90214,0.1792145,18.55300998687744
1619089770.91776,0.9113464,18.56862998008728
1619089770.93339,1.837387,18.58425998687744
1619089770.94901,3.010574,18.59987998008728
1619089770.96464,4.393967,18.61550998687744
1619089770.98027,5.83194,18.631139993667603
1619089770.99589,7.096298,18.64675998687744
1619089771.01152,7.971771,18.662389993667603
1619089771.02714,8.40477,18.67800998687744
1619089771.04277,8.507996,18.693639993667603
1619089771.05839,8.544342,18.70925998687744
1619089771.07402,8.793869,18.724889993667603
1619089771.08965,9.442337,18.740520000457764
1619089771.10527,10.45705,18.756139993667603
1619089771.1209,11.59534,18.771770000457764
1619089771.13652,12.44829,18.787389993667603
1619089771.15215,12.62556,18.803020000457764
1619089771.16777,11.95856,18.818639993667603
1619089771.1834,10.58502,18.834270000457764
1619089771.19903,8.925735,18.849900007247925
1619089771.21465,7.464722,18.865520000457764
1619089771.23028,6.516556,18.881150007247925
1619089771.2459,6.108536,18.896770000457764
1619089771.26153,5.979828,18.912400007247925
1619089771.27715,5.708908,18.928020000457764
1619089771.29278,4.901306,18.943650007247925
1619089771.30841,3.348846,18.959280014038086
1619089771.32403,1.064026,18.974900007247925
1619089771.33966,-1.680542,18.990530014038086
1619089771.35528,-4.4879,19.006150007247925
1619089771.37091,-6.948196,19.021780014038086
1619089771.38653,-8.785156,19.037400007247925
1619089771.40216,-10.0533,19.053030014038086
1619089771.41779,-11.27193,19.068660020828247
1619089771.43341,-13.21095,19.084280014038086
1619089771.44904,-16.50172,19.099910020828247
1619089771.46466,-21.23575,19.115530014038086
1619089771.48029,-26.72638,19.131160020828247
1619089771.49591,-31.71544,19.146780014038086
1619089771.51154,-34.94171,19.162410020828247
1619089771.52717,-35.8974,19.178040027618408
1619089771.54279,-35.07422,19.193660020828247
1619089771.55842,-33.78897,19.209290027618408
1619089771.57404,-33.55823,19.224910020828247
1619089771.58967,-35.26515,19.240540027618408
1619089771.60529,-38.89229,19.256160020828247
1619089771.62092,-43.62196,19.271790027618408
1619089771.63655,-48.35544,19.28742003440857
1619089771.65217,-51.90485,19.303040027618408
1619089771.6678,-52.77016,19.31867003440857
1619089771.68342,-49.29613,19.334290027618408
1619089771.69905,-40.33054,19.34992003440857
1619089771.71467,-26.48436,19.365540027618408
1619089771.7303,-10.99301,19.38117003440857
1619089771.74593,0.7241211,19.39680004119873
1619089771.76155,3.106125,19.41242003440857
1619089771.77718,-6.773666,19.42805004119873
1619089771.7928,-27.3233,19.44367003440857
1619089771.80843,-52.49075,19.45930004119873
1619089771.82405,-74.5208,19.47492003440857
1619089771.83968,-87.11809,19.49055004119873
1619089771.85531,-87.61491,19.50618004798889
1619089771.87093,-76.91017,19.52180004119873
1619089771.88656,-57.84837,19.53743004798889
1619089771.90218,-33.408,19.55305004119873
1619089771.91781,-5.843338,19.56868004798889
1619089771.93343,22.84909,19.58430004119873
1619089771.94906,50.67307,19.59993004798889
1619089771.96469,74.89265,19.615560054779053
1619089771.98031,92.82619,19.63118004798889
1619089771.99594,103.0168,19.646810054779053
1619089772.01156,106.1834,19.66243004798889
1619089772.02719,104.8024,19.678060054779053
1619089772.04281,102.1431,19.69368004798889
1619089772.05844,101.1946,19.709310054779053
1619089772.07407,103.7966,19.724940061569214
1619089772.08969,111.2816,19.740560054779053
1619089772.10532,123.7694,19.756190061569214
1619089772.12094,140.5166,19.771810054779053
1619089772.13657,159.9767,19.787440061569214
1619089772.15219,180.1243,19.803060054779053
1619089772.16782,198.663,19.818690061569214
1619089772.18345,213.2882,19.834320068359375
1619089772.19907,222.3881,19.849940061569214
1619089772.2147,225.3384,19.865570068359375
1619089772.23032,223.7162,19.881190061569214
1619089772.24595,219.8157,19.896820068359375
1619089772.26157,215.6124,19.912440061569214
1619089772.2772,211.4515,19.928070068359375
1619089772.29283,205.9532,19.943700075149536
1619089772.30845,196.6838,19.959320068359375
1619089772.32408,181.4838,19.974950075149536
1619089772.3397,160.1152,19.990570068359375
1619089772.35533,129.1187,20.006200075149536
1619089772.37095,89.76826,20.021820068359375
1619089772.38658,46.37368,20.037450075149536
1619089772.40221,4.206795,20.053080081939697
1619089772.41783,-33.21305,20.068700075149536
1619089772.43346,-64.66524,20.084330081939697
1619089772.44908,-89.89915,20.099950075149536
1619089772.46471,-110.2236,20.115580081939697
1619089772.48033,-125.7393,20.131200075149536
1619089772.49596,-136.1807,20.146830081939697
1619089772.51159,-141.2308,20.16246008872986
1619089772.52721,-142.2506,20.178080081939697
1619089772.54284,-140.6631,20.19371008872986
1619089772.55846,-138.7633,20.209330081939697
1619089772.57409,-138.2715,20.22496008872986
1619089772.58971,-139.7051,20.240580081939697
1619089772.60534,-142.5682,20.25621008872986
1619089772.62097,-145.5761,20.27184009552002
1619089772.63659,-147.5344,20.28746008872986
1619089772.65222,-147.1483,20.30309009552002
1619089772.66784,-144.0752,20.31871008872986
1619089772.68347,-138.8229,20.33434009552002
1619089772.6991,-132.6215,20.34997010231018
1619089772.71472,-126.6109,20.36559009552002
1619089772.73035,-121.3891,20.38122010231018
1619089772.74597,-117.0062,20.39684009552002
1619089772.7616,-112.9721,20.41247010231018
1619089772.77722,-108.8204,20.42809009552002
1619089772.79285,-103.9082,20.44372010231018
1619089772.80848,-98.02387,20.459350109100342
1619089772.8241,-91.30244,20.47497010231018
1619089772.83973,-84.20881,20.490600109100342
1619089772.85535,-77.13406,20.50622010231018
1619089772.87098,-70.25557,20.521850109100342
1619089772.8866,-63.6452,20.53747010231018
1619089772.90223,-57.23592,20.553100109100342
1619089772.91786,-51.16129,20.568730115890503
1619089772.93348,-45.46324,20.584350109100342
1619089772.94911,-40.2901,20.599980115890503
1619089772.96473,-35.7782,20.615600109100342
1619089772.98036,-32.02661,20.631230115890503
1619089772.99598,-28.8812,20.646850109100342
1619089773.01161,-25.97346,20.662480115890503
1619089773.02724,-22.95596,20.678110122680664
1619089773.04286,-19.59108,20.693730115890503
1619089773.05849,-15.96532,20.709360122680664
1619089773.07411,-12.31856,20.724980115890503
1619089773.08974,-8.962494,20.740610122680664
1619089773.10536,-6.069031,20.756230115890503
1619089773.12099,-3.698135,20.771860122680664
1619089773.13662,-1.766029,20.787490129470825
1619089773.15224,-0.1738281,20.803110122680664
1619089773.16787,1.083084,20.818740129470825
1619089773.18349,2.010391,20.834360122680664
1619089773.19912,2.672813,20.849990129470825
1619089773.21474,3.254829,20.865610122680664
1619089773.23037,4.031952,20.881240129470825
1619089773.246,5.265945,20.896870136260986
1619089773.26162,7.008507,20.912490129470825
1619089773.27725,9.108231,20.928120136260986
1619089773.29287,11.21669,20.943740129470825
1619089773.3085,12.99926,20.959370136260986
1619089773.32412,14.25437,20.974990129470825
1619089773.33975,14.95609,20.990620136260986
1619089773.35538,15.20925,21.006250143051147
1619089773.371,15.13171,21.021870136260986
1619089773.38663,14.78141,21.037500143051147
1619089773.40225,14.20739,21.053120136260986
1619089773.41788,13.43835,21.068750143051147
1619089773.4335,12.55125,21.084370136260986
1619089773.44913,11.66806,21.100000143051147
1619089773.46476,10.92036,21.11563014984131
1619089773.48038,10.36042,21.131250143051147
1619089773.49601,9.968414,21.14688014984131
1619089773.51163,9.666496,21.162500143051147
1619089773.52726,9.304237,21.17813014984131
1619089773.54288,8.72802,21.193750143051147
1619089773.55851,7.842888,21.20938014984131
1619089773.57414,6.655609,21.22501015663147
1619089773.58976,5.314415,21.24063014984131
1619089773.60539,4.047897,21.25626015663147
1619089773.62101,3.111206,21.27188014984131
1619089773.63664,2.662971,21.28751015663147
1619089773.65226,2.652756,21.30313014984131
1619089773.66789,2.84182,21.31876015663147
1619089773.68352,2.890427,21.33439016342163
1619089773.69914,2.555878,21.35001015663147
1619089773.71477,1.777054,21.36564016342163
1619089773.73039,0.693203,21.38126015663147
1619089773.74602,-0.4742012,21.39689016342163
1619089773.76164,-1.570629,21.41251015663147
1619089773.77727,-2.533642,21.42814016342163
1619089773.7929,-3.44894,21.443770170211792
1619089773.80852,-4.363583,21.45939016342163
1619089773.82415,-5.229565,21.475020170211792
1619089773.83977,-5.894852,21.49064016342163
1619089773.8554,-6.156189,21.506270170211792
1619089773.87102,-5.842484,21.52189016342163
1619089773.88665,-4.9231,21.537520170211792
1619089773.90228,-3.500874,21.553150177001953
1619089773.9179,-1.804913,21.568770170211792
1619089773.93353,-0.162941,21.584400177001953
1619089773.94915,1.123928,21.600020170211792
1619089773.96478,1.84338,21.615650177001953
1619089773.9804,1.980114,21.631270170211792
1619089773.99603,1.736927,21.646900177001953
1619089774.01166,1.473305,21.662530183792114
1619089774.02728,1.512379,21.678150177001953
1619089774.04291,1.966743,21.693780183792114
1619089774.05853,2.637917,21.709400177001953
1619089774.07416,3.138496,21.725030183792114
1619089774.08978,3.105194,21.740650177001953
1619089774.10541,2.41888,21.756280183792114
1619089774.12104,1.280621,21.771910190582275
1619089774.13666,0.106842,21.787530183792114
1619089774.15229,-0.7025833,21.803160190582275
1619089774.16791,-0.9906616,21.818780183792114
1619089774.18354,-0.9005241,21.834410190582275
1619089774.19916,-0.754425,21.850030183792114
1619089774.21479,-0.8209248,21.865660190582275
1619089774.23042,-1.168982,21.881290197372437
1619089774.24604,-1.689653,21.896910190582275
1619089774.26167,-2.186207,21.912540197372437
1619089774.27729,-2.532117,21.928160190582275
1619089774.29292,-2.734221,21.943790197372437
1619089774.30854,-2.863755,21.959410190582275
1619089774.32417,-2.940546,21.975040197372437
1619089774.3398,-2.893464,21.99066996574402
1619089774.35542,-2.612123,22.006290197372437
1619089774.37105,-2.034032,22.02191996574402
1619089774.38667,-1.225162,22.037540197372437
1619089774.4023,-0.3645411,22.05316996574402
1619089774.41792,0.338434,22.068790197372437
1619089774.43355,0.7172202,22.08441996574402
1619089774.44918,0.7475219,22.10004997253418
1619089774.4648,0.5151191,22.11566996574402
1619089774.48043,0.1876962,22.13129997253418
1619089774.49605,-0.08674908,22.14691996574402
1619089774.51168,-0.2143149,22.16254997253418
1619089774.5273,-0.2439966,22.17816996574402
1619089774.54293,-0.2822104,22.19379997253418
1619089774.55856,-0.4964342,22.20942997932434
1619089774.57418,-0.9125834,22.22504997253418
1619089774.58981,-1.365681,22.24067997932434
1619089774.60543,-1.46775,22.25629997253418
1619089774.62106,-0.7663307,22.27192997932434
1619089774.63668,1.02881,22.28754997253418
1619089774.65231,3.847822,22.30317997932434
1619089774.66794,7.195513,22.318809986114502
1619089774.68356,10.36553,22.33442997932434
1619089774.69919,12.72614,22.350059986114502
1619089774.71481,14.03006,22.36567997932434
1619089774.73044,14.45906,22.381309986114502
1619089774.74606,14.44039,22.39692997932434
1619089774.76169,14.34091,22.412559986114502
1619089774.77732,14.20672,22.428189992904663
1619089774.79294,13.79687,22.443809986114502
1619089774.80857,12.79365,22.459439992904663
1619089774.82419,11.08246,22.475059986114502
1619089774.83982,8.876091,22.490689992904663
1619089774.85544,6.643543,22.506309986114502
1619089774.87107,4.821732,22.521939992904663
1619089774.8867,3.623703,22.537569999694824
1619089774.90232,2.940144,22.553189992904663
1619089774.91795,2.504288,22.568819999694824
1619089774.93357,2.116146,22.584439992904663
1619089774.9492,1.768192,22.600069999694824
1619089774.96482,1.609951,22.615689992904663
1619089774.98045,1.738579,22.631319999694824
1619089774.99608,2.041332,22.646950006484985
1619089775.0117,2.202629,22.662569999694824
1619089775.02733,1.889637,22.678200006484985
1619089775.04295,1.037277,22.693819999694824
1619089775.05858,-0.0921936,22.709450006484985
1619089775.0742,-0.9873619,22.725069999694824
1619089775.08983,-1.213207,22.740700006484985
1619089775.10546,-0.6542091,22.756330013275146
1619089775.12108,0.3727875,22.771950006484985
1619089775.13671,1.2962,22.787580013275146
1619089775.15233,1.616028,22.803200006484985
1619089775.16796,1.112293,22.818830013275146
1619089775.18358,-0.05758667,22.834450006484985
1619089775.19921,-1.53299,22.850080013275146
1619089775.21484,-2.986099,22.865710020065308
1619089775.23046,-4.336967,22.881330013275146
1619089775.24609,-5.714211,22.896960020065308
1619089775.26171,-7.295517,22.912580013275146
1619089775.27734,-9.124474,22.928210020065308
1619089775.29297,-11.01189,22.94384002685547
1619089775.30859,-12.62721,22.959460020065308
1619089775.32422,-13.66367,22.97509002685547
1619089775.33984,-14.02283,22.990710020065308
1619089775.35547,-13.79958,23.00634002685547
1619089775.37109,-13.19784,23.021960020065308
1619089775.38672,-12.3414,23.03759002685547
1619089775.40235,-11.22379,23.05322003364563
1619089775.41797,-9.756866,23.06884002685547
1619089775.4336,-7.91674,23.08447003364563
1619089775.44922,-5.804642,23.10009002685547
1619089775.46485,-3.686226,23.11572003364563
1619089775.48047,-1.82975,23.13134002685547
1619089775.4961,-0.3829346,23.14697003364563
1619089775.51173,0.6500549,23.16260004043579
1619089775.52735,1.386742,23.17822003364563
1619089775.54298,1.966492,23.19385004043579
1619089775.5586,2.443024,23.20947003364563
1619089775.57423,2.807251,23.22510004043579
1619089775.58985,3.016693,23.24072003364563
1619089775.60548,3.066109,23.25635004043579
1619089775.62111,2.977341,23.271980047225952
1619089775.63673,2.797836,23.28760004043579
1619089775.65236,2.585999,23.303230047225952
1619089775.66798,2.401657,23.31885004043579
1619089775.68361,2.314911,23.334480047225952
1619089775.69923,2.422005,23.35010004043579
1619089775.71486,2.7827,23.365730047225952
1619089775.73049,3.407852,23.381360054016113
1619089775.74611,4.161903,23.396980047225952
1619089775.76174,4.844154,23.412610054016113
1619089775.77736,5.242065,23.428230047225952
1619089775.79299,5.210686,23.443860054016113
1619089775.80861,4.684166,23.459480047225952
1619089775.82424,3.699356,23.475110054016113
1619089775.83987,2.361214,23.490740060806274
1619089775.85549,0.7934418,23.506360054016113
1619089775.87112,-0.8445129,23.521990060806274
1619089775.88674,-2.374474,23.537610054016113
1619089775.90237,-3.605141,23.553240060806274
1619089775.91799,-4.373779,23.568860054016113
1619089775.93362,-4.624641,23.584490060806274
1619089775.94925,-4.477486,23.600120067596436
1619089775.96487,-4.227219,23.615740060806274
1619089775.9805,-4.308533,23.631370067596436
1619089775.99612,-5.099686,23.646990060806274
1619089776.01175,-6.774803,23.662620067596436
1619089776.02737,-9.163445,23.678240060806274
1619089776.043,-11.75797,23.693870067596436
1619089776.05863,-13.90008,23.709500074386597
1619089776.07425,-15.01313,23.725120067596436
1619089776.08988,-14.86166,23.740750074386597
1619089776.1055,-13.60855,23.756370067596436
1619089776.12113,-11.7139,23.772000074386597
1619089776.13675,-9.688721,23.787620067596436
1619089776.15238,-7.844101,23.803250074386597
1619089776.16801,-6.211014,23.818880081176758
1619089776.18363,-4.644287,23.834500074386597
1619089776.19926,-2.995605,23.850130081176758
1619089776.21488,-1.27037,23.865750074386597
1619089776.23051,0.3922729,23.881380081176758
1619089776.24613,1.804047,23.897000074386597
1619089776.26176,2.886642,23.912630081176758
1619089776.27739,3.725235,23.92826008796692
1619089776.29301,4.505493,23.943880081176758
1619089776.30864,5.379059,23.95951008796692
1619089776.32426,6.357437,23.975130081176758
1619089776.33989,7.30751,23.99076008796692
1619089776.35551,8.029068,24.006380081176758
1619089776.37114,8.396622,24.02201008796692
1619089776.38677,8.436554,24.03764009475708
1619089776.40239,8.314835,24.05326008796692
1619089776.41802,8.242706,24.06889009475708
1619089776.43364,8.35968,24.08451008796692
1619089776.44927,8.670731,24.10014009475708
1619089776.46489,9.081543,24.11576008796692
1619089776.48052,9.424011,24.13139009475708
1619089776.49615,9.552887,24.14702010154724
1619089776.51177,9.398407,24.16264009475708
1619089776.5274,8.980011,24.17827010154724
1619089776.54302,8.3927,24.19389009475708
1619089776.55865,7.700012,24.20952010154724
1619089776.57427,6.884766,24.22514009475708
1619089776.5899,5.875946,24.24077010154724
1619089776.60553,4.600479,24.256400108337402
1619089776.62115,3.038574,24.27202010154724
1619089776.63678,1.288971,24.287650108337402
1619089776.6524,-0.4660034,24.30327010154724
1619089776.66803,-2.039581,24.318900108337402
1619089776.68365,-3.321243,24.33452010154724
1619089776.69928,-4.334244,24.350150108337402
1619089776.71491,-5.166245,24.365780115127563
1619089776.73053,-5.91925,24.381400108337402
1619089776.74616,-6.65625,24.397030115127563
1619089776.76178,-7.40715,24.412650108337402
1619089776.77741,-8.266479,24.428280115127563
1619089776.79303,-9.423416,24.443900108337402
1619089776.80866,-11.08946,24.459530115127563
1619089776.82429,-13.33467,24.475160121917725
1619089776.83991,-15.92912,24.490780115127563
1619089776.85554,-18.33469,24.506410121917725
1619089776.87116,-19.88332,24.522030115127563
1619089776.88679,-20.11459,24.537660121917725
1619089776.90241,-18.98914,24.553280115127563
1619089776.91804,-16.90677,24.568910121917725
1619089776.93367,-14.53284,24.584540128707886
1619089776.94929,-12.44388,24.600160121917725
1619089776.96492,-10.88643,24.615790128707886
1619089776.98054,-9.770065,24.631410121917725
1619089776.99617,-8.817245,24.647040128707886
1619089777.01179,-7.83493,24.662660121917725
1619089777.02742,-6.829956,24.678290128707886
1619089777.04305,-5.946671,24.693920135498047
1619089777.05867,-5.288651,24.709540128707886
1619089777.0743,-4.839981,24.725170135498047
1619089777.08992,-4.451935,24.740790128707886
1619089777.10555,-3.957306,24.756420135498047
1619089777.12117,-3.273422,24.772040128707886
1619089777.1368,-2.427475,24.787670135498047
1619089777.15243,-1.49231,24.803300142288208
1619089777.16805,-0.5134888,24.818920135498047
1619089777.18368,0.5227661,24.834550142288208
1619089777.1993,1.67868,24.850170135498047
1619089777.21493,3.020111,24.865800142288208
1619089777.23055,4.613068,24.881420135498047
1619089777.24618,6.497925,24.897050142288208
1619089777.26181,8.707428,24.91268014907837
1619089777.27743,11.16492,24.928300142288208
1619089777.29306,13.68542,24.94393014907837
1619089777.30868,15.99496,24.959550142288208
1619089777.32431,17.79724,24.97518014907837
1619089777.33993,18.92593,24.990800142288208
1619089777.35556,19.40799,25.00643014907837
1619089777.37119,19.42694,25.02206015586853
1619089777.38681,19.20743,25.03768014907837
1619089777.40244,18.91644,25.05331015586853
1619089777.41806,18.61194,25.06893014907837
1619089777.43369,18.29916,25.08456015586853
1619089777.44931,18.04605,25.10018014907837
1619089777.46494,18.00204,25.11581015586853
1619089777.48057,18.33401,25.13144016265869
1619089777.49619,19.10645,25.14706015586853
1619089777.51182,20.17767,25.16269016265869
1619089777.52744,21.23007,25.17831015586853
1619089777.54307,21.87799,25.19394016265869
1619089777.5587,21.85544,25.209570169448853
1619089777.57432,21.12161,25.22519016265869
1619089777.58995,19.85068,25.240820169448853
1619089777.60557,18.33853,25.25644016265869
1619089777.6212,16.87772,25.272070169448853
1619089777.63682,15.64813,25.28769016265869
1619089777.65245,14.68579,25.303320169448853
1619089777.66808,13.88956,25.318950176239014
1619089777.6837,13.11484,25.334570169448853
1619089777.69933,12.26056,25.350200176239014
1619089777.71495,11.30054,25.365820169448853
1619089777.73058,10.28711,25.381450176239014
1619089777.7462,9.307373,25.397070169448853
1619089777.76183,8.455688,25.412700176239014
1619089777.77746,7.750336,25.428330183029175
1619089777.79308,7.174377,25.443950176239014
1619089777.80871,6.689972,25.459580183029175
1619089777.82433,6.238678,25.475200176239014
1619089777.83996,5.762939,25.490830183029175
1619089777.85558,5.200928,25.506450176239014
1619089777.87121,4.501892,25.522080183029175
1619089777.88684,3.633301,25.537710189819336
1619089777.90246,2.655609,25.553330183029175
1619089777.91809,1.754089,25.568960189819336
1619089777.93371,1.183411,25.584580183029175
1619089777.94934,1.167603,25.600210189819336
1619089777.96496,1.778656,25.615830183029175
1619089777.98059,2.834503,25.631460189819336
1619089777.99622,3.968536,25.647090196609497
1619089778.01184,4.804413,25.662710189819336
1619089778.02747,5.131287,25.678340196609497
1619089778.04309,5.010223,25.693960189819336
1619089778.05872,4.697723,25.709590196609497
1619089778.07434,4.525818,25.725210189819336
1619089778.08997,4.710571,25.740840196609497
1619089778.1056,5.25592,25.756470203399658
1619089778.12122,5.961487,25.772090196609497
1619089778.13685,6.545258,25.787720203399658
1619089778.15247,6.747101,25.803340196609497
1619089778.1681,6.428741,25.818970203399658
1619089778.18372,5.623749,25.834590196609497
1619089778.19935,4.458374,25.850220203399658
1619089778.21498,3.109894,25.86584997177124
1619089778.2306,1.709808,25.881470203399658
1619089778.24623,0.321106,25.89709997177124
1619089778.26185,-1.051361,25.912720203399658
1619089778.27748,-2.426849,25.92834997177124
1619089778.2931,-3.836212,25.943970203399658
1619089778.30873,-5.293549,25.95959997177124
1619089778.32436,-6.794525,25.9752299785614
1619089778.33998,-8.300323,25.99084997177124
1619089778.35561,-9.74588,26.0064799785614
1619089778.37123,-10.97525,26.02209997177124
1619089778.38686,-11.80664,26.0377299785614
1619089778.40248,-12.0759,26.05334997177124
1619089778.41811,-11.73187,26.0689799785614
1619089778.43374,-10.90411,26.084609985351562
1619089778.44936,-9.87677,26.1002299785614
1619089778.46499,-8.962006,26.115859985351562
1619089778.48061,-8.392151,26.1314799785614
1619089778.49624,-8.17984,26.147109985351562
1619089778.51186,-8.126617,26.1627299785614
1619089778.52749,-7.934631,26.178359985351562
1619089778.54312,-7.361908,26.193989992141724
1619089778.55874,-6.33136,26.209609985351562
1619089778.57437,-5.008698,26.225239992141724
1619089778.58999,-3.648285,26.240859985351562
1619089778.60562,-2.530609,26.256489992141724
1619089778.62124,-1.797943,26.272109985351562
1619089778.63687,-1.445343,26.287739992141724
1619089778.6525,-1.338715,26.303369998931885
1619089778.66812,-1.309021,26.318989992141724
1619089778.68375,-1.190125,26.334619998931885
1619089778.69937,-0.8672791,26.350239992141724
1619089778.715,-0.2889099,26.365869998931885
1619089778.73062,0.5269165,26.381489992141724
1619089778.74625,1.490295,26.397119998931885
1619089778.76188,2.395599,26.412750005722046
1619089778.7775,3.008667,26.428369998931885
1619089778.79313,3.136993,26.444000005722046
1619089778.80875,2.7258,26.459619998931885
1619089778.82438,1.933197,26.475250005722046
1619089778.84,1.062622,26.490869998931885
1619089778.85563,0.4554138,26.506500005722046
1619089778.87126,0.3579102,26.522130012512207
1619089778.88688,0.7865601,26.537750005722046
1619089778.90251,1.546387,26.553380012512207
1619089778.91813,2.283813,26.569000005722046
1619089778.93376,2.618134,26.584630012512207
1619089778.94938,2.277435,26.600250005722046
1619089778.96501,1.180664,26.615880012512207
1619089778.98064,-0.5977173,26.631510019302368
1619089778.99626,-2.836029,26.647130012512207
1619089779.01189,-5.226898,26.662760019302368
1619089779.02751,-7.464844,26.678380012512207
1619089779.04314,-9.273346,26.694010019302368
1619089779.05876,-10.43494,26.709630012512207
1619089779.07439,-10.8642,26.725260019302368
1619089779.09002,-10.58664,26.74089002609253
1619089779.10564,-9.734314,26.756510019302368
1619089779.12127,-8.48645,26.77214002609253
1619089779.13689,-7.03009,26.787760019302368
1619089779.15252,-5.483032,26.80339002609253
1619089779.16814,-3.92981,26.819010019302368
1619089779.18377,-2.409088,26.83464002609253
1619089779.1994,-0.93396,26.85027003288269
1619089779.21502,0.4344788,26.86589002609253
1619089779.23065,1.617371,26.88152003288269
1619089779.24627,2.553345,26.89714002609253
1619089779.2619,3.213867,26.91277003288269
1619089779.27752,3.653259,26.92839002609253
1619089779.29315,3.970337,26.94402003288269
1619089779.30878,4.244415,26.95965003967285
1619089779.3244,4.507202,26.97527003288269
1619089779.34003,4.713684,26.99090003967285
1619089779.35565,4.77121,27.00652003288269
1619089779.37128,4.607788,27.02215003967285
1619089779.3869,4.245239,27.03777003288269
1619089779.40253,3.773895,27.05340003967285
1619089779.41816,3.335175,27.069030046463013
1619089779.43378,3.04187,27.08465003967285
1619089779.44941,2.884277,27.100280046463013
1619089779.46503,2.770386,27.11590003967285
1619089779.48066,2.556335,27.131530046463013
1619089779.49628,2.107727,27.14715003967285
1619089779.51191,1.383972,27.162780046463013
1619089779.52754,0.4034729,27.178410053253174
1619089779.54316,-0.7819824,27.194030046463013
1619089779.55879,-2.083344,27.209660053253174
1619089779.57441,-3.340942,27.225280046463013
1619089779.59004,-4.383392,27.240910053253174
1619089779.60566,-5.02597,27.256530046463013
1619089779.62129,-5.198669,27.272160053253174
1619089779.63692,-5.019379,27.287790060043335
1619089779.65254,-4.792084,27.303410053253174
1619089779.66817,-4.946075,27.319040060043335
1619089779.68379,-5.81546,27.334660053253174
1619089779.69942,-7.476044,27.350290060043335
1619089779.71504,-9.695862,27.365910053253174
1619089779.73067,-11.98569,27.381540060043335
1619089779.7463,-13.79263,27.397170066833496
1619089779.76192,-14.69656,27.412790060043335
1619089779.77755,-14.52417,27.428420066833496
1619089779.79317,-13.35046,27.444040060043335
1619089779.8088,-11.4057,27.459670066833496
1619089779.82442,-9.005219,27.475290060043335
1619089779.84005,-6.435211,27.490920066833496
1619089779.85568,-3.950562,27.506550073623657
1619089779.8713,-1.78009,27.522170066833496
1619089779.88693,-0.09341431,27.537800073623657
1619089779.90255,1.050385,27.553420066833496
1619089779.91818,1.721039,27.569050073623657
1619089779.9338,2.093445,27.584670066833496
1619089779.94943,2.394836,27.600300073623657
1619089779.96506,2.778687,27.61593008041382
1619089779.98068,3.309723,27.631550073623657
1619089779.99631,3.980804,27.64718008041382
1619089780.01193,4.786346,27.662800073623657
1619089780.02756,5.75943,27.67843008041382
1619089780.04319,6.913055,27.69406008720398
1619089780.05881,8.157928,27.70968008041382
1619089780.07444,9.293976,27.72531008720398
1619089780.09006,10.17023,27.74093008041382
1619089780.10569,10.76437,27.75656008720398
1619089780.12131,11.28452,27.77218008041382
1619089780.13694,12.06851,27.78781008720398
1619089780.15257,13.37692,27.80344009399414
1619089780.16819,15.16974,27.81906008720398
1619089780.18382,17.04913,27.83469009399414
1619089780.19944,18.3949,27.85031008720398
1619089780.21507,18.68341,27.86594009399414
1619089780.23069,17.86972,27.88156008720398
1619089780.24632,16.39459,27.89719009399414
1619089780.26195,14.99515,27.9128201007843
1619089780.27757,14.30042,27.92844009399414
1619089780.2932,14.47302,27.9440701007843
1619089780.30882,15.11792,27.95969009399414
1619089780.32445,15.44254,27.9753201007843
1619089780.34007,14.65591,27.99094009399414
1619089780.3557,12.28934,28.0065701007843
1619089780.37133,8.53598,28.022200107574463
1619089780.38695,3.951935,28.0378201007843
1619089780.40258,-0.8183899,28.053450107574463
1619089780.4182,-5.373932,28.0690701007843
1619089780.43383,-9.718781,28.084700107574463
1619089780.44945,-14.13516,28.1003201007843
1619089780.46508,-18.95435,28.115950107574463
1619089780.48071,-24.33777,28.131580114364624
1619089780.49633,-30.18097,28.147200107574463
1619089780.51196,-35.77216,28.162830114364624
1619089780.52758,-40.39307,28.178450107574463
1619089780.54321,-43.51929,28.194080114364624
1619089780.55883,-45.03622,28.209700107574463
1619089780.57446,-45.27866,28.225330114364624
1619089780.59009,-44.89581,28.240960121154785
1619089780.60571,-44.70572,28.256580114364624
1619089780.62134,-45.45465,28.272210121154785
1619089780.63696,-47.68039,28.287830114364624
1619089780.65259,-50.65344,28.303460121154785
1619089780.66821,-53.15158,28.319080114364624
1619089780.68384,-53.63361,28.334710121154785
1619089780.69947,-50.53268,28.350340127944946
1619089780.71509,-42.47763,28.365960121154785
1619089780.73072,-28.36328,28.381590127944946
1619089780.74634,-7.676025,28.397210121154785
1619089780.76197,19.05832,28.412840127944946
1619089780.77759,49.92813,28.428460121154785
1619089780.79322,82.92398,28.444090127944946
1619089780.80885,115.159,28.459720134735107
1619089780.82447,143.6247,28.475340127944946
1619089780.8401,166.0322,28.490970134735107
1619089780.85572,181.5681,28.506590127944946
1619089780.87135,191.1719,28.522220134735107
1619089780.88697,197.0679,28.537840127944946
1619089780.9026,201.7043,28.553470134735107
1619089780.91823,206.8326,28.56910014152527
1619089780.93385,214.703,28.584720134735107
1619089780.94948,226.3227,28.60035014152527
1619089780.9651,241.4722,28.615970134735107
1619089780.98073,258.7405,28.63160014152527
1619089780.99635,275.9694,28.647220134735107
1619089781.01198,291.0729,28.66285014152527
1619089781.02761,302.6003,28.67848014831543
1619089781.04323,309.8821,28.69410014152527
1619089781.05886,302.4329,28.70973014831543
1619089781.07448,273.3858,28.72535014152527
1619089781.09011,220.5824,28.74098014831543
1619089781.10573,148.8365,28.75660014152527
1619089781.12136,68.71646,28.77223014831543
1619089781.13699,-7.969696,28.78786015510559
1619089781.15261,-72.414,28.80348014831543
1619089781.16824,-120.807,28.81911015510559
1619089781.18386,-153.8035,28.83473014831543
1619089781.19949,-174.6693,28.85036015510559
1619089781.21511,-185.8128,28.86598014831543
1619089781.23074,-189.0543,28.88161015510559
1619089781.24637,-185.4412,28.897240161895752
1619089781.26199,-175.839,28.91286015510559
1619089781.27762,-162.006,28.928490161895752
1619089781.29324,-146.1615,28.94411015510559
1619089781.30887,-130.568,28.959740161895752
1619089781.32449,-116.868,28.97536015510559
1619089781.34012,-105.6337,28.990990161895752
1619089781.35575,-95.15251,29.006620168685913
1619089781.37137,-83.33582,29.022240161895752
1619089781.387,-68.7022,29.037870168685913
1619089781.40262,-51.31294,29.053490161895752
1619089781.41825,-32.88075,29.069120168685913
1619089781.43387,-15.89511,29.084740161895752
1619089781.4495,-2.574001,29.100370168685913
1619089781.46513,5.308357,29.116000175476074
1619089781.48075,7.550323,29.131620168685913
1619089781.49638,5.95543,29.147250175476074
1619089781.512,2.819302,29.162870168685913
1619089781.52763,0.02229166,29.178500175476074
1619089781.54325,-1.661282,29.194120168685913
1619089781.55888,-2.595013,29.209750175476074
1619089781.57451,-3.648197,29.225380182266235
1619089781.59013,-5.577194,29.241000175476074
1619089781.60576,-8.597965,29.256630182266235
1619089781.62138,-12.33704,29.272250175476074
1619089781.63701,-15.84428,29.287880182266235
1619089781.65263,-18.35491,29.303500175476074
1619089781.66826,-19.63462,29.319130182266235
1619089781.68389,-20.06548,29.334760189056396
1619089781.69951,-20.42834,29.350380182266235
1619089781.71514,-21.4623,29.366010189056396
1619089781.73076,-23.54794,29.381630182266235
1619089781.74639,-26.60081,29.397260189056396
1619089781.76201,-30.1124,29.412880182266235
1619089781.77764,-33.37297,29.428510189056396
1619089781.79327,-35.86348,29.444140195846558
1619089781.80889,-37.39317,29.459760189056396
1619089781.82452,-38.11162,29.475390195846558
1619089781.84014,-38.3358,29.491010189056396
1619089781.85577,-38.26767,29.506640195846558
1619089781.87139,-37.98549,29.522260189056396
1619089781.88702,-37.45056,29.537890195846558
1619089781.90265,-36.5932,29.55352020263672
1619089781.91827,-35.46773,29.569140195846558
1619089781.9339,-34.2589,29.58477020263672
1619089781.94952,-33.17003,29.600390195846558
1619089781.96515,-32.31328,29.61602020263672
1619089781.98077,-31.66898,29.631640195846558
1619089781.9964,-31.09538,29.64727020263672
1619089782.01203,-30.48196,29.6628999710083
1619089782.02765,-29.85632,29.67852020263672
1619089782.04328,-29.37119,29.6941499710083
1619089782.0589,-29.29495,29.70977020263672
1619089782.07453,-29.8511,29.7253999710083
1619089782.09015,-31.07236,29.74102020263672
1619089782.10578,-32.69666,29.7566499710083
1619089782.12141,-34.18689,29.772279977798462
1619089782.13703,-34.88943,29.7878999710083
1619089782.15266,-34.30652,29.803529977798462
1619089782.16828,-32.31757,29.8191499710083
1619089782.18391,-29.22369,29.834779977798462
1619089782.19953,-25.70013,29.8503999710083
1619089782.21516,-22.47189,29.866029977798462
1619089782.23079,-20.0394,29.881659984588623
1619089782.24641,-18.49643,29.897279977798462
1619089782.26204,-17.60776,29.912909984588623
1619089782.27766,-16.98477,29.928529977798462
1619089782.29329,-16.40024,29.944159984588623
1619089782.30891,-15.83777,29.959779977798462
1619089782.32454,-15.46356,29.975409984588623
1619089782.34017,-15.46091,29.991039991378784
1619089782.35579,-15.87817,30.006659984588623
1619089782.37142,-16.62302,30.022289991378784
1619089782.38704,-17.55853,30.037909984588623
1619089782.40267,-18.63177,30.053539991378784
1619089782.4183,-19.85718,30.069169998168945
1619089782.43392,-21.29456,30.084789991378784
1619089782.44955,-22.93826,30.100419998168945
1619089782.46517,-24.63708,30.116039991378784
1619089782.4808,-26.17538,30.131669998168945
1619089782.49642,-27.38464,30.147289991378784
1619089782.51205,-28.2225,30.162919998168945
1619089782.52768,-28.8111,30.178550004959106
1619089782.5433,-29.36197,30.194169998168945
1619089782.55893,-30.06699,30.209800004959106
1619089782.57455,-30.98022,30.225419998168945
1619089782.59018,-31.9483,30.241050004959106
1619089782.6058,-32.66922,30.256669998168945
1619089782.62143,-32.86014,30.272300004959106
1619089782.63706,-32.41956,30.287930011749268
1619089782.65268,-31.50031,30.303550004959106
1619089782.66831,-30.47513,30.319180011749268
1619089782.68393,-29.7063,30.334800004959106
1619089782.69956,-29.23703,30.350430011749268
1619089782.71518,-28.63577,30.366050004959106
1619089782.73081,-27.05392,30.381680011749268
1619089782.74644,-23.5228,30.39731001853943
1619089782.76206,-17.46329,30.412930011749268
1619089782.77769,-8.959473,30.42856001853943
1619089782.79331,1.20108,30.444180011749268
1619089782.80894,11.83679,30.45981001853943
1619089782.82456,21.8783,30.475430011749268
1619089782.84019,30.73532,30.49106001853943
1619089782.85582,38.39447,30.50669002532959
1619089782.87144,45.25082,30.52231001853943
1619089782.88707,51.78464,30.53794002532959
1619089782.90269,58.24957,30.55356001853943
1619089782.91832,64.50732,30.56919002532959
1619089782.93394,70.10022,30.58481001853943
1619089782.94957,74.46631,30.60044002532959
1619089782.9652,77.26126,30.61607003211975
1619089782.98082,78.61771,30.63169002532959
1619089782.99645,79.13275,30.64732003211975
1619089783.01207,79.67664,30.66294002532959
1619089783.0277,80.94107,30.67857003211975
1619089783.04332,83.08035,30.69419002532959
1619089783.05895,85.57422,30.70982003211975
1619089783.07458,87.41785,30.725450038909912
1619089783.0902,87.6293,30.74107003211975
1619089783.10583,85.71509,30.756700038909912
1619089783.12145,81.7681,30.77232003211975
1619089783.13708,76.2327,30.787950038909912
1619089783.1527,69.64053,30.80357003211975
1619089783.16833,62.41327,30.819200038909912
1619089783.18396,54.845,30.834830045700073
1619089783.19958,47.21729,30.850450038909912
1619089783.21521,39.7915,30.866080045700073
1619089783.23083,32.547,30.881700038909912
1619089783.24646,25.0025,30.897330045700073
1619089783.26208,16.23285,30.912950038909912
1619089783.27771,5.31012,30.928580045700073
1619089783.29334,-7.981873,30.944210052490234
1619089783.30896,-22.75787,30.959830045700073
1619089783.32459,-37.13385,30.975460052490234
1619089783.34021,-48.93829,30.991080045700073
1619089783.35584,-56.68762,31.006710052490234
1619089783.37146,-60.31183,31.022330045700073
1619089783.38709,-61.08636,31.037960052490234
1619089783.40272,-60.98309,31.053590059280396
1619089783.41834,-61.72552,31.069210052490234
1619089783.43397,-64.07318,31.084840059280396
1619089783.44959,-67.68262,31.100460052490234
1619089783.46522,-71.58185,31.116090059280396
1619089783.48084,-74.78503,31.131710052490234
1619089783.49647,-76.87018,31.147340059280396
1619089783.5121,-78.08038,31.162970066070557
1619089783.52772,-79.11554,31.178590059280396
1619089783.54335,-80.72247,31.194220066070557
1619089783.55897,-83.24274,31.209840059280396
1619089783.5746,-86.53809,31.225470066070557
1619089783.59022,-90.08099,31.241090059280396
1619089783.60585,-93.17993,31.256720066070557
1619089783.62148,-95.19421,31.272350072860718
1619089783.6371,-95.74829,31.287970066070557
1619089783.65273,-94.7356,31.303600072860718
1619089783.66835,-92.28589,31.319220066070557
1619089783.68398,-88.70172,31.334850072860718
1619089783.6996,-84.33319,31.350470066070557
1619089783.71523,-79.46606,31.366100072860718
1619089783.73086,-74.34863,31.38173007965088
1619089783.74648,-69.13074,31.397350072860718
1619089783.76211,-63.95911,31.41298007965088
1619089783.77773,-59.04736,31.428600072860718
1619089783.79336,-54.64026,31.44423007965088
1619089783.80898,-50.92181,31.459850072860718
1619089783.82461,-47.92468,31.47548007965088
1619089783.84024,-45.4505,31.49111008644104
1619089783.85586,-43.12317,31.50673007965088
1619089783.87149,-40.56995,31.52236008644104
1619089783.88711,-37.58746,31.53798007965088
1619089783.90274,-34.26849,31.55361008644104
1619089783.91836,-30.98956,31.56923007965088
1619089783.93399,-28.20789,31.58486008644104
1619089783.94962,-26.24597,31.6004900932312
1619089783.96524,-25.11023,31.61611008644104
1619089783.98087,-24.48212,31.6317400932312
1619089783.99649,-23.92194,31.64736008644104
1619089784.01212,-23.12012,31.6629900932312
1619089784.02774,-22.1131,31.67861008644104
1619089784.04337,-21.30341,31.6942400932312
1619089784.059,-21.19562,31.709870100021362
1619089784.07462,-22.08057,31.7254900932312
1619089784.09025,-23.79926,31.741120100021362
1619089784.10587,-25.72705,31.7567400932312
1619089784.1215,-27.0376,31.772370100021362
1619089784.13712,-27.10101,31.7879900932312
1619089784.15275,-25.72284,31.803620100021362
1619089784.16838,-23.17633,31.819250106811523
1619089784.184,-20.00458,31.834870100021362
1619089784.19963,-16.75323,31.850500106811523
1619089784.21525,-13.74261,31.866120100021362
1619089784.23088,-11.08942,31.881750106811523
1619089784.2465,-8.771667,31.897370100021362
1619089784.26213,-6.769531,31.913000106811523
1619089784.27776,-5.087524,31.928630113601685
1619089784.29338,-3.739868,31.944250106811523
1619089784.30901,-2.674072,31.959880113601685
1619089784.32463,-1.749817,31.975500106811523
1619089784.34026,-0.789978,31.991130113601685
1619089784.35588,0.3148499,32.00675010681152
1619089784.37151,1.535919,32.022380113601685
1619089784.38714,2.744385,32.038010120391846
1619089784.40276,3.828003,32.053630113601685
1619089784.41839,4.775146,32.069260120391846
1619089784.43401,5.804565,32.084880113601685
1619089784.44964,7.24585,32.100510120391846
1619089784.46526,9.419098,32.116130113601685
1619089784.48089,12.45282,32.131760120391846
1619089784.49652,16.19293,32.14739012718201
1619089784.51214,20.24808,32.163010120391846
1619089784.52777,24.18811,32.17864012718201
1619089784.54339,27.71063,32.194260120391846
1619089784.55902,30.70468,32.20989012718201
1619089784.57465,33.21603,32.22552013397217
1619089784.59027,35.28912,32.24114012718201
1619089784.6059,36.89365,32.25677013397217
1619089784.62152,37.98206,32.27239012718201
1619089784.63715,38.60855,32.28802013397217
1619089784.65277,38.98309,32.30364012718201
1619089784.6684,39.41824,32.31927013397217
1619089784.68403,40.10562,32.33490014076233
1619089784.69965,40.92203,32.35052013397217
1619089784.71528,41.43469,32.36615014076233
1619089784.7309,41.08984,32.38177013397217
1619089784.74653,39.62201,32.39740014076233
1619089784.76215,37.2269,32.41302013397217
1619089784.77778,34.56238,32.42865014076233
1619089784.79341,32.41464,32.44428014755249
1619089784.80903,31.23883,32.45990014076233
1619089784.82466,30.93832,32.47553014755249
1619089784.84028,30.9231,32.49115014076233
1619089784.85591,30.44705,32.50678014755249
1619089784.87153,28.97104,32.52240014076233
1619089784.88716,26.40771,32.53803014755249
1619089784.90279,23.0701,32.55366015434265
1619089784.91841,19.4108,32.56928014755249
1619089784.93404,15.91251,32.58491015434265
1619089784.94966,12.86804,32.60053014755249
1619089784.96529,10.44287,32.61616015434265
1619089784.98091,8.693665,32.63178014755249
1619089784.99654,7.657501,32.64741015434265
1619089785.01217,7.287537,32.66304016113281
1619089785.02779,7.458374,32.67866015434265
1619089785.04342,7.888855,32.69429016113281
1619089785.05904,8.172974,32.70991015434265
1619089785.07467,7.898804,32.72554016113281
1619089785.09029,6.811462,32.74116015434265
1619089785.10592,5.011993,32.75679016113281
1619089785.12155,3.023773,32.772420167922974
1619089785.13717,1.705658,32.78804016113281
1619089785.1528,1.871826,32.803670167922974
1619089785.16842,3.933289,32.81929016113281
1619089785.18405,7.566223,32.834920167922974
1619089785.19967,11.76688,32.85054016113281
1619089785.2153,15.24496,32.866170167922974
1619089785.23093,16.93497,32.881800174713135
1619089785.24655,16.49011,32.897420167922974
1619089785.26218,14.32208,32.913050174713135
1619089785.2778,11.35526,32.928670167922974
1619089785.29343,8.533112,32.944300174713135
1619089785.30905,6.423157,32.959920167922974
1619089785.32468,5.124268,32.975550174713135
1619089785.34031,4.379913,32.991180181503296
1619089785.35593,3.794952,33.006800174713135
1619089785.37156,2.962494,33.022430181503296
1619089785.38718,1.539917,33.038050174713135
1619089785.40281,-0.6948853,33.053680181503296
1619089785.41843,-3.825714,33.069300174713135
1619089785.43406,-7.709839,33.084930181503296
1619089785.44969,-12.03366,33.10056018829346
1619089785.46531,-16.44653,33.116180181503296
1619089785.48094,-20.69949,33.13181018829346
1619089785.49656,-24.6785,33.147430181503296
1619089785.51219,-28.34604,33.16306018829346
1619089785.52781,-31.58334,33.178680181503296
1619089785.54344,-34.11417,33.19431018829346
1619089785.55907,-35.55225,33.20994019508362
1619089785.57469,-35.53487,33.22556018829346
1619089785.59032,-33.98674,33.24119019508362
1619089785.60594,-31.20442,33.25681018829346
1619089785.62157,-27.77933,33.27244019508362
1619089785.63719,-24.37018,33.28806018829346
1619089785.65282,-21.49208,33.30369019508362
1619089785.66845,-19.31294,33.31932020187378
1619089785.68407,-17.73875,33.33494019508362
1619089785.6997,-16.46486,33.35057020187378
1619089785.71532,-15.21193,33.36619019508362
1619089785.73095,-14.02094,33.38182020187378
1619089785.74657,-13.25876,33.39744019508362
1619089785.7622,-13.51456,33.41307020187378
1619089785.77783,-15.24141,33.42869997024536
1619089785.79345,-18.45088,33.44432020187378
1619089785.80908,-22.65414,33.45994997024536
1619089785.8247,-27.0507,33.47557020187378
1619089785.84033,-30.72711,33.49119997024536
1619089785.85595,-33.02516,33.50682020187378
1619089785.87158,-33.81476,33.52244997024536
1619089785.88721,-33.48709,33.53807997703552
1619089785.90283,-32.64967,33.55369997024536
1619089785.91846,-31.84184,33.56932997703552
1619089785.93408,-31.30328,33.58494997024536
1619089785.94971,-31.00928,33.60057997703552
1619089785.96533,-30.84651,33.61619997024536
1619089785.98096,-30.45006,33.63182997703552
1619089785.99659,-29.42644,33.647459983825684
1619089786.01221,-27.55699,33.66307997703552
1619089786.02784,-24.98897,33.678709983825684
1619089786.04346,-22.16577,33.69432997703552
1619089786.05909,-19.64641,33.709959983825684
1619089786.07471,-17.73116,33.72557997703552
1619089786.09034,-16.25666,33.741209983825684
1619089786.10597,-14.63451,33.756839990615845
1619089786.12159,-11.72257,33.772459983825684
1619089786.13722,-6.110504,33.788089990615845
1619089786.15284,3.400658,33.803709983825684
1619089786.16847,17.37849,33.819339990615845
1619089786.18409,35.47516,33.834959983825684
1619089786.19972,56.09853,33.850589990615845
1619089786.21535,76.52008,33.866219997406006
1619089786.23097,93.55305,33.881839990615845
1619089786.2466,102.9633,33.897469997406006
1619089786.26222,101.8106,33.913089990615845
1619089786.27785,90.61839,33.928719997406006
1619089786.29347,73.96282,33.944339990615845
1619089786.3091,58.52773,33.959969997406006
1619089786.32473,49.92928,33.97560000419617
1619089786.34035,50.10163,33.991219997406006
1619089786.35598,57.6784,34.00685000419617
1619089786.3716,69.88819,34.022469997406006
1619089786.38723,83.89244,34.03810000419617
1619089786.40285,97.76747,34.053719997406006
1619089786.41848,110.3694,34.06935000419617
1619089786.43411,120.891,34.08498001098633
1619089786.44973,127.3587,34.10060000419617
1619089786.46536,127.8676,34.11623001098633
1619089786.48098,121.139,34.13185000419617
1619089786.49661,107.037,34.14748001098633
1619089786.51223,86.61974,34.16310000419617
1619089786.52786,61.77676,34.17873001098633
1619089786.54349,34.90297,34.19436001777649
1619089786.55911,8.259163,34.20998001098633
1619089786.57474,-16.36439,34.22561001777649
1619089786.59036,-37.67033,34.24123001098633
1619089786.60599,-53.742,34.25686001777649
1619089786.62161,-62.75373,34.27248001098633
1619089786.63724,-64.05106,34.28811001777649
1619089786.65287,-59.12425,34.30374002456665
1619089786.66849,-51.34141,34.31936001777649
1619089786.68412,-44.19577,34.33499002456665
1619089786.69974,-39.75617,34.35061001777649
1619089786.71537,-39.23807,34.36624002456665
1619089786.73099,-41.03038,34.38186001777649
1619089786.74662,-43.36476,34.39749002456665
1619089786.76225,-45.4472,34.41312003135681
1619089786.77787,-47.51124,34.42874002456665
1619089786.7935,-50.3334,34.44437003135681
1619089786.80912,-54.53965,34.45999002456665
1619089786.82475,-59.11244,34.47562003135681
1619089786.84037,-63.02481,34.49124002456665
1619089786.856,-65.41439,34.50687003135681
1619089786.87163,-65.88522,34.52250003814697
1619089786.88725,-64.96248,34.53812003135681
1619089786.90288,-63.76789,34.55375003814697
1619089786.9185,-63.26045,34.56937003135681
1619089786.93413,-63.65164,34.58500003814697
1619089786.94975,-64.14593,34.60062003135681
1619089786.96538,-63.25378,34.61625003814697
1619089786.98101,-59.67548,34.631880044937134
1619089786.99663,-52.82307,34.64750003814697
1619089787.01226,-42.96278,34.663130044937134
1619089787.02788,-31.27348,34.67875003814697
1619089787.04351,-19.29707,34.694380044937134
1619089787.05913,-8.325116,34.71000003814697
1619089787.07476,0.9293242,34.725630044937134
1619089787.09039,8.417347,34.741260051727295
1619089787.10601,14.58845,34.756880044937134
1619089787.12164,19.91577,34.772510051727295
1619089787.13726,24.64507,34.788130044937134
1619089787.15289,28.67245,34.803760051727295
1619089787.16851,31.19998,34.819380044937134
1619089787.18414,30.8698,34.835010051727295
1619089787.19977,26.28887,34.850640058517456
1619089787.21539,16.59105,34.866260051727295
1619089787.23102,2.10466,34.881890058517456
1619089787.24664,-15.39975,34.897510051727295
1619089787.26227,-32.97262,34.913140058517456
1619089787.2779,-47.041,34.92877006530762
1619089787.29352,-54.20813,34.944390058517456
1619089787.30915,-52.21564,34.96002006530762
1619089787.32477,-40.56383,34.975640058517456
1619089787.3404,-20.8466,34.99127006530762
1619089787.35602,3.357704,35.006890058517456
1619089787.37165,27.1977,35.02252006530762
1619089787.38728,45.69953,35.03815007209778
1619089787.4029,55.05692,35.05377006530762
1619089787.41853,53.73284,35.06940007209778
1619089787.43415,42.79841,35.08502006530762
1619089787.44978,25.40841,35.10065007209778
1619089787.4654,5.701569,35.11627006530762
1619089787.48103,-12.35287,35.13190007209778
1619089787.49666,-25.76853,35.14753007888794
1619089787.51228,-32.85597,35.16315007209778
1619089787.52791,-33.28453,35.17878007888794
1619089787.54353,-27.99301,35.19440007209778
1619089787.55916,-19.0905,35.21003007888794
1619089787.57478,-9.66188,35.22565007209778
1619089787.59041,-3.061523,35.24128007888794
1619089787.60604,-1.806458,35.2569100856781
1619089787.62166,-6.441818,35.27253007888794
1619089787.63729,-14.92133,35.2881600856781
1619089787.65291,-22.8618,35.30378007888794
1619089787.66854,-25.08644,35.3194100856781
1619089787.68416,-17.70091,35.33503007888794
1619089787.69979,0.01669312,35.3506600856781
1619089787.71542,24.93608,35.36629009246826
1619089787.73104,50.96835,35.3819100856781
1619089787.74667,71.25807,35.39754009246826
1619089787.76229,80.77489,35.4131600856781
1619089787.77792,77.98314,35.42879009246826
1619089787.79354,65.02661,35.4444100856781
1619089787.80917,46.37262,35.46004009246826
1619089787.8248,26.78552,35.47567009925842
1619089787.84042,9.696182,35.49129009246826
1619089787.85605,-3.351257,35.50692009925842
1619089787.87167,-12.26256,35.52254009246826
1619089787.8873,-17.42427,35.53817009925842
1619089787.90292,-19.11418,35.55379009246826
1619089787.91855,-17.5126,35.56942009925842
1619089787.93418,-13.11218,35.585050106048584
1619089787.9498,-7.031921,35.60067009925842
1619089787.96543,-1.001785,35.616300106048584
1619089787.98105,3.343109,35.63192009925842
1619089787.99668,5.215378,35.647550106048584
1619089788.0123,5.168152,35.66317009925842
1619089788.02793,5.020935,35.678800106048584
1619089788.04356,7.11731,35.694430112838745
1619089788.05918,13.08789,35.710050106048584
1619089788.07481,22.71014,35.725680112838745
1619089788.09043,33.49438,35.741300106048584
1619089788.10606,41.44907,35.756930112838745
1619089788.12168,42.71469,35.772550106048584
1619089788.13731,35.35956,35.788180112838745
1619089788.15294,20.45236,35.803810119628906
1619089788.16856,1.697144,35.819430112838745
1619089788.18419,-16.0759,35.835060119628906
1619089788.19981,-28.76486,35.850680112838745
1619089788.21544,-34.13675,35.866310119628906
1619089788.23106,-31.8382,35.881930112838745
1619089788.24669,-22.72751,35.897560119628906
1619089788.26232,-8.144928,35.91319012641907
1619089788.27794,10.22766,35.928810119628906
1619089788.29357,30.06625,35.94444012641907
1619089788.30919,48.30817,35.960060119628906
1619089788.32482,61.61154,35.97569012641907
1619089788.34044,67.4537,35.991310119628906
1619089788.35607,65.18689,36.00694012641907
1619089788.3717,56.37747,36.02257013320923
1619089788.38732,44.20898,36.03819012641907
1619089788.40295,32.28015,36.05382013320923
1619089788.41857,23.44284,36.06944012641907
1619089788.4342,19.24133,36.08507013320923
1619089788.44982,19.97742,36.10069012641907
1619089788.46545,24.91678,36.11632013320923
1619089788.48108,32.69931,36.13195013999939
1619089788.4967,41.41333,36.14757013320923
1619089788.51233,48.61957,36.16320013999939
1619089788.52795,51.54245,36.17882013320923
1619089788.54358,47.68747,36.19445013999939
1619089788.5592,35.70322,36.21007013320923
1619089788.57483,16.27432,36.22570013999939
1619089788.59046,-7.628876,36.24133014678955
1619089788.60608,-31.27203,36.25695013999939
1619089788.62171,-49.5928,36.27258014678955
1619089788.63733,-58.89429,36.28820013999939
1619089788.65296,-58.21762,36.30383014678955
1619089788.66858,-49.54877,36.31945013999939
1619089788.68421,-36.80875,36.33508014678955
1619089788.69984,-24.07379,36.35071015357971
1619089788.71546,-14.09476,36.36633014678955
1619089788.73109,-7.666138,36.38196015357971
1619089788.74671,-4.148926,36.39758014678955
1619089788.76234,-2.538239,36.41321015357971
1619089788.77796,-2.25058,36.42883014678955
1619089788.79359,-3.373352,36.44446015357971
1619089788.80922,-6.269012,36.46009016036987
1619089788.82484,-11.07715,36.47571015357971
1619089788.84047,-17.41418,36.49134016036987
1619089788.85609,-24.4104,36.50696015357971
1619089788.87172,-30.9501,36.52259016036987
1619089788.88734,-35.93103,36.53821015357971
1619089788.90297,-38.52036,36.55384016036987
1619089788.9186,-38.30222,36.569470167160034
1619089788.93422,-35.5163,36.58509016036987
1619089788.94985,-31.12299,36.600720167160034
1619089788.96547,-26.54291,36.61634016036987
1619089788.9811,-23.07031,36.631970167160034
1619089788.99672,-21.16541,36.64759016036987
1619089789.01235,-20.09995,36.663220167160034
1619089789.02798,-18.20972,36.678850173950195
1619089789.0436,-13.63547,36.694470167160034
1619089789.05923,-5.022949,36.710100173950195
1619089789.07485,7.707703,36.725720167160034
1619089789.09048,23.4321,36.741350173950195
1619089789.1061,40.42044,36.756970167160034
1619089789.12173,57.14188,36.772600173950195
1619089789.13736,72.80035,36.788230180740356
1619089789.15298,87.32053,36.803850173950195
1619089789.16861,100.8574,36.819480180740356
1619089789.18423,113.2313,36.835100173950195
1619089789.19986,124.0959,36.850730180740356
1619089789.21548,132.3962,36.866350173950195
1619089789.23111,136.7279,36.881980180740356
1619089789.24674,135.9563,36.89761018753052
1619089789.26236,129.977,36.913230180740356
1619089789.27799,120.1176,36.92886018753052
1619089789.29361,108.9783,36.944480180740356
1619089789.30924,99.51633,36.96011018753052
1619089789.32486,93.88605,36.975730180740356
1619089789.34049,93.39969,36.99136018753052
1619089789.35612,97.4426,37.00699019432068
1619089789.37174,103.8449,37.02261018753052
1619089789.38737,109.9095,37.03824019432068
1619089789.40299,113.6675,37.05386018753052
1619089789.41862,114.5333,37.06949019432068
1619089789.43425,113.2254,37.08512020111084
1619089789.44987,110.9406,37.10074019432068
1619089789.4655,108.8909,37.11637020111084
1619089789.48112,109.0851,37.13199019432068
1619089789.49675,113.1458,37.14762020111084
1619089789.51237,121.838,37.16324019432068
1619089789.528,134.4487,37.17887020111084
1619089789.54363,148.5873,37.19449996948242
1619089789.55925,160.6524,37.21012020111084
1619089789.57488,167.0025,37.22574996948242
1619089789.5905,165.2352,37.24137020111084
1619089789.60613,148.8657,37.25699996948242
1619089789.62175,116.5773,37.27262020111084
1619089789.63738,72.09769,37.28824996948242
1619089789.65301,23.07785,37.30387997627258
1619089789.66863,-22.43968,37.31949996948242
1619089789.68426,-59.31792,37.33512997627258
1619089789.69988,-86.29918,37.35074996948242
1619089789.71551,-104.4063,37.36637997627258
1619089789.73113,-115.237,37.38199996948242
1619089789.74676,-119.9536,37.39762997627258
1619089789.76239,-118.6936,37.413259983062744
1619089789.77801,-112.5372,37.42887997627258
1619089789.79364,-103.7192,37.444509983062744
1619089789.80926,-94.92352,37.46012997627258
1619089789.82489,-87.93686,37.475759983062744
1619089789.84051,-82.83917,37.49137997627258
1619089789.85614,-77.6252,37.507009983062744
1619089789.87177,-69.89175,37.522639989852905
1619089789.88739,-57.66992,37.538259983062744
1619089789.90302,-39.65276,37.553889989852905
1619089789.91864,-16.23046,37.569509983062744
1619089789.93427,10.70814,37.585139989852905
1619089789.94989,38.24201,37.600759983062744
1619089789.96552,63.25089,37.616389989852905
1619089789.98115,83.1175,37.632019996643066
1619089789.99677,96.29313,37.647639989852905
1619089790.0124,101.3742,37.663269996643066
1619089790.02802,98.48462,37.678889989852905
1619089790.04365,89.37015,37.694519996643066
1619089790.05927,76.07297,37.710139989852905
1619089790.0749,60.05067,37.725769996643066
1619089790.09053,42.13376,37.74140000343323
1619089790.10615,22.50635,37.757019996643066
1619089790.12178,1.297394,37.77265000343323
1619089790.1374,-20.81131,37.788269996643066
1619089790.15303,-44.01585,37.80390000343323
1619089790.16865,-67.31485,37.819519996643066
1619089790.18428,-89.0015,37.83515000343323
1619089790.19991,-107.5354,37.85078001022339
1619089790.21553,-122.748,37.86640000343323
1619089790.23116,-136.4986,37.88203001022339
1619089790.24678,-152.3473,37.89765000343323
1619089790.26241,-174.1466,37.91328001022339
1619089790.27803,-204.5858,37.92890000343323
1619089790.29366,-245.9151,37.94453001022339
1619089790.30929,-296.0131,37.96016001701355
1619089790.32491,-349.0266,37.97578001022339
1619089790.34054,-396.5402,37.99141001701355
1619089790.35616,-430.4757,38.00703001022339
1619089790.37179,-445.9355,38.02266001701355
1619089790.38741,-442.8795,38.03828001022339
1619089790.40304,-425.9717,38.05391001701355
1619089790.41867,-389.4638,38.06954002380371
1619089790.43429,-336.3755,38.08516001701355
1619089790.44992,-274.3845,38.10079002380371
1619089790.46554,-212.3845,38.11641001701355
1619089790.48117,-154.865,38.13204002380371
1619089790.49679,-101.2889,38.14766001701355
1619089790.51242,-49.85228,38.16329002380371
1619089790.52805,-1.574188,38.17892003059387
1619089790.54367,39.06519,38.19454002380371
1619089790.5593,66.81921,38.21017003059387
1619089790.57492,75.08896,38.22579002380371
1619089790.59055,67.40741,38.24142003059387
1619089790.60617,51.75993,38.25704002380371
1619089790.6218,37.34009,38.27267003059387
1619089790.63743,30.21936,38.28830003738403
1619089790.65305,31.28349,38.30392003059387
1619089790.66868,37.04047,38.31955003738403
1619089790.6843,42.79527,38.33517003059387
1619089790.69993,45.85381,38.35080003738403
1619089790.71555,45.1898,38.36642003059387
1619089790.73118,44.86206,38.38205003738403
1619089790.74681,48.62495,38.397680044174194
1619089790.76243,59.07468,38.41330003738403
1619089790.77806,76.21448,38.428930044174194
1619089790.79368,97.60873,38.44455003738403
1619089790.80931,119.8165,38.460180044174194
1619089790.82493,139.9846,38.47580003738403
1619089790.84056,156.787,38.491430044174194
1619089790.85619,169.1618,38.507060050964355
1619089790.87181,177.5307,38.522680044174194
1619089790.88744,182.3315,38.538310050964355
1619089790.90306,184.3114,38.553930044174194
1619089790.91869,183.9409,38.569560050964355
1619089790.93431,180.9821,38.585180044174194
1619089790.94994,174.6122,38.600810050964355
1619089790.96557,163.8181,38.61644005775452
1619089790.98119,148.0933,38.632060050964355
1619089790.99682,127.3346,38.64769005775452
1619089791.01244,102.8457,38.663310050964355
1619089791.02807,76.19835,38.67894005775452
1619089791.04369,48.96535,38.694560050964355
1619089791.05932,21.75721,38.71019005775452
1619089791.07495,-5.892948,38.72582006454468
1619089791.09057,-34.82027,38.74144005775452
1619089791.1062,-65.04807,38.75707006454468
1619089791.12182,-94.78462,38.77269005775452
1619089791.13745,-120.6169,38.78832006454468
1619089791.15307,-137.931,38.80394005775452
1619089791.1687,-142.8223,38.81957006454468
1619089791.18433,-133.3522,38.83520007133484
1619089791.19995,-110.7578,38.85082006454468
1619089791.21558,-79.71291,38.86645007133484
1619089791.2312,-47.08382,38.88207006454468
1619089791.24683,-20.04229,38.89770007133484
1619089791.26245,-3.887495,38.91332006454468
1619089791.27808,-0.581439,38.92895007133484
1619089791.29371,-8.319427,38.944580078125
1619089791.30933,-22.22335,38.96020007133484
1619089791.32496,-35.34442,38.975830078125
1619089791.34058,-40.0147,38.99145007133484
1619089791.35621,-29.53445,39.007080078125
1619089791.37183,0.08577156,39.02270007133484
1619089791.38746,48.21487,39.038330078125
1619089791.40309,108.7139,39.05396008491516
1619089791.41871,170.681,39.069580078125
1619089791.43434,220.9959,39.08521008491516
1619089791.44996,248.1034,39.100830078125
1619089791.46559,245.4489,39.11646008491516
1619089791.48121,213.4303,39.132080078125
1619089791.49684,158.7999,39.14771008491516
1619089791.51247,92.2787,39.16334009170532
1619089791.52809,25.11837,39.17896008491516
1619089791.54372,-33.62695,39.19459009170532
1619089791.55934,-78.57161,39.21021008491516
1619089791.57497,-107.9811,39.22584009170532
1619089791.59059,-122.8719,39.24146008491516
1619089791.60622,-125.7596,39.25709009170532
1619089791.62185,-119.6424,39.27272009849548
1619089791.63747,-107.4602,39.28834009170532
1619089791.6531,-91.96794,39.30397009849548
1619089791.66872,-75.97517,39.31959009170532
1619089791.68435,-62.24683,39.33522009849548
1619089791.69998,-53.21297,39.350850105285645
1619089791.7156,-50.39872,39.36647009849548
1619089791.73123,-53.66754,39.382100105285645
1619089791.74685,-61.20903,39.39772009849548
1619089791.76248,-70.16469,39.413350105285645
1619089791.7781,-77.82033,39.42897009849548
1619089791.79373,-82.62012,39.444600105285645
1619089791.80936,-84.53194,39.460230112075806
1619089791.82498,-84.47031,39.475850105285645
1619089791.84061,-83.39243,39.491480112075806
1619089791.85623,-81.63271,39.507100105285645
1619089791.87186,-78.65465,39.522730112075806
1619089791.88748,-73.58739,39.538350105285645
1619089791.90311,-65.96046,39.553980112075806
1619089791.91874,-56.29242,39.56961011886597
1619089791.93436,-46.05175,39.585230112075806
1619089791.94999,-37.02859,39.60086011886597
1619089791.96561,-30.38837,39.616480112075806
1619089791.98124,-25.97829,39.63211011886597
1619089791.99686,-22.30327,39.647730112075806
1619089792.01249,-17.24425,39.66336011886597
1619089792.02812,-9.213394,39.67899012565613
1619089792.04374,1.929703,39.69461011886597
1619089792.05937,14.69574,39.71024012565613
1619089792.07499,26.61929,39.72586011886597
1619089792.09062,35.3761,39.74149012565613
1619089792.10624,39.74498,39.75711011886597
1619089792.12187,39.88955,39.77274012565613
1619089792.1375,37.08463,39.78837013244629
1619089792.15312,33.05955,39.80399012565613
1619089792.16875,29.32545,39.81962013244629
1619089792.18437,26.89806,39.83524012565613
1619089792.2,26.2416,39.85087013244629
1619089792.21562,27.3514,39.86649012565613
1619089792.23125,29.75151,39.88212013244629
1619089792.24688,32.51904,39.89775013923645
1619089792.2625,34.42557,39.91337013244629
1619089792.27813,34.32726,39.92900013923645
1619089792.29375,31.61057,39.94462013244629
1619089792.30938,26.51407,39.96025013923645
1619089792.325,20.07457,39.97587013244629
1619089792.34063,13.74622,39.99150013923645
1619089792.35626,8.813828,40.00713014602661
1619089792.37188,5.930557,40.02275013923645
1619089792.38751,5.021317,40.03838014602661
1619089792.40313,5.469604,40.05400013923645
1619089792.41876,6.463196,40.06963014602661
1619089792.43438,7.304321,40.08525013923645
1619089792.45001,7.487106,40.10088014602661
1619089792.46564,6.69101,40.11651015281677
1619089792.48126,4.746918,40.13213014602661
1619089792.49689,1.66304,40.14776015281677
1619089792.51251,-2.304581,40.16338014602661
1619089792.52814,-6.632767,40.17901015281677
1619089792.54376,-10.60698,40.19463014602661
1619089792.55939,-13.53844,40.21026015281677
1619089792.57502,-14.94623,40.225890159606934
1619089792.59064,-14.67528,40.24151015281677
1619089792.60627,-12.90825,40.257140159606934
1619089792.62189,-10.06204,40.27276015281677
1619089792.63752,-6.663834,40.288390159606934
1619089792.65314,-3.165283,40.30401015281677
1619089792.66877,0.1193848,40.319640159606934
1619089792.6844,3.003113,40.335270166397095
1619089792.70002,5.426727,40.350890159606934
1619089792.71565,7.426682,40.366520166397095
1619089792.73127,9.069153,40.382140159606934
1619089792.7469,10.39572,40.397770166397095
1619089792.76252,11.4032,40.413390159606934
1619089792.77815,12.01685,40.429020166397095
1619089792.79378,12.17984,40.444650173187256
1619089792.8094,11.88791,40.460270166397095
1619089792.82503,11.26575,40.475900173187256
1619089792.84065,10.57559,40.491520166397095
1619089792.85628,10.05615,40.507150173187256
1619089792.8719,9.837311,40.522770166397095
1619089792.88753,9.819977,40.538400173187256
1619089792.90316,9.733734,40.55403017997742
1619089792.91878,9.229553,40.569650173187256
1619089792.93441,8.113495,40.58528017997742
1619089792.95003,6.409607,40.600900173187256
1619089792.96566,4.393311,40.61653017997742
1619089792.98128,2.462738,40.632150173187256
1619089792.99691,0.9467163,40.64778017997742
1619089793.01254,-0.03179932,40.66341018676758
1619089793.02816,-0.6394348,40.67903017997742
1619089793.04379,-1.186188,40.69466018676758
1619089793.05941,-2.015228,40.71028017997742
1619089793.07504,-3.335663,40.72591018676758
1619089793.09066,-5.140503,40.74153017997742
1619089793.10629,-7.182556,40.75716018676758
1619089793.12192,-9.08844,40.77279019355774
1619089793.13754,-10.53796,40.78841018676758
1619089793.15317,-11.34625,40.80404019355774
1619089793.16879,-11.52695,40.81966018676758
1619089793.18442,-11.24615,40.83529019355774
1619089793.20004,-10.69141,40.85091018676758
1619089793.21567,-9.947052,40.86654019355774
1619089793.2313,-8.957825,40.8821702003479
1619089793.24692,-7.592255,40.89779019355774
1619089793.26255,-5.770203,40.9134202003479
1619089793.27817,-3.512207,40.92904019355774
1619089793.2938,-0.9294434,40.9446702003479
1619089793.30942,1.819214,40.96029019355774
1619089793.32505,4.59024,40.9759202003479
1619089793.34068,7.271393,40.99154996871948
1619089793.3563,9.740143,41.0071702003479
1619089793.37193,11.86877,41.02279996871948
1619089793.38755,13.54913,41.0384202003479
1619089793.40318,14.75931,41.05404996871948
1619089793.4188,15.55524,41.0696702003479
1619089793.43443,16.10229,41.08529996871948
1619089793.45006,16.53131,41.100929975509644
1619089793.46568,16.86456,41.11654996871948
1619089793.48131,17.00052,41.132179975509644
1619089793.49693,16.77658,41.14779996871948
1619089793.51256,16.12,41.163429975509644
1619089793.52818,15.06894,41.17904996871948
1619089793.54381,13.75131,41.194679975509644
1619089793.55944,12.27545,41.210309982299805
1619089793.57506,10.60739,41.225929975509644
1619089793.59069,8.601135,41.241559982299805
1619089793.60631,6.153717,41.257179975509644
1619089793.62194,3.347687,41.272809982299805
1619089793.63756,0.5005798,41.288429975509644
1619089793.65319,-1.932007,41.304059982299805
1619089793.66882,-3.604675,41.319689989089966
1619089793.68444,-4.430145,41.335309982299805
1619089793.70007,-4.638062,41.350939989089966
1619089793.71569,-4.613556,41.366559982299805
1619089793.73132,-4.716125,41.382189989089966
1619089793.74694,-5.101288,41.397809982299805
1619089793.76257,-5.730988,41.413439989089966
1619089793.7782,-6.442017,41.42906999588013
1619089793.79382,-7.113708,41.444689989089966
1619089793.80945,-7.728271,41.46031999588013
1619089793.82507,-8.33551,41.475939989089966
1619089793.8407,-8.970642,41.49156999588013
1619089793.85632,-9.584717,41.507189989089966
1619089793.87195,-9.987488,41.52281999588013
1619089793.88758,-9.968262,41.53845000267029
1619089793.9032,-9.312866,41.55406999588013
1619089793.91883,-7.94928,41.56970000267029
1619089793.93445,-5.954468,41.58531999588013
1619089793.95008,-3.48938,41.60095000267029
1619089793.9657,-0.708252,41.61656999588013
1619089793.98133,2.294678,41.63220000267029
1619089793.99696,5.469727,41.64783000946045
1619089794.01258,8.773987,41.66345000267029
1619089794.02821,12.05768,41.67908000946045
1619089794.04383,15.04871,41.69470000267029
1619089794.05946,17.41595,41.71033000946045
1619089794.07508,18.8678,41.72595000267029
1619089794.09071,19.27887,41.74158000946045
1619089794.10634,18.75702,41.75721001625061
1619089794.12196,17.60278,41.77283000946045
1619089794.13759,16.21967,41.78846001625061
1619089794.15321,14.98639,41.80408000946045
1619089794.16884,14.12598,41.81971001625061
1619089794.18446,13.66864,41.83533000946045
1619089794.20009,13.44952,41.85096001625061
1619089794.21572,13.22327,41.86659002304077
1619089794.23134,12.76758,41.88221001625061
1619089794.24697,11.96753,41.89784002304077
1619089794.26259,10.83881,41.91346001625061
1619089794.27822,9.514771,41.92909002304077
1619089794.29385,8.137756,41.94472002983093
1619089794.30947,6.802429,41.96034002304077
1619089794.3251,5.510742,41.97597002983093
1619089794.34072,4.238525,41.99159002304077
1619089794.35635,2.968262,42.00722002983093
1619089794.37197,1.752563,42.02284002304077
1619089794.3876,0.6379395,42.03847002983093
1619089794.40323,-0.3585815,42.054100036621094
1619089794.41885,-1.304504,42.06972002983093
1619089794.43448,-2.317139,42.085350036621094
1619089794.4501,-3.452026,42.10097002983093
1619089794.46573,-4.630249,42.116600036621094
1619089794.48135,-5.652527,42.13222002983093
1619089794.49698,-6.305176,42.147850036621094
1619089794.51261,-6.517517,42.163480043411255
1619089794.52823,-6.412292,42.179100036621094
1619089794.54386,-6.249207,42.194730043411255
1619089794.55948,-6.252747,42.210350036621094
1619089794.57511,-6.458801,42.225980043411255
1619089794.59073,-6.664124,42.241600036621094
1619089794.60636,-6.501221,42.257230043411255
1619089794.62199,-5.633911,42.272860050201416
1619089794.63761,-3.91449,42.288480043411255
1619089794.65324,-1.476074,42.304110050201416
1619089794.66886,1.352356,42.319730043411255
1619089794.68449,4.183044,42.335360050201416
1619089794.70011,6.753845,42.350980043411255
1619089794.71574,8.971252,42.366610050201416
1619089794.73137,10.91522,42.38224005699158
1619089794.74699,12.72302,42.397860050201416
1619089794.76262,14.45197,42.41349005699158
1619089794.77824,16.04803,42.429110050201416
1619089794.79387,17.34509,42.44474005699158
1619089794.80949,18.16687,42.460360050201416
1619089794.82512,18.36731,42.47599005699158
1619089794.84075,17.92664,42.49162006378174
1619089794.85637,16.9729,42.50724005699158
1619089794.872,15.73138,42.52287006378174
1619089794.88762,14.48401,42.53849005699158
1619089794.90325,13.46783,42.55412006378174
1619089794.91887,12.77258,42.56974005699158
1619089794.9345,12.31152,42.58537006378174
1619089794.95013,11.86316,42.6010000705719
1619089794.96575,11.15936,42.61662006378174
1619089794.98138,10.0213,42.6322500705719
1619089794.997,8.47168,42.64787006378174
1619089795.01263,6.709412,42.6635000705719
1619089795.02825,5.032166,42.67912006378174
1619089795.04388,3.710754,42.6947500705719
1619089795.05951,2.866699,42.71038007736206
1619089795.07513,2.499756,42.7260000705719
1619089795.09076,2.551453,42.74163007736206
1619089795.10638,2.952454,42.7572500705719
1619089795.12201,3.654175,42.77288007736206
1619089795.13763,4.528076,42.7885000705719
1619089795.15326,5.3302,42.80413007736206
1619089795.16889,5.733826,42.81976008415222
1619089795.18451,5.43042,42.83538007736206
1619089795.20014,4.283752,42.85101008415222
1619089795.21576,2.37439,42.86663007736206
1619089795.23139,0.0009155273,42.88226008415222
1619089795.24701,-2.44928,42.89788007736206
1619089795.26264,-4.61261,42.91351008415222
1619089795.27827,-6.203735,42.92914009094238
1619089795.29389,-7.079895,42.94476008415222
1619089795.30952,-7.194397,42.96039009094238
1619089795.32514,-6.618469,42.97601008415222
1619089795.34077,-5.555237,42.99164009094238
1619089795.35639,-4.322021,43.00726008415222
1619089795.37202,-3.309326,43.02289009094238
1619089795.38765,-2.785095,43.038520097732544
1619089795.40327,-2.716919,43.05414009094238
1619089795.4189,-2.73584,43.069770097732544
1619089795.43452,-2.300537,43.08539009094238
1619089795.45015,-0.9784546,43.101020097732544
1619089795.46577,1.249207,43.11664009094238
1619089795.4814,3.9375,43.132270097732544
1619089795.49703,6.423889,43.147900104522705
1619089795.51265,8.165344,43.163520097732544
1619089795.52828,9.023499,43.179150104522705
1619089795.5439,9.312988,43.194770097732544
1619089795.55953,9.569336,43.210400104522705
1619089795.57515,10.24164,43.226020097732544
1619089795.59078,11.45074,43.241650104522705
1619089795.60641,12.97797,43.257280111312866
1619089795.62203,14.45441,43.272900104522705
1619089795.63766,15.54639,43.288530111312866
1619089795.65328,16.06152,43.304150104522705
1619089795.66891,15.96857,43.319780111312866
1619089795.68453,15.33594,43.335400104522705
1619089795.70016,14.26538,43.351030111312866
1619089795.71579,12.92047,43.36666011810303
1619089795.73141,11.51971,43.382280111312866
1619089795.74704,10.30005,43.39791011810303
1619089795.76266,9.426453,43.413530111312866
1619089795.77829,8.947571,43.42916011810303
1619089795.79391,8.800293,43.444780111312866
1619089795.80954,8.826843,43.46041011810303
1619089795.82517,8.888062,43.47604012489319
1619089795.84079,8.913269,43.49166011810303
1619089795.85642,8.895142,43.50729012489319
1619089795.87204,8.832336,43.52291011810303
1619089795.88767,8.661621,43.53854012489319
1619089795.90329,8.214172,43.55416011810303
1619089795.91892,7.302856,43.56979012489319
1619089795.93455,5.797974,43.58542013168335
1619089795.95017,3.738342,43.60104012489319
1619089795.9658,1.349609,43.61667013168335
1619089795.98142,-1.045959,43.63229012489319
1619089795.99705,-3.137695,43.64792013168335
1619089796.01267,-4.816467,43.66354012489319
1619089796.0283,-6.173279,43.67917013168335
1619089796.04393,-7.439453,43.69480013847351
1619089796.05955,-8.84491,43.71042013168335
1619089796.07518,-10.43347,43.72605013847351
1619089796.0908,-12.06689,43.74167013168335
1619089796.10643,-13.50128,43.75730013847351
1619089796.12205,-14.52698,43.77292013168335
1619089796.13768,-15.02948,43.78855013847351
1619089796.15331,-15.04907,43.80418014526367
1619089796.16893,-14.66473,43.81980013847351
1619089796.18456,-13.88379,43.83543014526367
1619089796.20018,-12.64374,43.85105013847351
1619089796.21581,-10.87848,43.86668014526367
1619089796.23143,-8.577515,43.88230013847351
1619089796.24706,-5.883667,43.89793014526367
1619089796.26269,-3.072998,43.91356015205383
1619089796.27831,-0.4587402,43.92918014526367
1619089796.29394,1.731384,43.94481015205383
1619089796.30956,3.414368,43.96043014526367
1619089796.32519,4.631042,43.97606015205383
1619089796.34081,5.482971,43.99168014526367
1619089796.35644,6.061523,44.00731015205383
1619089796.37207,6.389282,44.022940158843994
1619089796.38769,6.474792,44.03856015205383
1619089796.40332,6.326599,44.054190158843994
1619089796.41894,5.997192,44.06981015205383
1619089796.43457,5.549927,44.085440158843994
1619089796.45019,4.993225,44.10106015205383
1619089796.46582,4.294312,44.116690158843994
1619089796.48145,3.385315,44.132320165634155
1619089796.49707,2.288818,44.147940158843994
1619089796.5127,1.162415,44.163570165634155
1619089796.52832,0.2623901,44.179190158843994
1619089796.54395,-0.1655273,44.194820165634155
1619089796.55958,-0.0456543,44.210450172424316
1619089796.5752,0.5044556,44.226070165634155
1619089796.59083,1.215027,44.241700172424316
1619089796.60645,1.849976,44.257320165634155
1619089796.62208,2.325256,44.272950172424316
1619089796.6377,2.724487,44.288570165634155
1619089796.65333,3.142273,44.304200172424316
1619089796.66896,3.5224,44.31983017921448
1619089796.68458,3.680786,44.335450172424316
1619089796.70021,3.459595,44.35108017921448
1619089796.71583,2.888794,44.366700172424316
1619089796.73146,2.210205,44.38233017921448
1619089796.74708,1.755249,44.397950172424316
1619089796.76271,1.638733,44.41358017921448
1619089796.77834,1.646851,44.42921018600464
1619089796.79396,1.336426,44.44483017921448
1619089796.80959,0.3319702,44.46046018600464
1619089796.82521,-1.41748,44.47608017921448
1619089796.84084,-3.566772,44.49171018600464
1619089796.85646,-5.549866,44.50733017921448
1619089796.87209,-6.891907,44.52296018600464
1619089796.88772,-7.401184,44.5385901927948
1619089796.90334,-7.173279,44.55421018600464
1619089796.91897,-6.432739,44.5698401927948
