timestamp,value,norm_ts
1619378607.96957,-49.50134,3.1111299991607666
1619378607.9852,-13.27692,3.1267600059509277
1619378608.00082,17.70367,3.1423799991607666
1619378608.01645,43.57864,3.1580100059509277
1619378608.03208,64.92899,3.173640012741089
1619378608.0477,82.19363,3.1892600059509277
1619378608.06333,95.56229,3.204890012741089
1619378608.07895,105.2999,3.2205100059509277
1619378608.09458,112.1601,3.236140012741089
1619378608.1102,117.4149,3.2517600059509277
1619378608.12583,122.5422,3.267390012741089
1619378608.14146,128.7207,3.28302001953125
1619378608.15708,136.4496,3.298640012741089
1619378608.17271,145.4734,3.31427001953125
1619378608.18833,155.1138,3.329890012741089
1619378608.20396,164.723,3.34552001953125
1619378608.21958,173.9929,3.361140012741089
1619378608.23521,182.927,3.37677001953125
1619378608.25084,191.4841,3.392400026321411
1619378608.26646,199.1986,3.40802001953125
1619378608.28209,204.9626,3.423650026321411
1619378608.29771,207.2144,3.43927001953125
1619378608.31334,204.4553,3.454900026321411
1619378608.32896,195.8779,3.47052001953125
1619378608.34459,181.7482,3.486150026321411
1619378608.36022,163.4051,3.5017800331115723
1619378608.37584,142.7906,3.517400026321411
1619378608.39147,121.7741,3.5330300331115723
1619378608.40709,101.5544,3.548650026321411
1619378608.42272,82.3826,3.5642800331115723
1619378608.43834,63.64117,3.579900026321411
1619378608.45397,44.25845,3.5955300331115723
1619378608.4696,23.16351,3.6111600399017334
1619378608.48522,-0.2785034,3.6267800331115723
1619378608.50085,-25.93094,3.6424100399017334
1619378608.51647,-52.64081,3.6580300331115723
1619378608.5321,-78.23743,3.6736600399017334
1619378608.54773,-99.78162,3.6892900466918945
1619378608.56335,-114.221,3.7049100399017334
1619378608.57898,-119.3033,3.7205400466918945
1619378608.5946,-114.3816,3.7361600399017334
1619378608.61023,-100.7516,3.7517900466918945
1619378608.62585,-81.332,3.7674100399017334
1619378608.64148,-59.70941,3.7830400466918945
1619378608.65711,-39.07825,3.7986700534820557
1619378608.67273,-21.47723,3.8142900466918945
1619378608.68836,-7.678467,3.8299200534820557
1619378608.70398,2.439728,3.8455400466918945
1619378608.71961,9.266968,3.8611700534820557
1619378608.73523,13.12177,3.8767900466918945
1619378608.75086,14.18048,3.8924200534820557
1619378608.76649,12.69373,3.908050060272217
1619378608.78211,9.198456,3.9236700534820557
1619378608.79774,4.48822,3.939300060272217
1619378608.81336,-0.5377197,3.9549200534820557
1619378608.82899,-5.174072,3.970550060272217
1619378608.84461,-9.072006,3.9861700534820557
1619378608.86024,-12.25545,4.001800060272217
1619378608.87587,-14.93048,4.017430067062378
1619378608.89149,-17.28461,4.033050060272217
1619378608.90712,-19.32806,4.048680067062378
1619378608.92274,-20.84505,4.064300060272217
1619378608.93837,-21.58543,4.079930067062378
1619378608.95399,-21.46861,4.095550060272217
1619378608.96962,-20.80244,4.111180067062378
1619378608.98525,-20.32173,4.126810073852539
1619378609.00087,-21.03549,4.142430067062378
1619378609.0165,-23.86539,4.158060073852539
1619378609.03212,-29.32352,4.173680067062378
1619378609.04775,-37.24854,4.189310073852539
1619378609.06337,-46.8521,4.204930067062378
1619378609.079,-57.02708,4.220560073852539
1619378609.09463,-66.79602,4.2361900806427
1619378609.11025,-75.71916,4.251810073852539
1619378609.12588,-84.05667,4.2674400806427
1619378609.1415,-92.71753,4.283060073852539
1619378609.15713,-102.9147,4.2986900806427
1619378609.17275,-115.6535,4.314310073852539
1619378609.18838,-131.2408,4.3299400806427
1619378609.20401,-148.8535,4.345570087432861
1619378609.21963,-166.3943,4.3611900806427
1619378609.23526,-180.8266,4.376820087432861
1619378609.25088,-188.8912,4.3924400806427
1619378609.26651,-188.139,4.408070087432861
1619378609.28213,-177.7762,4.4236900806427
1619378609.29776,-159.0556,4.439320087432861
1619378609.31339,-134.8857,4.4549500942230225
1619378609.32901,-108.8187,4.470570087432861
1619378609.34464,-83.90512,4.4862000942230225
1619378609.36026,-61.89006,4.501820087432861
1619378609.37589,-43.03206,4.5174500942230225
1619378609.39151,-26.6091,4.533070087432861
1619378609.40714,-11.6521,4.5487000942230225
1619378609.42277,2.457245,4.564330101013184
1619378609.43839,15.85258,4.5799500942230225
1619378609.45402,28.40578,4.595580101013184
1619378609.46964,40.09937,4.6112000942230225
1619378609.48527,51.28593,4.626830101013184
1619378609.50089,62.59668,4.6424500942230225
1619378609.51652,74.67104,4.658080101013184
1619378609.53215,87.78777,4.673710107803345
1619378609.54777,101.6916,4.689330101013184
1619378609.5634,115.5998,4.704960107803345
1619378609.57902,128.4893,4.720580101013184
1619378609.59465,139.4526,4.736210107803345
1619378609.61027,147.9198,4.751830101013184
1619378609.6259,153.7169,4.767460107803345
1619378609.64153,156.8457,4.783090114593506
1619378609.65715,157.2161,4.798710107803345
1619378609.67278,154.4227,4.814340114593506
1619378609.6884,147.7841,4.829960107803345
1619378609.70403,136.6414,4.845590114593506
1619378609.71965,120.8109,4.861210107803345
1619378609.73528,100.8976,4.876840114593506
1619378609.75091,78.36285,4.892470121383667
1619378609.76653,55.14664,4.908090114593506
1619378609.78216,33.11113,4.923720121383667
1619378609.79778,13.47737,4.939340114593506
1619378609.81341,-3.477539,4.954970121383667
1619378609.82903,-18.3811,4.970590114593506
1619378609.84466,-32.4301,4.986220121383667
1619378609.86029,-46.91943,5.001850128173828
1619378609.87591,-62.86023,5.017470121383667
1619378609.89154,-80.54207,5.033100128173828
1619378609.90716,-99.29257,5.048720121383667
1619378609.92279,-117.3345,5.064350128173828
1619378609.93841,-131.9798,5.079970121383667
1619378609.95404,-140.2066,5.095600128173828
1619378609.96967,-139.5626,5.111230134963989
1619378609.98529,-129.0475,5.126850128173828
1619378610.00092,-109.6129,5.142480134963989
1619378610.01654,-83.97009,5.158100128173828
1619378610.03217,-55.78154,5.173730134963989
1619378610.04779,-28.4966,5.189350128173828
1619378610.06342,-4.472794,5.204980134963989
1619378610.07905,15.35992,5.22061014175415
1619378610.09467,31.1702,5.236230134963989
1619378610.1103,43.55879,5.25186014175415
1619378610.12592,52.96602,5.267480134963989
1619378610.14155,59.4386,5.28311014175415
1619378610.15717,62.83347,5.298730134963989
1619378610.1728,63.17039,5.31436014175415
1619378610.18843,60.90779,5.3299901485443115
1619378610.20405,56.91812,5.34561014175415
1619378610.21968,52.25941,5.3612401485443115
1619378610.2353,47.81566,5.37686014175415
1619378610.25093,44.09373,5.3924901485443115
1619378610.26655,41.21053,5.40811014175415
1619378610.28218,39.04901,5.4237401485443115
1619378610.29781,37.48372,5.439370155334473
1619378610.31343,36.46568,5.4549901485443115
1619378610.32906,35.98431,5.470620155334473
1619378610.34468,35.85934,5.4862401485443115
1619378610.36031,35.66283,5.501870155334473
1619378610.37593,34.66898,5.5174901485443115
1619378610.39156,32.15363,5.533120155334473
1619378610.40719,27.63002,5.548750162124634
1619378610.42281,21.05458,5.564370155334473
1619378610.43844,12.81552,5.580000162124634
1619378610.45406,3.505783,5.595620155334473
1619378610.46969,-6.367676,5.611250162124634
1619378610.48531,-16.61948,5.626870155334473
1619378610.50094,-27.41995,5.642500162124634
1619378610.51657,-39.11784,5.658130168914795
1619378610.53219,-51.98042,5.673750162124634
1619378610.54782,-65.93576,5.689380168914795
1619378610.56344,-80.42529,5.705000162124634
1619378610.57907,-94.46893,5.720630168914795
1619378610.59469,-106.9314,5.736250162124634
1619378610.61032,-116.8921,5.751880168914795
1619378610.62595,-124.0198,5.767510175704956
1619378610.64157,-128.7784,5.783130168914795
1619378610.6572,-132.3902,5.798760175704956
1619378610.67282,-136.5242,5.814380168914795
1619378610.68845,-142.658,5.830010175704956
1619378610.70407,-151.3432,5.845630168914795
1619378610.7197,-161.553,5.861260175704956
1619378610.73533,-170.5756,5.876890182495117
1619378610.75095,-174.5272,5.892510175704956
1619378610.76658,-169.5361,5.908140182495117
1619378610.7822,-153.1389,5.923760175704956
1619378610.79783,-125.272,5.939390182495117
1619378610.81346,-88.48239,5.955020189285278
1619378610.82908,-47.06805,5.970640182495117
1619378610.84471,-5.678406,5.986270189285278
1619378610.86033,32.08667,6.001890182495117
1619378610.87596,64.33502,6.017520189285278
1619378610.89158,90.73755,6.033140182495117
1619378610.90721,111.7375,6.048770189285278
1619378610.92284,127.7402,6.0644001960754395
1619378610.93846,138.7339,6.080020189285278
1619378610.95409,144.4899,6.0956501960754395
1619378610.96971,145.0911,6.111270189285278
1619378610.98534,141.2639,6.1269001960754395
1619378611.00096,134.387,6.142520189285278
1619378611.01659,126.0668,6.1581501960754395
1619378611.03222,117.6174,6.1737799644470215
1619378611.04784,109.7477,6.1894001960754395
1619378611.06347,102.5708,6.2050299644470215
1619378611.07909,95.87851,6.2206501960754395
1619378611.09472,89.49127,6.2362799644470215
1619378611.11034,83.50839,6.2519001960754395
1619378611.12597,78.23553,6.2675299644470215
1619378611.1416,73.9838,6.283159971237183
1619378611.15722,70.78867,6.2987799644470215
1619378611.17285,68.21078,6.314409971237183
1619378611.18847,65.40988,6.3300299644470215
1619378611.2041,61.39157,6.345659971237183
1619378611.21972,55.41238,6.3612799644470215
1619378611.23535,47.28888,6.376909971237183
1619378611.25098,37.56729,6.392539978027344
1619378611.2666,27.33347,6.408159971237183
1619378611.28223,17.90057,6.423789978027344
1619378611.29785,10.40448,6.439409971237183
1619378611.31348,5.480011,6.455039978027344
1619378611.3291,3.197998,6.470659971237183
1619378611.34473,3.167877,6.486289978027344
1619378611.36036,4.822723,6.501919984817505
1619378611.37598,7.62204,6.517539978027344
1619378611.39161,11.13574,6.533169984817505
1619378611.40723,14.96674,6.548789978027344
1619378611.42286,18.60913,6.564419984817505
1619378611.43848,21.31061,6.580039978027344
1619378611.45411,22.10205,6.595669984817505
1619378611.46974,20.02982,6.611299991607666
1619378611.48536,14.42242,6.626919984817505
1619378611.50099,5.166565,6.642549991607666
1619378611.51661,-7.254028,6.658169984817505
1619378611.53224,-21.9064,6.673799991607666
1619378611.54786,-37.75891,6.689419984817505
1619378611.56349,-54.04657,6.705049991607666
1619378611.57912,-70.50839,6.720679998397827
1619378611.59474,-87.45734,6.736299991607666
1619378611.61037,-105.6438,6.751929998397827
1619378611.62599,-125.9416,6.767549991607666
1619378611.64162,-148.8692,6.783179998397827
1619378611.65724,-174.0372,6.798799991607666
1619378611.67287,-199.7227,6.814429998397827
1619378611.6885,-222.8429,6.830060005187988
1619378611.70412,-239.5667,6.845679998397827
1619378611.71975,-246.4712,6.861310005187988
1619378611.73537,-241.8857,6.876929998397827
1619378611.751,-226.7359,6.892560005187988
1619378611.76662,-204.4719,6.908179998397827
1619378611.78225,-179.8902,6.923810005187988
1619378611.79788,-157.4669,6.939440011978149
1619378611.8135,-139.85,6.955060005187988
1619378611.82913,-127.3545,6.970690011978149
1619378611.84475,-118.4729,6.986310005187988
1619378611.86038,-111.0804,7.001940011978149
1619378611.876,-103.618,7.017560005187988
1619378611.89163,-95.69394,7.033190011978149
1619378611.90726,-87.89255,7.0488200187683105
1619378611.92288,-81.12378,7.064440011978149
1619378611.93851,-75.92896,7.0800700187683105
1619378611.95413,-72.06137,7.095690011978149
1619378611.96976,-68.50757,7.1113200187683105
1619378611.98538,-63.6897,7.126940011978149
1619378612.00101,-55.93881,7.1425700187683105
1619378612.01664,-43.88336,7.158200025558472
1619378612.03226,-26.79724,7.1738200187683105
1619378612.04789,-4.691772,7.189450025558472
1619378612.06351,21.85284,7.2050700187683105
1619378612.07914,52.05481,7.220700025558472
1619378612.09476,85.25092,7.2363200187683105
1619378612.11039,121.0163,7.251950025558472
1619378612.12602,158.9707,7.267580032348633
1619378612.14164,198.4435,7.283200025558472
1619378612.15727,238.2111,7.298830032348633
1619378612.17289,276.5572,7.314450025558472
1619378612.18852,311.6709,7.330080032348633
1619378612.20414,342.1678,7.345700025558472
1619378612.21977,367.4368,7.361330032348633
1619378612.2354,387.6303,7.376960039138794
1619378612.25102,403.311,7.392580032348633
1619378612.26665,414.9695,7.408210039138794
1619378612.28227,422.6919,7.423830032348633
1619378612.2979,426.1047,7.439460039138794
1619378612.31352,424.5621,7.455080032348633
1619378612.32915,417.3613,7.470710039138794
1619378612.34478,403.9644,7.486340045928955
1619378612.3604,384.1237,7.501960039138794
1619378612.37603,358.038,7.517590045928955
1619378612.39165,326.4146,7.533210039138794
1619378612.40728,290.5222,7.548840045928955
1619378612.4229,251.9377,7.564460039138794
1619378612.43853,212.2641,7.580090045928955
1619378612.45416,172.8016,7.595720052719116
1619378612.46978,134.3989,7.611340045928955
1619378612.48541,97.58789,7.626970052719116
1619378612.50103,62.82288,7.642590045928955
1619378612.51666,30.73413,7.658220052719116
1619378612.53228,2.110535,7.673840045928955
1619378612.54791,-22.3775,7.689470052719116
1619378612.56354,-42.5686,7.705100059509277
1619378612.57916,-59.07001,7.720720052719116
1619378612.59479,-73.19885,7.736350059509277
1619378612.61041,-86.60349,7.751970052719116
1619378612.62604,-100.6962,7.767600059509277
1619378612.64166,-116.1696,7.783220052719116
1619378612.65729,-132.695,7.798850059509277
1619378612.67292,-148.9433,7.8144800662994385
1619378612.68854,-162.8564,7.830100059509277
1619378612.70417,-172.1442,7.8457300662994385
1619378612.71979,-174.9881,7.861350059509277
1619378612.73542,-170.6261,7.8769800662994385
1619378612.75104,-159.696,7.892600059509277
1619378612.76667,-144.104,7.9082300662994385
1619378612.7823,-126.4473,7.9238600730896
1619378612.79792,-109.1239,7.9394800662994385
1619378612.81355,-93.63354,7.9551100730896
1619378612.82917,-80.3421,7.9707300662994385
1619378612.8448,-68.73703,7.9863600730896
1619378612.86042,-58.08769,8.001980066299438
1619378612.87605,-48.04749,8.0176100730896
1619378612.89168,-38.92645,8.03324007987976
1619378612.9073,-31.48695,8.0488600730896
1619378612.92293,-26.43747,8.06449007987976
1619378612.93855,-23.89798,8.0801100730896
1619378612.95418,-23.20158,8.09574007987976
1619378612.96981,-23.07802,8.111370086669922
1619378612.98543,-22.14645,8.12699007987976
1619378613.00106,-19.47371,8.142620086669922
1619378613.01668,-14.89783,8.15824007987976
1619378613.03231,-8.938759,8.173870086669922
1619378613.04793,-2.46093,8.18949007987976
1619378613.06356,3.765388,8.205120086669922
1619378613.07919,9.368603,8.220750093460083
1619378613.09481,14.34242,8.236370086669922
1619378613.11044,18.76814,8.252000093460083
1619378613.12606,22.56785,8.267620086669922
1619378613.14169,25.37583,8.283250093460083
1619378613.15731,26.66988,8.298870086669922
1619378613.17294,26.05002,8.314500093460083
1619378613.18857,23.52174,8.330130100250244
1619378613.20419,19.5278,8.345750093460083
1619378613.21982,14.82737,8.361380100250244
1619378613.23544,10.1777,8.377000093460083
1619378613.25107,6.09037,8.392630100250244
1619378613.26669,2.678825,8.408250093460083
1619378613.28232,-0.2884827,8.423880100250244
1619378613.29795,-3.245064,8.439510107040405
1619378613.31357,-6.619476,8.455130100250244
1619378613.3292,-10.67351,8.470760107040405
1619378613.34482,-15.39832,8.486380100250244
1619378613.36045,-20.49129,8.502010107040405
1619378613.37607,-25.44321,8.517630100250244
1619378613.3917,-29.72502,8.533260107040405
1619378613.40733,-33.01729,8.548890113830566
1619378613.42295,-35.36728,8.564510107040405
1619378613.43858,-37.24173,8.580140113830566
1619378613.4542,-39.34013,8.595760107040405
1619378613.46983,-42.30685,8.611390113830566
1619378613.48545,-46.41319,8.627010107040405
1619378613.50108,-51.42683,8.642640113830566
1619378613.51671,-56.73166,8.658270120620728
1619378613.53233,-61.64131,8.673890113830566
1619378613.54796,-65.73724,8.689520120620728
1619378613.56358,-69.04044,8.705140113830566
1619378613.57921,-72.02423,8.720770120620728
1619378613.59483,-75.38756,8.736390113830566
1619378613.61046,-79.85806,8.752020120620728
1619378613.62609,-86.00589,8.767650127410889
1619378613.64171,-94.1001,8.783270120620728
1619378613.65734,-103.9121,8.798900127410889
1619378613.67296,-114.4881,8.814520120620728
1619378613.68859,-124.0192,8.830150127410889
1619378613.70421,-130.0461,8.845770120620728
1619378613.71984,-130.0534,8.861400127410889
1619378613.73547,-122.3285,8.87703013420105
1619378613.75109,-106.741,8.892650127410889
1619378613.76672,-84.93976,8.90828013420105
1619378613.78234,-59.92175,8.923900127410889
1619378613.79797,-35.03653,8.93953013420105
1619378613.81359,-12.94867,8.955150127410889
1619378613.82922,4.980225,8.97078013420105
1619378613.84485,18.63306,8.986410140991211
1619378613.86047,28.63608,9.00203013420105
1619378613.8761,35.70926,9.017660140991211
1619378613.89172,40.26102,9.03328013420105
1619378613.90735,42.41733,9.048910140991211
1619378613.92297,42.29388,9.06453013420105
1619378613.9386,40.24438,9.080160140991211
1619378613.95423,36.99631,9.095790147781372
1619378613.96985,33.48587,9.111410140991211
1619378613.98548,30.60272,9.127040147781372
1619378614.0011,28.92889,9.142660140991211
1619378614.01673,28.59106,9.158290147781372
1619378614.03235,29.28027,9.173910140991211
1619378614.04798,30.44833,9.189540147781372
1619378614.06361,31.52295,9.205170154571533
1619378614.07923,32.1398,9.220790147781372
1619378614.09486,32.23618,9.236420154571533
1619378614.11048,31.99216,9.252040147781372
1619378614.12611,31.64786,9.267670154571533
1619378614.14173,31.3082,9.283290147781372
1619378614.15736,30.8288,9.298920154571533
1619378614.17299,29.86874,9.314550161361694
1619378614.18861,28.06464,9.330170154571533
1619378614.20424,25.22809,9.345800161361694
1619378614.21986,21.44797,9.361420154571533
1619378614.23549,17.0813,9.377050161361694
1619378614.25111,12.53976,9.392670154571533
1619378614.26674,8.12793,9.408300161361694
1619378614.28237,3.933441,9.423930168151855
1619378614.29799,-0.1552734,9.439550161361694
1619378614.31362,-4.328949,9.455180168151855
1619378614.32924,-8.762695,9.470800161361694
1619378614.34487,-13.52905,9.486430168151855
1619378614.36049,-18.62613,9.502050161361694
1619378614.37612,-23.93607,9.517680168151855
1619378614.39175,-29.30438,9.533310174942017
1619378614.40737,-34.50333,9.548930168151855
1619378614.423,-39.29816,9.564560174942017
1619378614.43862,-43.50635,9.580180168151855
1619378614.45425,-47.11481,9.595810174942017
1619378614.46987,-50.32745,9.611430168151855
1619378614.4855,-53.56631,9.627060174942017
1619378614.50113,-57.33136,9.642690181732178
1619378614.51675,-62.11896,9.658310174942017
1619378614.53238,-68.28629,9.673940181732178
1619378614.548,-75.87265,9.689560174942017
1619378614.56363,-84.43298,9.705190181732178
1619378614.57925,-92.84851,9.720810174942017
1619378614.59488,-99.27335,9.736440181732178
1619378614.61051,-101.4233,9.752070188522339
1619378614.62613,-97.18921,9.767690181732178
1619378614.64176,-85.40784,9.783320188522339
1619378614.65738,-66.50342,9.798940181732178
1619378614.67301,-42.52496,9.814570188522339
1619378614.68863,-16.57065,9.830190181732178
1619378614.70426,8.154572,9.845820188522339
1619378614.71989,29.24524,9.8614501953125
1619378614.73551,45.59698,9.877070188522339
1619378614.75114,57.28381,9.8927001953125
1619378614.76676,65.00089,9.908320188522339
1619378614.78239,69.49802,9.9239501953125
1619378614.79801,71.20584,9.939570188522339
1619378614.81364,70.24585,9.9552001953125
1619378614.82927,66.73083,9.970829963684082
1619378614.84489,61.01837,9.9864501953125
1619378614.86052,53.83398,10.002079963684082
1619378614.87614,46.17572,10.0177001953125
1619378614.89177,39.04584,10.033329963684082
1619378614.90739,33.15582,10.0489501953125
1619378614.92302,28.81561,10.064579963684082
1619378614.93865,25.93359,10.080209970474243
1619378614.95427,24.21875,10.095829963684082
1619378614.9699,23.3515,10.111459970474243
1619378614.98552,23.1261,10.127079963684082
1619378615.00115,23.39172,10.142709970474243
1619378615.01677,23.95874,10.158329963684082
1619378615.0324,24.46094,10.173959970474243
1619378615.04803,24.35437,10.189589977264404
1619378615.06365,23.07306,10.205209970474243
1619378615.07928,20.23688,10.220839977264404
1619378615.0949,15.8681,10.236459970474243
1619378615.11053,10.42377,10.252089977264404
1619378615.12615,4.655762,10.267709970474243
1619378615.14178,-0.6832886,10.283339977264404
1619378615.15741,-5.201294,10.298969984054565
1619378615.17303,-9.03656,10.314589977264404
1619378615.18866,-12.83282,10.330219984054565
1619378615.20428,-17.42517,10.345839977264404
1619378615.21991,-23.38477,10.361469984054565
1619378615.23553,-30.71906,10.377089977264404
1619378615.25116,-38.78577,10.392719984054565
1619378615.26679,-46.58551,10.408349990844727
1619378615.28241,-53.20593,10.423969984054565
1619378615.29804,-58.22272,10.439599990844727
1619378615.31366,-61.84521,10.455219984054565
1619378615.32929,-64.79443,10.470849990844727
1619378615.34491,-68.07129,10.486469984054565
1619378615.36054,-72.66534,10.502099990844727
1619378615.37617,-79.30902,10.517729997634888
1619378615.39179,-88.24664,10.533349990844727
1619378615.40742,-98.91028,10.548979997634888
1619378615.42304,-109.7448,10.564599990844727
1619378615.43867,-118.2323,10.580229997634888
1619378615.45429,-121.3983,10.595849990844727
1619378615.46992,-116.7025,10.611479997634888
1619378615.48555,-103.0541,10.627110004425049
1619378615.50117,-81.36719,10.642729997634888
1619378615.5168,-54.41711,10.658360004425049
1619378615.53242,-25.9798,10.673979997634888
1619378615.54805,0.4194946,10.689610004425049
1619378615.56367,22.42029,10.705229997634888
1619378615.5793,39.20813,10.720860004425049
1619378615.59493,51.18512,10.73649001121521
1619378615.61055,59.28479,10.752110004425049
1619378615.62618,64.34558,10.76774001121521
1619378615.6418,66.867,10.783360004425049
1619378615.65743,67.09442,10.79899001121521
1619378615.67306,65.31592,10.814620018005371
1619378615.68868,62.05743,10.83024001121521
1619378615.70431,58.06635,10.845870018005371
1619378615.71993,54.1167,10.86149001121521
1619378615.73556,50.71973,10.877120018005371
1619378615.75118,48.03314,10.89274001121521
1619378615.76681,45.89545,10.908370018005371
1619378615.78244,44.07318,10.924000024795532
1619378615.79806,42.47247,10.939620018005371
1619378615.81369,41.25421,10.955250024795532
1619378615.82931,40.72107,10.970870018005371
1619378615.84494,41.06158,10.986500024795532
1619378615.86056,42.04816,11.002120018005371
1619378615.87619,42.99695,11.017750024795532
1619378615.89182,42.93054,11.033380031585693
1619378615.90744,41.00507,11.049000024795532
1619378615.92307,36.90253,11.064630031585693
1619378615.93869,31.01691,11.080250024795532
1619378615.95432,24.25494,11.095880031585693
1619378615.96994,17.61835,11.111500024795532
1619378615.98557,11.71979,11.127130031585693
1619378616.0012,6.526672,11.142760038375854
1619378616.01682,1.481384,11.158380031585693
1619378616.03245,-4.187866,11.174010038375854
1619378616.04807,-10.995,11.189630031585693
1619378616.0637,-18.93719,11.205260038375854
1619378616.07932,-27.50629,11.220880031585693
1619378616.09495,-35.92566,11.236510038375854
1619378616.11058,-43.46674,11.252140045166016
1619378616.1262,-49.73328,11.267760038375854
1619378616.14183,-54.83301,11.283390045166016
1619378616.15745,-59.33911,11.299010038375854
1619378616.17308,-64.15784,11.314640045166016
1619378616.1887,-70.32538,11.330260038375854
1619378616.20433,-78.68372,11.345890045166016
1619378616.21996,-89.41986,11.361520051956177
1619378616.23558,-101.7261,11.377140045166016
1619378616.25121,-113.54,11.392770051956177
1619378616.26683,-121.856,11.408390045166016
1619378616.28246,-123.4533,11.424020051956177
1619378616.29808,-115.9968,11.439640045166016
1619378616.31371,-98.96692,11.455270051956177
1619378616.32934,-74.02374,11.470900058746338
1619378616.34496,-44.55096,11.486520051956177
1619378616.36059,-14.57709,11.502150058746338
1619378616.37621,12.43878,11.517770051956177
1619378616.39184,34.43689,11.533400058746338
1619378616.40746,50.92773,11.549020051956177
1619378616.42309,62.47589,11.564650058746338
1619378616.43872,70.02063,11.580280065536499
1619378616.45434,74.29028,11.595900058746338
1619378616.46997,75.716,11.611530065536499
1619378616.48559,74.58362,11.627150058746338
1619378616.50122,71.3338,11.642780065536499
1619378616.51684,66.6936,11.658400058746338
1619378616.53247,61.53418,11.674030065536499
1619378616.5481,56.6427,11.68966007232666
1619378616.56372,52.50287,11.705280065536499
1619378616.57935,49.2453,11.72091007232666
1619378616.59497,46.73676,11.736530065536499
1619378616.6106,44.81805,11.75216007232666
1619378616.62622,43.45587,11.767780065536499
1619378616.64185,42.76947,11.78341007232666
1619378616.65748,42.87305,11.799040079116821
1619378616.6731,43.70044,11.81466007232666
1619378616.68873,44.84314,11.830290079116821
1619378616.70435,45.5639,11.84591007232666
1619378616.71998,45.04901,11.861540079116821
1619378616.7356,42.68225,11.87716007232666
1619378616.75123,38.31641,11.892790079116821
1619378616.76686,32.31854,11.908420085906982
1619378616.78248,25.40826,11.924040079116821
1619378616.79811,18.27228,11.939670085906982
1619378616.81373,11.28503,11.955290079116821
1619378616.82936,4.339111,11.970920085906982
1619378616.84498,-3.021362,11.986540079116821
1619378616.86061,-11.28223,12.002170085906982
1619378616.87624,-20.61359,12.017800092697144
1619378616.89186,-30.7251,12.033420085906982
1619378616.90749,-40.92072,12.049050092697144
1619378616.92311,-50.36011,12.064670085906982
1619378616.93874,-58.44116,12.080300092697144
1619378616.95436,-65.01306,12.095920085906982
1619378616.96999,-70.46167,12.111550092697144
1619378616.98562,-75.58417,12.127180099487305
1619378617.00124,-81.40234,12.142800092697144
1619378617.01687,-88.88812,12.158430099487305
1619378617.03249,-98.62482,12.174050092697144
1619378617.04812,-110.3745,12.189680099487305
1619378617.06374,-122.7554,12.205300092697144
1619378617.07937,-133.1962,12.220930099487305
1619378617.095,-138.4154,12.236560106277466
1619378617.11062,-135.3898,12.252180099487305
1619378617.12625,-122.455,12.267810106277466
1619378617.14187,-100.0725,12.283430099487305
1619378617.1575,-70.85333,12.299060106277466
1619378617.17312,-38.76459,12.314680099487305
1619378617.18875,-7.881836,12.330310106277466
1619378617.20438,18.74261,12.345940113067627
1619378617.22,39.63446,12.361560106277466
1619378617.23563,54.75906,12.377190113067627
1619378617.25125,64.8746,12.392810106277466
1619378617.26688,70.87415,12.408440113067627
1619378617.2825,73.45047,12.424060106277466
1619378617.29813,73.06543,12.439690113067627
1619378617.31376,70.17828,12.455320119857788
1619378617.32938,65.43198,12.470940113067627
1619378617.34501,59.62631,12.486570119857788
1619378617.36063,53.58536,12.502190113067627
1619378617.37626,47.98895,12.517820119857788
1619378617.39188,43.27258,12.533440113067627
1619378617.40751,39.62064,12.549070119857788
1619378617.42314,37.1069,12.56470012664795
1619378617.43876,35.74609,12.580320119857788
1619378617.45439,35.49716,12.59595012664795
1619378617.47001,36.23022,12.611570119857788
1619378617.48564,37.57343,12.62720012664795
1619378617.50126,38.94144,12.642820119857788
1619378617.51689,39.61575,12.65845012664795
1619378617.53252,38.96033,12.67408013343811
1619378617.54814,36.64261,12.68970012664795
1619378617.56377,32.7489,12.70533013343811
1619378617.57939,27.6976,12.72095012664795
1619378617.59502,22.01123,12.73658013343811
1619378617.61064,16.04214,12.75220012664795
1619378617.62627,9.830231,12.76783013343811
1619378617.6419,3.124847,12.783460140228271
1619378617.65752,-4.385345,12.79908013343811
1619378617.67315,-12.8049,12.814710140228271
1619378617.68877,-21.92648,12.83033013343811
1619378617.7044,-31.21045,12.845960140228271
1619378617.72002,-40.04678,12.86158013343811
1619378617.73565,-47.95212,12.877210140228271
1619378617.75128,-54.78452,12.892840147018433
1619378617.7669,-60.77722,12.908460140228271
1619378617.78253,-66.53738,12.924090147018433
1619378617.79815,-72.92557,12.939710140228271
1619378617.81378,-80.86005,12.955340147018433
1619378617.82941,-90.9574,12.970970153808594
1619378617.84503,-103.0043,12.986590147018433
1619378617.86066,-115.5469,13.002220153808594
1619378617.87628,-125.8447,13.017840147018433
1619378617.89191,-130.4334,13.033470153808594
1619378617.90753,-126.1805,13.049090147018433
1619378617.92316,-111.5095,13.064720153808594
1619378617.93879,-87.15927,13.080350160598755
1619378617.95441,-56.1091,13.095970153808594
1619378617.97004,-22.6662,13.111600160598755
1619378617.98566,8.877686,13.127220153808594
1619378618.00129,35.42795,13.142850160598755
1619378618.01691,55.62186,13.158470153808594
1619378618.03254,69.64502,13.174100160598755
1619378618.04817,78.55878,13.189730167388916
1619378618.06379,83.58881,13.205350160598755
1619378618.07942,85.68677,13.220980167388916
1619378618.09504,85.42792,13.236600160598755
1619378618.11067,83.216,13.252230167388916
1619378618.12629,79.44006,13.267850160598755
1619378618.14192,74.58078,13.283480167388916
1619378618.15755,69.22882,13.299110174179077
1619378618.17317,63.98071,13.314730167388916
1619378618.1888,59.34515,13.330360174179077
1619378618.20442,55.70905,13.345980167388916
1619378618.22005,53.2861,13.361610174179077
1619378618.23567,52.11478,13.377230167388916
1619378618.2513,52.03241,13.392860174179077
1619378618.26693,52.70001,13.408490180969238
1619378618.28255,53.58908,13.424110174179077
1619378618.29818,54.13358,13.439740180969238
1619378618.3138,53.79089,13.455360174179077
1619378618.32943,52.19632,13.470990180969238
1619378618.34505,49.20947,13.486610174179077
1619378618.36068,44.94135,13.502240180969238
1619378618.37631,39.66388,13.5178701877594
1619378618.39193,33.64209,13.533490180969238
1619378618.40756,27.01117,13.5491201877594
1619378618.42318,19.73901,13.564740180969238
1619378618.43881,11.68146,13.5803701877594
1619378618.45443,2.750854,13.595990180969238
1619378618.47006,-6.955688,13.6116201877594
1619378618.48569,-17.10046,13.62725019454956
1619378618.50131,-27.20346,13.6428701877594
1619378618.51694,-36.8139,13.65850019454956
1619378618.53256,-45.71216,13.6741201877594
1619378618.54819,-53.96802,13.68975019454956
1619378618.56381,-61.94147,13.7053701877594
1619378618.57944,-70.24356,13.72100019454956
1619378618.59507,-79.5979,13.736629962921143
1619378618.61069,-90.64633,13.75225019454956
1619378618.62632,-103.564,13.767879962921143
1619378618.64194,-117.5725,13.78350019454956
1619378618.65757,-130.6306,13.799129962921143
1619378618.67319,-139.6161,13.81475019454956
1619378618.68882,-141.0891,13.830379962921143
1619378618.70445,-132.4891,13.846009969711304
1619378618.72007,-113.2758,13.861629962921143
1619378618.7357,-85.30904,13.877259969711304
1619378618.75132,-52.37123,13.892879962921143
1619378618.76695,-18.87189,13.908509969711304
1619378618.78257,11.49922,13.924129962921143
1619378618.7982,36.62187,13.939759969711304
1619378618.81383,55.98624,13.955389976501465
1619378618.82945,70.10188,13.971009969711304
1619378618.84508,79.7491,13.986639976501465
1619378618.8607,85.49481,14.002259969711304
1619378618.87633,87.76851,14.017889976501465
1619378618.89195,87.03659,14.033509969711304
1619378618.90758,84.04668,14.049139976501465
1619378618.92321,79.71321,14.064769983291626
1619378618.93883,74.91582,14.080389976501465
1619378618.95446,70.23729,14.096019983291626
1619378618.97008,65.93784,14.111639976501465
1619378618.98571,62.08897,14.127269983291626
1619378619.00133,58.74788,14.142889976501465
1619378619.01696,56.09895,14.158519983291626
1619378619.03259,54.38045,14.174149990081787
1619378619.04821,53.74661,14.189769983291626
1619378619.06384,54.04483,14.205399990081787
1619378619.07946,54.80338,14.221019983291626
1619378619.09509,55.29536,14.236649990081787
1619378619.11071,54.77873,14.252269983291626
1619378619.12634,52.75256,14.267899990081787
1619378619.14197,49.04337,14.283529996871948
1619378619.15759,43.88666,14.299149990081787
1619378619.17322,37.7352,14.314779996871948
1619378619.18884,31.05449,14.330399990081787
1619378619.20447,24.13748,14.346029996871948
1619378619.22009,16.98759,14.361649990081787
1619378619.23572,9.395401,14.377279996871948
1619378619.25135,1.096115,14.39291000366211
1619378619.26697,-7.966187,14.408529996871948
1619378619.2826,-17.52373,14.42416000366211
1619378619.29822,-27.01634,14.439779996871948
1619378619.31385,-35.76253,14.45541000366211
1619378619.32947,-43.26321,14.471029996871948
1619378619.3451,-49.44016,14.48666000366211
1619378619.36073,-54.74495,14.50229001045227
1619378619.37635,-60.08884,14.51791000366211
1619378619.39198,-66.62234,14.53354001045227
1619378619.4076,-75.29691,14.54916000366211
1619378619.42323,-86.36212,14.56479001045227
1619378619.43885,-98.87193,14.58041000366211
1619378619.45448,-110.5381,14.59604001045227
1619378619.47011,-118.0937,14.611670017242432
1619378619.48573,-118.1696,14.62729001045227
1619378619.50136,-108.4663,14.642920017242432
1619378619.51698,-88.70596,14.65854001045227
1619378619.53261,-60.91602,14.674170017242432
1619378619.54823,-28.80819,14.68979001045227
1619378619.56386,3.37252,14.705420017242432
1619378619.57949,32.13457,14.721050024032593
1619378619.59511,55.47142,14.736670017242432
1619378619.61074,72.91425,14.752300024032593
1619378619.62636,85.00549,14.767920017242432
1619378619.64199,92.59367,14.783550024032593
1619378619.65761,96.43941,14.799170017242432
1619378619.67324,97.11395,14.814800024032593
1619378619.68887,95.24164,14.830430030822754
1619378619.70449,91.6039,14.846050024032593
1619378619.72012,87.10971,14.861680030822754
1619378619.73574,82.58085,14.877300024032593
1619378619.75137,78.52206,14.892930030822754
1619378619.76699,75.06919,14.908550024032593
1619378619.78262,72.07431,14.924180030822754
1619378619.79825,69.38905,14.939810037612915
1619378619.81387,67.0063,14.955430030822754
1619378619.8295,65.14053,14.971060037612915
1619378619.84512,64.07855,14.986680030822754
1619378619.86075,63.93266,15.002310037612915
1619378619.87637,64.47477,15.017930030822754
1619378619.892,65.08038,15.033560037612915
1619378619.90763,64.91576,15.049190044403076
1619378619.92325,63.23064,15.064810037612915
1619378619.93888,59.65235,15.080440044403076
1619378619.9545,54.35073,15.096060037612915
1619378619.97013,47.97804,15.111690044403076
1619378619.98575,41.33659,15.127310037612915
1619378620.00138,35.02878,15.142940044403076
1619378620.01701,29.13573,15.158570051193237
1619378620.03263,23.21985,15.174190044403076
1619378620.04826,16.5481,15.189820051193237
1619378620.06388,8.514877,15.205440044403076
1619378620.07951,-0.9851074,15.221070051193237
1619378620.09513,-11.46128,15.236690044403076
1619378620.11076,-21.995,15.252320051193237
1619378620.12639,-31.65186,15.267950057983398
1619378620.14201,-39.92567,15.283570051193237
1619378620.15764,-46.9504,15.299200057983398
1619378620.17326,-53.49417,15.314820051193237
1619378620.18889,-60.69083,15.330450057983398
1619378620.20451,-69.66338,15.346070051193237
1619378620.22014,-81.09474,15.361700057983398
1619378620.23577,-94.84244,15.37733006477356
1619378620.25139,-109.6299,15.392950057983398
1619378620.26702,-122.9738,15.40858006477356
1619378620.28264,-131.5655,15.424200057983398
1619378620.29827,-132.088,15.43983006477356
1619378620.31389,-122.329,15.455450057983398
1619378620.32952,-102.1243,15.47108006477356
1619378620.34515,-73.64148,15.48671007156372
1619378620.36077,-40.83241,15.50233006477356
1619378620.3764,-8.206955,15.51796007156372
1619378620.39202,20.48428,15.53358006477356
1619378620.40765,43.13484,15.54921007156372
1619378620.42327,59.34952,15.56483006477356
1619378620.4389,69.91083,15.58046007156372
1619378620.45453,75.98621,15.596090078353882
1619378620.47015,78.53209,15.61171007156372
1619378620.48578,78.1722,15.627340078353882
1619378620.5014,75.37827,15.64296007156372
1619378620.51703,70.74648,15.658590078353882
1619378620.53266,65.0695,15.674220085144043
1619378620.54828,59.23119,15.689840078353882
1619378620.56391,53.93634,15.705470085144043
1619378620.57953,49.54897,15.721090078353882
1619378620.59516,46.04742,15.736720085144043
1619378620.61078,43.16202,15.752340078353882
1619378620.62641,40.64616,15.767970085144043
1619378620.64204,38.44704,15.783600091934204
1619378620.65766,36.76454,15.799220085144043
1619378620.67329,35.89745,15.814850091934204
1619378620.68891,35.99744,15.830470085144043
1619378620.70454,36.80449,15.846100091934204
1619378620.72016,37.6033,15.861720085144043
1619378620.73579,37.42235,15.877350091934204
1619378620.75142,35.38763,15.892980098724365
1619378620.76704,31.16599,15.908600091934204
1619378620.78267,25.10411,15.924230098724365
1619378620.79829,18.07372,15.939850091934204
1619378620.81392,11.02184,15.955480098724365
1619378620.82954,4.521454,15.971100091934204
1619378620.84517,-1.541946,15.986730098724365
1619378620.8608,-7.793716,16.002360105514526
1619378620.87642,-14.99129,16.017980098724365
1619378620.89205,-23.50487,16.033610105514526
1619378620.90767,-33.01555,16.049230098724365
1619378620.9233,-42.66641,16.064860105514526
1619378620.93892,-51.41086,16.080480098724365
1619378620.95455,-58.52849,16.096110105514526
1619378620.97018,-63.95273,16.111740112304688
1619378620.9858,-68.30638,16.127360105514526
1619378621.00143,-72.6322,16.142990112304688
1619378621.01705,-78.09663,16.158610105514526
1619378621.03268,-85.64331,16.174240112304688
1619378621.0483,-95.68509,16.189860105514526
1619378621.06393,-107.8345,16.205490112304688
1619378621.07956,-120.5916,16.22112011909485
1619378621.09518,-131.3239,16.236740112304688
1619378621.11081,-136.6461,16.25237011909485
1619378621.12643,-133.3742,16.267990112304688
1619378621.14206,-119.6586,16.28362011909485
1619378621.15768,-95.88289,16.299240112304688
1619378621.17331,-64.82141,16.31487011909485
1619378621.18894,-30.83139,16.33050012588501
1619378621.20456,1.493912,16.34612011909485
1619378621.22019,28.73889,16.36175012588501
1619378621.23581,49.34927,16.37737011909485
1619378621.25144,63.52725,16.39300012588501
1619378621.26706,72.46251,16.40862011909485
1619378621.28269,77.40941,16.42425012588501
1619378621.29832,79.20735,16.43988013267517
1619378621.31394,78.21878,16.45550012588501
1619378621.32957,74.74861,16.47113013267517
1619378621.34519,69.34853,16.48675012588501
1619378621.36082,62.9727,16.50238013267517
1619378621.37644,56.6989,16.51800012588501
1619378621.39207,51.39917,16.53363013267517
1619378621.4077,47.46916,16.549260139465332
1619378621.42332,44.76532,16.56488013267517
1619378621.43895,42.85785,16.580510139465332
1619378621.45457,41.3542,16.59613013267517
1619378621.4702,40.1743,16.611760139465332
1619378621.48582,39.55322,16.62738013267517
1619378621.50145,39.84482,16.643010139465332
1619378621.51708,41.10703,16.658640146255493
1619378621.5327,42.86839,16.674260139465332
1619378621.54833,44.15108,16.689890146255493
1619378621.56395,43.80328,16.705510139465332
1619378621.57958,41.00642,16.721140146255493
1619378621.5952,35.64449,16.736760139465332
1619378621.61083,28.41641,16.752390146255493
1619378621.62646,20.46541,16.768020153045654
1619378621.64208,12.94376,16.783640146255493
1619378621.65771,6.448578,16.799270153045654
1619378621.67333,0.8548126,16.814890146255493
1619378621.68896,-4.556244,16.830520153045654
1619378621.70458,-10.66086,16.846140146255493
1619378621.72021,-18.02258,16.861770153045654
1619378621.73584,-26.62218,16.877400159835815
1619378621.75146,-35.8642,16.893020153045654
1619378621.76709,-44.88438,16.908650159835815
1619378621.78271,-52.89919,16.924270153045654
1619378621.79834,-59.5219,16.939900159835815
1619378621.81396,-64.897,16.955520153045654
1619378621.82959,-69.65048,16.971150159835815
1619378621.84522,-74.77176,16.986780166625977
1619378621.86084,-81.37589,17.002400159835815
1619378621.87647,-90.35852,17.018030166625977
1619378621.89209,-101.9293,17.033650159835815
1619378621.90772,-115.1274,17.049280166625977
1619378621.92334,-127.5652,17.064900159835815
1619378621.93897,-135.7491,17.080530166625977
1619378621.9546,-136.0065,17.096160173416138
1619378621.97022,-125.85,17.111780166625977
1619378621.98585,-105.0667,17.127410173416138
1619378622.00147,-76.05469,17.143030166625977
1619378622.0171,-43.14682,17.158660173416138
1619378622.03272,-11.16916,17.174280166625977
1619378622.04835,16.06046,17.189910173416138
1619378622.06398,36.60475,17.2055401802063
1619378622.0796,50.44878,17.221160173416138
1619378622.09523,58.74435,17.2367901802063
1619378622.11085,62.87088,17.252410173416138
1619378622.12648,63.81555,17.2680401802063
1619378622.1421,62.05872,17.283660173416138
1619378622.15773,57.88138,17.2992901802063
1619378622.17336,51.81393,17.31492018699646
1619378622.18898,44.81519,17.3305401802063
1619378622.20461,38.22026,17.34617018699646
1619378622.22023,33.37633,17.3617901802063
1619378622.23586,31.2749,17.37742018699646
1619378622.25148,32.31064,17.3930401802063
1619378622.26711,36.22147,17.40867018699646
1619378622.28274,42.32524,17.42430019378662
1619378622.29836,49.87007,17.43992018699646
1619378622.31399,58.396,17.45555019378662
1619378622.32961,67.88239,17.47117018699646
1619378622.34524,78.60098,17.48680019378662
1619378622.36086,90.70393,17.50242018699646
1619378622.37649,103.8621,17.51805019378662
1619378622.39212,117.1288,17.533679962158203
1619378622.40774,129.2104,17.54930019378662
1619378622.42337,138.934,17.564929962158203
1619378622.43899,145.6025,17.58055019378662
1619378622.45462,149.0753,17.596179962158203
1619378622.47024,149.4424,17.61180019378662
1619378622.48587,146.6548,17.627429962158203
1619378622.5015,140.4417,17.643059968948364
1619378622.51712,130.6195,17.658679962158203
1619378622.53275,117.6815,17.674309968948364
1619378622.54837,103.2037,17.689929962158203
1619378622.564,89.64236,17.705559968948364
1619378622.57962,79.57458,17.721179962158203
1619378622.59525,74.69849,17.736809968948364
1619378622.61088,75.1358,17.752439975738525
1619378622.6265,79.39545,17.768059968948364
1619378622.64213,85.00208,17.783689975738525
1619378622.65775,89.4017,17.799309968948364
1619378622.67338,90.68607,17.814939975738525
1619378622.68901,87.90979,17.830569982528687
1619378622.70463,80.99957,17.846189975738525
1619378622.72026,70.46317,17.861819982528687
1619378622.73588,57.06219,17.877439975738525
1619378622.75151,41.58325,17.893069982528687
1619378622.76713,24.72952,17.908689975738525
1619378622.78276,7.13205,17.924319982528687
1619378622.79839,-10.53928,17.939949989318848
1619378622.81401,-27.45993,17.955569982528687
1619378622.82964,-42.57376,17.971199989318848
1619378622.84526,-54.71463,17.986819982528687
1619378622.86089,-62.92532,18.002449989318848
1619378622.87651,-66.86246,18.018069982528687
1619378622.89214,-67.03555,18.033699989318848
1619378622.90777,-64.74176,18.04932999610901
1619378622.92339,-61.64832,18.064949989318848
1619378622.93902,-59.25604,18.08057999610901
1619378622.95464,-58.43567,18.096199989318848
1619378622.97027,-59.31934,18.11182999610901
1619378622.98589,-61.51398,18.127449989318848
1619378623.00152,-64.42322,18.14307999610901
1619378623.01715,-67.50739,18.15871000289917
1619378623.03277,-70.31995,18.17432999610901
1619378623.0484,-72.44684,18.18996000289917
1619378623.06402,-73.43567,18.20557999610901
1619378623.07965,-72.91974,18.22121000289917
1619378623.09527,-70.79272,18.23682999610901
1619378623.1109,-67.33893,18.25246000289917
1619378623.12653,-63.22052,18.26809000968933
1619378623.14215,-59.26154,18.28371000289917
1619378623.15778,-56.15991,18.29934000968933
1619378623.1734,-54.19226,18.31496000289917
1619378623.18903,-53.23999,18.33059000968933
1619378623.20465,-52.92352,18.34621000289917
1619378623.22028,-52.91882,18.36184000968933
1619378623.23591,-53.15564,18.377470016479492
1619378623.25153,-53.87512,18.39309000968933
1619378623.26716,-55.51117,18.408720016479492
1619378623.28278,-58.40308,18.42434000968933
1619378623.29841,-62.57629,18.439970016479492
1619378623.31403,-67.64642,18.45559000968933
1619378623.32966,-72.93005,18.471220016479492
1619378623.34529,-77.76074,18.486850023269653
1619378623.36091,-81.76532,18.502470016479492
1619378623.37654,-85.11462,18.518100023269653
1619378623.39216,-88.45898,18.533720016479492
1619378623.40779,-92.69196,18.549350023269653
1619378623.42341,-98.65021,18.564970016479492
1619378623.43904,-106.7827,18.580600023269653
1619378623.45467,-116.8727,18.596230030059814
1619378623.47029,-127.7814,18.611850023269653
1619378623.48592,-137.2404,18.627480030059814
1619378623.50154,-142.0289,18.643100023269653
1619378623.51717,-138.6539,18.658730030059814
1619378623.53279,-124.5528,18.674350023269653
1619378623.54842,-99.30231,18.689980030059814
1619378623.56405,-65.22717,18.705610036849976
1619378623.57967,-26.94855,18.721230030059814
1619378623.5953,10.09729,18.736860036849976
1619378623.61092,41.46021,18.752480030059814
1619378623.62655,65.01672,18.768110036849976
1619378623.64217,81.04584,18.783730030059814
1619378623.6578,91.3526,18.799360036849976
1619378623.67343,97.86334,18.814990043640137
1619378623.68905,101.679,18.830610036849976
1619378623.70468,102.9508,18.846240043640137
1619378623.7203,101.4821,18.861860036849976
1619378623.73593,97.45612,18.877490043640137
1619378623.75155,91.78625,18.893110036849976
1619378623.76718,85.85107,18.908740043640137
1619378623.78281,80.80475,18.924370050430298
1619378623.79843,77.08221,18.939990043640137
1619378623.81406,74.22638,18.955620050430298
1619378623.82968,71.26068,18.971240043640137
1619378623.84531,67.26624,18.986870050430298
1619378623.86093,61.92419,19.002490043640137
1619378623.87656,55.65771,19.018120050430298
1619378623.89219,49.35004,19.03375005722046
1619378623.90781,43.87671,19.049370050430298
1619378623.92344,39.57208,19.06500005722046
1619378623.93906,36.0224,19.080620050430298
1619378623.95469,32.17419,19.09625005722046
1619378623.97031,26.77911,19.111870050430298
1619378623.98594,18.90186,19.12750005722046
1619378624.00157,8.322388,19.14313006401062
1619378624.01719,-4.328857,19.15875005722046
1619378624.03282,-17.7774,19.17438006401062
1619378624.04844,-30.52252,19.19000005722046
1619378624.06407,-41.36115,19.20563006401062
1619378624.07969,-49.75269,19.22125005722046
1619378624.09532,-56.03882,19.23688006401062
1619378624.11095,-61.27496,19.25251007080078
1619378624.12657,-66.83777,19.26813006401062
1619378624.1422,-73.953,19.28376007080078
1619378624.15782,-83.23535,19.29938006401062
1619378624.17345,-94.45087,19.31501007080078
1619378624.18907,-106.4284,19.33063006401062
1619378624.2047,-117.1671,19.34626007080078
1619378624.22033,-124.1418,19.361890077590942
1619378624.23595,-124.8356,19.37751007080078
1619378624.25158,-117.4242,19.393140077590942
1619378624.2672,-101.3767,19.40876007080078
1619378624.28283,-77.82721,19.424390077590942
1619378624.29845,-49.39838,19.44001007080078
1619378624.31408,-19.49933,19.455640077590942
1619378624.32971,8.652161,19.471270084381104
1619378624.34533,32.8385,19.486890077590942
1619378624.36096,52.16541,19.502520084381104
1619378624.37658,66.81415,19.518140077590942
1619378624.39221,77.47504,19.533770084381104
1619378624.40783,84.78137,19.549390077590942
1619378624.42346,89.07916,19.565020084381104
1619378624.43909,90.54871,19.580650091171265
1619378624.45471,89.47015,19.596270084381104
1619378624.47034,86.45172,19.611900091171265
1619378624.48596,82.34857,19.627520084381104
1619378624.50159,78.07715,19.643150091171265
1619378624.51721,74.28894,19.658770084381104
1619378624.53284,71.23584,19.674400091171265
1619378624.54847,68.76245,19.690030097961426
1619378624.56409,66.47583,19.705650091171265
1619378624.57972,64.03027,19.721280097961426
1619378624.59534,61.27515,19.736900091171265
1619378624.61097,58.38153,19.752530097961426
1619378624.62659,55.66003,19.768150091171265
1619378624.64222,53.38513,19.783780097961426
1619378624.65785,51.5603,19.799410104751587
1619378624.67347,49.77014,19.815030097961426
1619378624.6891,47.30481,19.830660104751587
1619378624.70472,43.37488,19.846280097961426
1619378624.72035,37.4657,19.861910104751587
1619378624.73597,29.55548,19.877530097961426
1619378624.7516,20.18225,19.893160104751587
1619378624.76723,10.23065,19.908790111541748
1619378624.78285,0.6541748,19.924410104751587
1619378624.79848,-7.887939,19.940040111541748
1619378624.8141,-15.2312,19.955660104751587
1619378624.82973,-21.70428,19.971290111541748
1619378624.84535,-27.92462,19.986910104751587
1619378624.86098,-34.59766,20.002540111541748
1619378624.87661,-42.2959,20.01817011833191
1619378624.89223,-51.22864,20.033790111541748
1619378624.90786,-61.20764,20.04942011833191
1619378624.92348,-71.53369,20.065040111541748
1619378624.93911,-81.03156,20.08067011833191
1619378624.95474,-88.22479,20.09630012512207
1619378624.97036,-91.64423,20.11192011833191
1619378624.98599,-90.26648,20.12755012512207
1619378625.00161,-83.86389,20.14317011833191
1619378625.01724,-73.19733,20.15880012512207
1619378625.03286,-59.79767,20.17442011833191
1619378625.04849,-45.53546,20.19005012512207
1619378625.06412,-32.07367,20.20568013191223
1619378625.07974,-20.49988,20.22130012512207
1619378625.09537,-11.22162,20.23693013191223
1619378625.11099,-4.141479,20.25255012512207
1619378625.12662,1.037354,20.26818013191223
1619378625.14224,4.588623,20.28380012512207
1619378625.15787,6.666443,20.29943013191223
1619378625.1735,7.386841,20.315060138702393
1619378625.18912,6.921631,20.33068013191223
1619378625.20475,5.5802,20.346310138702393
1619378625.22037,3.79303,20.36193013191223
1619378625.236,2.003113,20.377560138702393
1619378625.25162,0.6005249,20.39318013191223
1619378625.26725,-0.1792603,20.408810138702393
1619378625.28288,-0.2766113,20.424440145492554
1619378625.2985,0.2119751,20.440060138702393
1619378625.31413,1.075623,20.455690145492554
1619378625.32975,2.049927,20.471310138702393
1619378625.34538,2.834534,20.486940145492554
1619378625.361,3.199341,20.502560138702393
1619378625.37663,2.992493,20.518190145492554
1619378625.39226,2.179565,20.533820152282715
1619378625.40788,0.8605347,20.549440145492554
1619378625.42351,-0.8154297,20.565070152282715
1619378625.43913,-2.714722,20.580690145492554
1619378625.45476,-4.806335,20.596320152282715
1619378625.47038,-7.200806,20.611940145492554
1619378625.48601,-10.09332,20.627570152282715
1619378625.50164,-13.66272,20.643200159072876
1619378625.51726,-17.94122,20.658820152282715
1619378625.53289,-22.73352,20.674450159072876
1619378625.54851,-27.65692,20.690070152282715
1619378625.56414,-32.24359,20.705700159072876
1619378625.57976,-36.20306,20.721320152282715
1619378625.59539,-39.534,20.736950159072876
1619378625.61102,-42.6098,20.752580165863037
1619378625.62664,-46.02588,20.768200159072876
1619378625.64227,-50.40613,20.783830165863037
1619378625.65789,-56.15869,20.799450159072876
1619378625.67352,-63.34357,20.815080165863037
1619378625.68914,-71.55939,20.830700159072876
1619378625.70477,-79.88806,20.846330165863037
1619378625.7204,-86.91394,20.8619601726532
1619378625.73602,-90.92053,20.877580165863037
1619378625.75165,-90.20624,20.8932101726532
1619378625.76727,-83.61658,20.908830165863037
1619378625.7829,-71.02698,20.9244601726532
1619378625.79852,-53.53027,20.940080165863037
1619378625.81415,-33.26373,20.9557101726532
1619378625.82978,-12.78662,20.97134017944336
1619378625.8454,5.616577,20.9869601726532
1619378625.86103,20.48621,21.00259017944336
1619378625.87665,31.37793,21.0182101726532
1619378625.89228,38.63293,21.03384017944336
1619378625.9079,42.98761,21.0494601726532
1619378625.92353,45.19342,21.06509017944336
1619378625.93916,45.8233,21.08072018623352
1619378625.95478,45.28723,21.09634017944336
1619378625.97041,43.87769,21.11197018623352
1619378625.98603,41.8927,21.12759017944336
1619378626.00166,39.64984,21.14322018623352
1619378626.01728,37.47034,21.15884017944336
1619378626.03291,35.63092,21.17447018623352
1619378626.04854,34.28687,21.19010019302368
1619378626.06416,33.45789,21.20572018623352
1619378626.07979,33.01428,21.22135019302368
1619378626.09541,32.76141,21.23697018623352
1619378626.11104,32.50415,21.25260019302368
1619378626.12666,32.14685,21.26822018623352
1619378626.14229,31.71149,21.28385019302368
1619378626.15792,31.27557,21.299479961395264
1619378626.17354,30.88708,21.31510019302368
1619378626.18917,30.49762,21.330729961395264
1619378626.20479,29.93964,21.34635019302368
1619378626.22042,28.98834,21.361979961395264
1619378626.23604,27.46667,21.37760019302368
1619378626.25167,25.29889,21.393229961395264
1619378626.2673,22.55121,21.408859968185425
1619378626.28292,19.36157,21.424479961395264
1619378626.29855,15.91541,21.440109968185425
1619378626.31417,12.35522,21.455729961395264
1619378626.3298,8.805359,21.471359968185425
1619378626.34542,5.332642,21.486979961395264
1619378626.36105,1.982178,21.502609968185425
1619378626.37668,-1.262024,21.518239974975586
1619378626.3923,-4.470337,21.533859968185425
1619378626.40793,-7.772034,21.549489974975586
1619378626.42355,-11.33344,21.565109968185425
1619378626.43918,-15.27277,21.580739974975586
1619378626.4548,-19.60846,21.596359968185425
1619378626.47043,-24.18658,21.611989974975586
1619378626.48606,-28.74457,21.627619981765747
1619378626.50168,-32.9668,21.643239974975586
1619378626.51731,-36.6358,21.658869981765747
1619378626.53293,-39.77301,21.674489974975586
1619378626.54856,-42.70361,21.690119981765747
1619378626.56418,-46.00677,21.705739974975586
1619378626.57981,-50.39465,21.721369981765747
1619378626.59544,-56.4364,21.736999988555908
1619378626.61106,-64.25409,21.752619981765747
1619378626.62669,-73.23248,21.768249988555908
1619378626.64231,-81.88513,21.783869981765747
1619378626.65794,-88.02203,21.799499988555908
1619378626.67356,-89.29578,21.815119981765747
1619378626.68919,-83.95972,21.830749988555908
1619378626.70482,-71.55469,21.84637999534607
1619378626.72044,-53.19965,21.861999988555908
1619378626.73607,-31.31598,21.87762999534607
1619378626.75169,-8.853699,21.893249988555908
1619378626.76732,11.62451,21.90887999534607
1619378626.78294,28.57794,21.924499988555908
1619378626.79857,41.58313,21.94012999534607
1619378626.8142,50.96912,21.95576000213623
1619378626.82982,57.24164,21.97137999534607
1619378626.84545,60.71393,21.98701000213623
1619378626.86107,61.47644,22.00262999534607
1619378626.8767,59.70618,22.01826000213623
1619378626.89232,55.93127,22.03387999534607
1619378626.90795,51.11938,22.04951000213623
1619378626.92358,46.41388,22.06514000892639
1619378626.9392,42.7677,22.08076000213623
1619378626.95483,40.60388,22.09639000892639
1619378626.97045,39.73749,22.11201000213623
1619378626.98608,39.58075,22.12764000892639
1619378627.0017,39.53571,22.14326000213623
1619378627.01733,39.25946,22.15889000892639
1619378627.03296,38.78058,22.174520015716553
1619378627.04858,38.36487,22.19014000892639
1619378627.06421,38.24194,22.205770015716553
1619378627.07983,38.37549,22.22139000892639
1619378627.09546,38.43829,22.237020015716553
1619378627.11108,37.92017,22.25264000892639
1619378627.12671,36.37341,22.268270015716553
1619378627.14234,33.63458,22.283900022506714
1619378627.15796,29.90314,22.299520015716553
1619378627.17359,25.61273,22.315150022506714
1619378627.18921,21.28876,22.330770015716553
1619378627.20484,17.25891,22.346400022506714
1619378627.22046,13.58002,22.362020015716553
1619378627.23609,10.05426,22.377650022506714
1619378627.25172,6.349121,22.393280029296875
1619378627.26734,2.153748,22.408900022506714
1619378627.28297,-2.659363,22.424530029296875
1619378627.29859,-7.975464,22.440150022506714
1619378627.31422,-13.4762,22.455780029296875
1619378627.32984,-18.71375,22.471400022506714
1619378627.34547,-23.30658,22.487030029296875
1619378627.3611,-27.11255,22.502660036087036
1619378627.37672,-30.28546,22.518280029296875
1619378627.39235,-33.26593,22.533910036087036
1619378627.40797,-36.6004,22.549530029296875
1619378627.4236,-40.73566,22.565160036087036
1619378627.43922,-45.82593,22.580780029296875
1619378627.45485,-51.70917,22.596410036087036
1619378627.47048,-57.96747,22.612040042877197
1619378627.4861,-64.13684,22.627660036087036
1619378627.50173,-69.88696,22.643290042877197
1619378627.51735,-75.11682,22.658910036087036
1619378627.53298,-79.98639,22.674540042877197
1619378627.54861,-84.92993,22.69017004966736
1619378627.56423,-90.56274,22.705790042877197
1619378627.57986,-97.56189,22.72142004966736
1619378627.59548,-106.3516,22.737040042877197
1619378627.61111,-116.6194,22.75267004966736
1619378627.62673,-126.9091,22.768290042877197
1619378627.64236,-134.5827,22.78392004966736
1619378627.65799,-136.2947,22.79955005645752
1619378627.67361,-128.9564,22.81517004966736
1619378627.68924,-110.7368,22.83080005645752
1619378627.70486,-81.74414,22.84642004966736
1619378627.72049,-44.04755,22.86205005645752
1619378627.73611,-1.191223,22.87767004966736
1619378627.75174,42.64545,22.89330005645752
1619378627.76737,83.45343,22.90893006324768
1619378627.78299,117.9803,22.92455005645752
1619378627.79862,144.1471,22.94018006324768
1619378627.81424,161.2016,22.95580005645752
1619378627.82987,169.7081,22.97143006324768
1619378627.84549,171.359,22.98705005645752
1619378627.86112,168.4797,23.00268006324768
1619378627.87675,163.4733,23.018310070037842
1619378627.89237,158.1309,23.03393006324768
1619378627.908,153.3436,23.049560070037842
1619378627.92362,149.0407,23.06518006324768
1619378627.93925,144.5281,23.080810070037842
1619378627.95487,138.9091,23.09643006324768
1619378627.9705,131.5188,23.112060070037842
1619378627.98613,122.1371,23.127690076828003
1619378628.00175,111.0571,23.143310070037842
1619378628.01738,98.97607,23.158940076828003
1619378628.033,86.75616,23.174560070037842
1619378628.04863,75.14246,23.190190076828003
1619378628.06425,64.479,23.205810070037842
1619378628.07988,54.58295,23.221440076828003
1619378628.09551,44.82104,23.237070083618164
1619378628.11113,34.38635,23.252690076828003
1619378628.12676,22.67761,23.268320083618164
1619378628.14238,9.648682,23.283940076828003
1619378628.15801,-4.06958,23.299570083618164
1619378628.17363,-17.29541,23.315190076828003
1619378628.18926,-28.63513,23.330820083618164
1619378628.20489,-36.91437,23.346450090408325
1619378628.22051,-41.52515,23.362070083618164
1619378628.23614,-42.5683,23.377700090408325
1619378628.25176,-40.77948,23.393320083618164
1619378628.26739,-37.24603,23.408950090408325
1619378628.28301,-33.12219,23.424570083618164
1619378628.29864,-29.37152,23.440200090408325
1619378628.31427,-26.67804,23.455830097198486
1619378628.32989,-25.46039,23.471450090408325
1619378628.34552,-25.91168,23.487080097198486
1619378628.36114,-27.97479,23.502700090408325
1619378628.37677,-31.30865,23.518330097198486
1619378628.39239,-35.33069,23.533950090408325
1619378628.40802,-39.31885,23.549580097198486
1619378628.42365,-42.65021,23.565210103988647
1619378628.43927,-45.07501,23.580830097198486
1619378628.4549,-46.78619,23.596460103988647
1619378628.47052,-48.35748,23.612080097198486
1619378628.48615,-50.50189,23.627710103988647
1619378628.50177,-53.77234,23.643330097198486
1619378628.5174,-58.44183,23.658960103988647
1619378628.53303,-64.55518,23.67459011077881
1619378628.54865,-71.97284,23.690210103988647
1619378628.56428,-80.38751,23.70584011077881
1619378628.5799,-89.2597,23.721460103988647
1619378628.59553,-97.62335,23.73709011077881
1619378628.61115,-104.1292,23.752710103988647
1619378628.62678,-107.262,23.76834011077881
1619378628.64241,-105.7541,23.78397011756897
1619378628.65803,-99.05591,23.79959011077881
1619378628.67366,-87.56995,23.81522011756897
1619378628.68928,-72.5415,23.83084011077881
1619378628.70491,-55.72375,23.84647011756897
1619378628.72053,-38.89142,23.86209011077881
1619378628.73616,-23.3894,23.87772011756897
1619378628.75179,-10.01282,23.89335012435913
1619378628.76741,0.9729004,23.90897011756897
1619378628.78304,9.601074,23.92460012435913
1619378628.79866,15.97223,23.94022011756897
1619378628.81429,20.16418,23.95585012435913
1619378628.82991,22.3045,23.97147011756897
1619378628.84554,22.70819,23.98710012435913
1619378628.86117,21.95648,24.002730131149292
1619378628.87679,20.87109,24.01835012435913
1619378628.89242,20.28931,24.033980131149292
1619378628.90804,20.80127,24.04960012435913
1619378628.92367,22.56848,24.065230131149292
1619378628.93929,25.33301,24.08085012435913
1619378628.95492,28.57904,24.096480131149292
1619378628.97055,31.78436,24.112110137939453
1619378628.98617,34.54913,24.127730131149292
1619378629.0018,36.67334,24.143360137939453
1619378629.01742,38.11847,24.158980131149292
1619378629.03305,38.93573,24.174610137939453
1619378629.04867,39.16956,24.190230131149292
1619378629.0643,38.84473,24.205860137939453
1619378629.07993,37.92438,24.221490144729614
1619378629.09555,36.30542,24.237110137939453
1619378629.11118,33.87732,24.252740144729614
1619378629.1268,30.57147,24.268360137939453
1619378629.14243,26.44025,24.283990144729614
1619378629.15805,21.68268,24.299610137939453
1619378629.17368,16.6275,24.315240144729614
1619378629.18931,11.61121,24.330870151519775
1619378629.20493,6.868164,24.346490144729614
1619378629.22056,2.445984,24.362120151519775
1619378629.23618,-1.81134,24.377740144729614
1619378629.25181,-6.202454,24.393370151519775
1619378629.26743,-11.01123,24.408990144729614
1619378629.28306,-16.39197,24.424620151519775
1619378629.29869,-22.2793,24.440250158309937
1619378629.31431,-28.40979,24.455870151519775
1619378629.32994,-34.44519,24.471500158309937
1619378629.34556,-40.07568,24.487120151519775
1619378629.36119,-45.12061,24.502750158309937
1619378629.37681,-49.62329,24.518370151519775
1619378629.39244,-53.83942,24.534000158309937
1619378629.40807,-58.21759,24.549630165100098
1619378629.42369,-63.3197,24.565250158309937
1619378629.43932,-69.6933,24.580880165100098
1619378629.45494,-77.62738,24.596500158309937
1619378629.47057,-86.80078,24.612130165100098
1619378629.48619,-96.05902,24.627750158309937
1619378629.50182,-103.352,24.643380165100098
1619378629.51745,-106.2088,24.65901017189026
1619378629.53307,-102.4147,24.674630165100098
1619378629.5487,-90.88477,24.69026017189026
1619378629.56432,-72.13318,24.705880165100098
1619378629.57995,-48.23389,24.72151017189026
1619378629.59557,-22.16602,24.737130165100098
1619378629.6112,3.094604,24.75276017189026
1619378629.62683,25.36383,24.76839017868042
1619378629.64245,43.58917,24.78401017189026
1619378629.65808,57.66174,24.79964017868042
1619378629.6737,68.01801,24.81526017189026
1619378629.68933,75.14563,24.83089017868042
1619378629.70495,79.37799,24.84651017189026
1619378629.72058,80.95544,24.86214017868042
1619378629.73621,80.2002,24.87777018547058
1619378629.75183,77.67645,24.89339017868042
1619378629.76746,74.17456,24.90902018547058
1619378629.78308,70.53015,24.92464017868042
1619378629.79871,67.396,24.94027018547058
1619378629.81434,65.08563,24.955900192260742
1619378629.82996,63.54907,24.97152018547058
1619378629.84559,62.51282,24.987150192260742
1619378629.86121,61.68219,25.00277018547058
1619378629.87684,60.9425,25.018400192260742
1619378629.89246,60.33441,25.03402018547058
1619378629.90809,59.94513,25.049650192260742
1619378629.92372,59.73065,25.065279960632324
1619378629.93934,59.40521,25.080900192260742
1619378629.95497,58.47644,25.096529960632324
1619378629.97059,56.47235,25.112150192260742
1619378629.98622,53.16595,25.127779960632324
1619378630.00184,48.7381,25.143400192260742
1619378630.01747,43.67999,25.159029960632324
1619378630.0331,38.5528,25.174659967422485
1619378630.04872,33.73596,25.190279960632324
1619378630.06435,29.27618,25.205909967422485
1619378630.07997,24.87738,25.221529960632324
1619378630.0956,20.15741,25.237159967422485
1619378630.11122,14.83936,25.252779960632324
1619378630.12685,8.947815,25.268409967422485
1619378630.14248,2.796936,25.284039974212646
1619378630.1581,-3.119873,25.299659967422485
1619378630.17373,-8.350281,25.315289974212646
1619378630.18935,-12.67609,25.330909967422485
1619378630.20498,-16.20752,25.346539974212646
1619378630.2206,-19.37653,25.362159967422485
1619378630.23623,-22.72644,25.377789974212646
1619378630.25186,-26.70471,25.393419981002808
1619378630.26748,-31.39893,25.409039974212646
1619378630.28311,-36.51526,25.424669981002808
1619378630.29873,-41.47424,25.440289974212646
1619378630.31436,-45.74048,25.455919981002808
1619378630.32998,-49.12073,25.471539974212646
1619378630.34561,-51.89594,25.487169981002808
1619378630.36124,-54.77087,25.50279998779297
1619378630.37686,-58.61469,25.518419981002808
1619378630.39249,-64.09125,25.53404998779297
1619378630.40811,-71.38422,25.549669981002808
1619378630.42374,-79.95844,25.56529998779297
1619378630.43936,-88.50427,25.580919981002808
1619378630.45499,-95.06775,25.59654998779297
1619378630.47062,-97.43024,25.61217999458313
1619378630.48624,-93.68921,25.62779998779297
1619378630.50187,-82.90735,25.64342999458313
1619378630.51749,-65.58917,25.65904998779297
1619378630.53312,-43.66565,25.67467999458313
1619378630.54874,-19.97595,25.69029998779297
1619378630.56437,2.562805,25.70592999458313
1619378630.58,21.77014,25.72156000137329
1619378630.59562,36.61621,25.73717999458313
1619378630.61125,47.12939,25.75281000137329
1619378630.62687,53.94855,25.76842999458313
1619378630.6425,57.77411,25.78406000137329
1619378630.65812,59.12164,25.79967999458313
1619378630.67375,58.34479,25.81531000137329
1619378630.68938,55.87378,25.830940008163452
1619378630.705,52.33862,25.84656000137329
1619378630.72063,48.57715,25.862190008163452
1619378630.73625,45.41919,25.87781000137329
1619378630.75188,43.38623,25.893440008163452
1619378630.7675,42.57343,25.90906000137329
1619378630.78313,42.65637,25.924690008163452
1619378630.79876,43.10229,25.940320014953613
1619378630.81438,43.44086,25.955940008163452
1619378630.83001,43.47058,25.971570014953613
1619378630.84563,43.29865,25.987190008163452
1619378630.86126,43.22418,26.002820014953613
1619378630.87688,43.53381,26.018440008163452
1619378630.89251,44.20929,26.034070014953613
1619378630.90814,44.87476,26.049700021743774
1619378630.92376,44.8833,26.065320014953613
1619378630.93939,43.60724,26.080950021743774
1619378630.95501,40.75415,26.096570014953613
1619378630.97064,36.56519,26.112200021743774
1619378630.98626,31.72888,26.127820014953613
1619378631.00189,27.0896,26.143450021743774
1619378631.01752,23.2757,26.159080028533936
1619378631.03314,20.39825,26.174700021743774
1619378631.04877,18.08698,26.190330028533936
1619378631.06439,15.67432,26.205950021743774
1619378631.08002,12.51227,26.221580028533936
1619378631.09564,8.337952,26.237200021743774
1619378631.11127,3.360779,26.252830028533936
1619378631.1269,-1.843079,26.268460035324097
1619378631.14252,-6.578796,26.284080028533936
1619378631.15815,-10.33575,26.299710035324097
1619378631.17377,-13.01733,26.315330028533936
1619378631.1894,-14.97809,26.330960035324097
1619378631.20502,-16.87738,26.346580028533936
1619378631.22065,-19.43079,26.362210035324097
1619378631.23628,-23.07001,26.377840042114258
1619378631.2519,-27.78613,26.393460035324097
1619378631.26753,-33.12042,26.409090042114258
1619378631.28315,-38.39233,26.424710035324097
1619378631.29878,-43.00586,26.440340042114258
1619378631.3144,-46.75885,26.455960035324097
1619378631.33003,-49.90906,26.471590042114258
1619378631.34566,-53.03717,26.48722004890442
1619378631.36128,-56.86664,26.502840042114258
1619378631.37691,-61.98541,26.51847004890442
1619378631.39253,-68.68359,26.534090042114258
1619378631.40816,-76.76758,26.54972004890442
1619378631.42378,-85.42297,26.565340042114258
1619378631.43941,-93.07428,26.58097004890442
1619378631.45504,-97.5824,26.59660005569458
1619378631.47066,-96.69476,26.61222004890442
1619378631.48629,-88.75439,26.62785005569458
1619378631.50191,-73.46289,26.64347004890442
1619378631.51754,-52.1781,26.65910005569458
1619378631.53316,-27.67303,26.67472004890442
1619378631.54879,-3.283447,26.69035005569458
1619378631.56442,18.13239,26.70598006248474
1619378631.58004,34.95044,26.72160005569458
1619378631.59567,46.92316,26.73723006248474
1619378631.61129,54.76349,26.75285005569458
1619378631.62692,59.49786,26.76848006248474
1619378631.64254,61.86993,26.78410005569458
1619378631.65817,62.27081,26.79973006248474
1619378631.6738,60.90271,26.815360069274902
1619378631.68942,58.07892,26.83098006248474
1619378631.70505,54.39349,26.846610069274902
1619378631.72067,50.61584,26.86223006248474
1619378631.7363,47.44751,26.877860069274902
1619378631.75192,45.29266,26.89348006248474
1619378631.76755,44.15039,26.909110069274902
1619378631.78318,43.73096,26.924740076065063
1619378631.7988,43.66974,26.940360069274902
1619378631.81443,43.71075,26.955990076065063
1619378631.83005,43.77966,26.971610069274902
1619378631.84568,43.92181,26.987240076065063
1619378631.8613,44.20337,27.002860069274902
1619378631.87693,44.59039,27.018490076065063
1619378631.89256,44.88928,27.034120082855225
1619378631.90818,44.80859,27.049740076065063
1619378631.92381,44.03949,27.065370082855225
1619378631.93943,42.36658,27.080990076065063
1619378631.95506,39.76263,27.096620082855225
1619378631.97069,36.32849,27.112250089645386
1619378631.98631,32.26355,27.127870082855225
1619378632.00194,27.73767,27.143500089645386
1619378632.01756,22.84674,27.159120082855225
1619378632.03319,17.65405,27.174750089645386
1619378632.04881,12.24396,27.190370082855225
1619378632.06444,6.784607,27.206000089645386
1619378632.08007,1.527832,27.221630096435547
1619378632.09569,-3.286011,27.237250089645386
1619378632.11132,-7.574707,27.252880096435547
1619378632.12694,-11.44092,27.268500089645386
1619378632.14257,-15.17407,27.284130096435547
1619378632.15819,-19.07532,27.299750089645386
1619378632.17382,-23.3075,27.315380096435547
1619378632.18945,-27.79706,27.331010103225708
1619378632.20507,-32.27557,27.346630096435547
1619378632.2207,-36.41974,27.362260103225708
1619378632.23632,-39.96619,27.377880096435547
1619378632.25195,-42.87836,27.393510103225708
1619378632.26757,-45.35156,27.409130096435547
1619378632.2832,-47.82422,27.424760103225708
1619378632.29883,-50.87976,27.44039011001587
1619378632.31445,-55.07959,27.456010103225708
1619378632.33008,-60.79144,27.47164011001587
1619378632.3457,-67.92181,27.487260103225708
1619378632.36133,-75.73322,27.50289011001587
1619378632.37695,-82.74884,27.518510103225708
1619378632.39258,-86.97424,27.53414011001587
1619378632.40821,-86.38654,27.54977011680603
1619378632.42383,-79.62488,27.56539011001587
1619378632.43946,-66.50879,27.58102011680603
1619378632.45508,-48.22162,27.59664011001587
1619378632.47071,-27.04382,27.61227011680603
1619378632.48633,-5.64563,27.62789011001587
1619378632.50196,13.65021,27.64352011680603
1619378632.51759,29.36896,27.65915012359619
1619378632.53321,41.00018,27.67477011680603
1619378632.54884,48.76074,27.69040012359619
1619378632.56446,53.18726,27.70602011680603
1619378632.58009,54.86981,27.72165012359619
1619378632.59571,54.30554,27.73727011680603
1619378632.61134,51.9845,27.75290012359619
1619378632.62697,48.47772,27.768530130386353
1619378632.64259,44.43994,27.78415012359619
1619378632.65822,40.53418,27.799780130386353
1619378632.67384,37.26666,27.81540012359619
1619378632.68947,34.89215,27.831030130386353
1619378632.70509,33.37152,27.84665012359619
1619378632.72072,32.46979,27.862280130386353
1619378632.73635,31.8847,27.877910137176514
1619378632.75197,31.40656,27.893530130386353
1619378632.7676,31.01489,27.909160137176514
1619378632.78322,30.79706,27.924780130386353
1619378632.79885,30.86823,27.940410137176514
1619378632.81447,31.19714,27.956030130386353
1619378632.8301,31.53003,27.971660137176514
1619378632.84573,31.40668,27.987290143966675
1619378632.86135,30.32867,28.002910137176514
1619378632.87698,27.96051,28.018540143966675
1619378632.8926,24.29443,28.034160137176514
1619378632.90823,19.65668,28.049790143966675
1619378632.92385,14.58612,28.065410137176514
1619378632.93948,9.646912,28.081040143966675
1619378632.95511,5.155518,28.096670150756836
1619378632.97073,1.117493,28.112290143966675
1619378632.98636,-2.754883,28.127920150756836
1619378633.00198,-6.873718,28.143540143966675
1619378633.01761,-11.56342,28.159170150756836
1619378633.03323,-16.86041,28.174790143966675
1619378633.04886,-22.47662,28.190420150756836
1619378633.06449,-27.95508,28.206050157546997
1619378633.08011,-32.83673,28.221670150756836
1619378633.09574,-36.93585,28.237300157546997
1619378633.11136,-40.38892,28.252920150756836
1619378633.12699,-43.63489,28.268550157546997
1619378633.14261,-47.26318,28.284170150756836
1619378633.15824,-51.84064,28.299800157546997
1619378633.17387,-57.77936,28.315430164337158
1619378633.18949,-65.17975,28.331050157546997
1619378633.20512,-73.69281,28.346680164337158
1619378633.22074,-82.31433,28.362300157546997
1619378633.23637,-89.40063,28.377930164337158
1619378633.25199,-92.88092,28.393550157546997
1619378633.26762,-90.83075,28.409180164337158
1619378633.28325,-82.13806,28.42481017112732
1619378633.29887,-67.03961,28.440430164337158
1619378633.3145,-47.1604,28.45606017112732
1619378633.33012,-25.07739,28.471680164337158
1619378633.34575,-3.522156,28.48731017112732
1619378633.36137,15.3725,28.502930164337158
1619378633.377,30.513,28.51856017112732
1619378633.39263,41.74176,28.53419017791748
1619378633.40825,49.44965,28.54981017112732
1619378633.42388,54.15314,28.56544017791748
1619378633.4395,56.22913,28.58106017112732
1619378633.45513,55.96558,28.59669017791748
1619378633.47075,53.73529,28.61231017112732
1619378633.48638,50.13239,28.62794017791748
1619378633.50201,45.95502,28.64357018470764
1619378633.51763,41.99628,28.65919017791748
1619378633.53326,38.80719,28.67482018470764
1619378633.54888,36.56195,28.69044017791748
1619378633.56451,35.06439,28.70607018470764
1619378633.58013,33.95844,28.72169017791748
1619378633.59576,32.94238,28.73732018470764
1619378633.61139,31.92609,28.752950191497803
1619378633.62701,31.03723,28.76857018470764
1619378633.64264,30.50677,28.784200191497803
1619378633.65826,30.43524,28.79982018470764
1619378633.67389,30.67987,28.815450191497803
1619378633.68951,30.82419,28.83107018470764
1619378633.70514,30.29794,28.846700191497803
1619378633.72077,28.58328,28.862329959869385
1619378633.73639,25.44498,28.877950191497803
1619378633.75202,20.98068,28.893579959869385
1619378633.76764,15.65488,28.909200191497803
1619378633.78327,10.06744,28.924829959869385
1619378633.79889,4.721039,28.940450191497803
1619378633.81452,-0.1665344,28.956079959869385
1619378633.83015,-4.760132,28.971709966659546
1619378633.84577,-9.443359,28.987329959869385
1619378633.8614,-14.60724,29.002959966659546
1619378633.87702,-20.40524,29.018579959869385
1619378633.89265,-26.64017,29.034209966659546
1619378633.90827,-32.85782,29.049829959869385
1619378633.9239,-38.56839,29.065459966659546
1619378633.93953,-43.47601,29.081089973449707
1619378633.95515,-47.65607,29.096709966659546
1619378633.97078,-51.52396,29.112339973449707
1619378633.9864,-55.74728,29.127959966659546
1619378634.00203,-61.02081,29.143589973449707
1619378634.01765,-67.85974,29.159209966659546
1619378634.03328,-76.33032,29.174839973449707
1619378634.04891,-85.80646,29.190469980239868
1619378634.06453,-94.84442,29.206089973449707
1619378634.08016,-101.3203,29.221719980239868
1619378634.09578,-102.9273,29.237339973449707
1619378634.11141,-97.87607,29.252969980239868
1619378634.12703,-85.61441,29.268589973449707
1619378634.14266,-67.08881,29.284219980239868
1619378634.15829,-44.58865,29.29984998703003
1619378634.17391,-20.98721,29.315469980239868
1619378634.18954,1.107544,29.33109998703003
1619378634.20516,19.99115,29.346719980239868
1619378634.22079,35.021,29.36234998703003
1619378634.23641,46.35849,29.377969980239868
1619378634.25204,54.51987,29.39359998703003
1619378634.26767,59.98367,29.40922999382019
1619378634.28329,63.09589,29.42484998703003
1619378634.29892,64.103,29.44047999382019
1619378634.31454,63.35782,29.45609998703003
1619378634.33017,61.34872,29.47172999382019
1619378634.34579,58.68729,29.48734998703003
1619378634.36142,55.94974,29.50297999382019
1619378634.37705,53.53152,29.51861000061035
1619378634.39267,51.62592,29.53422999382019
1619378634.4083,50.18204,29.54986000061035
1619378634.42392,49.07492,29.56547999382019
1619378634.43955,48.15567,29.58111000061035
1619378634.45517,47.36661,29.59672999382019
1619378634.4708,46.73138,29.61236000061035
1619378634.48643,46.32303,29.627990007400513
1619378634.50205,46.13867,29.64361000061035
1619378634.51768,45.99753,29.659240007400513
1619378634.5333,45.51886,29.67486000061035
1619378634.54893,44.20248,29.690490007400513
1619378634.56455,41.62811,29.70611000061035
1619378634.58018,37.64334,29.721740007400513
1619378634.59581,32.47577,29.737370014190674
1619378634.61143,26.68439,29.752990007400513
1619378634.62706,20.94379,29.768620014190674
1619378634.64268,15.78467,29.784240007400513
1619378634.65831,11.31601,29.799870014190674
1619378634.67394,7.246338,29.815500020980835
1619378634.68956,2.989502,29.831120014190674
1619378634.70519,-2.014221,29.846750020980835
1619378634.72081,-8.057159,29.862370014190674
1619378634.73644,-14.98724,29.878000020980835
1619378634.75206,-22.2674,29.893620014190674
1619378634.76769,-29.19257,29.909250020980835
1619378634.78332,-35.12961,29.924880027770996
1619378634.79894,-39.83395,29.940500020980835
1619378634.81457,-43.49423,29.956130027770996
1619378634.83019,-46.73776,29.971750020980835
1619378634.84582,-50.43256,29.987380027770996
1619378634.86144,-55.47629,30.003000020980835
1619378634.87707,-62.52075,30.018630027770996
1619378634.8927,-71.64169,30.034260034561157
1619378634.90832,-82.13336,30.049880027770996
1619378634.92395,-92.29926,30.065510034561157
1619378634.93957,-99.70071,30.081130027770996
1619378634.9552,-101.6942,30.096760034561157
1619378634.97082,-96.29367,30.112380027770996
1619378634.98645,-82.97064,30.128010034561157
1619378635.00208,-62.953,30.14364004135132
1619378635.0177,-39.01584,30.159260034561157
1619378635.03333,-14.51096,30.17489004135132
1619378635.04895,7.621185,30.190510034561157
1619378635.06458,25.66229,30.20614004135132
1619378635.0802,39.23633,30.221760034561157
1619378635.09583,48.90814,30.23739004135132
1619378635.11146,55.55432,30.25302004814148
1619378635.12708,59.8121,30.26864004135132
1619378635.14271,61.99362,30.28427004814148
1619378635.15833,62.19394,30.29989004135132
1619378635.17396,60.6311,30.31552004814148
1619378635.18958,57.74567,30.33114004135132
1619378635.20521,54.21552,30.34677004814148
1619378635.22084,50.74707,30.36240005493164
1619378635.23646,47.87546,30.37802004814148
1619378635.25209,45.85522,30.39365005493164
1619378635.26771,44.62616,30.40927004814148
1619378635.28334,43.95984,30.42490005493164
1619378635.29896,43.57455,30.44052004814148
1619378635.31459,43.29813,30.45615005493164
1619378635.33022,43.06296,30.4717800617218
1619378635.34584,42.90271,30.48740005493164
1619378635.36147,42.82806,30.5030300617218
1619378635.37709,42.74442,30.51865005493164
1619378635.39272,42.43161,30.5342800617218
1619378635.40834,41.58182,30.54990005493164
1619378635.42397,39.95395,30.5655300617218
1619378635.4396,37.39395,30.581160068511963
1619378635.45522,33.94418,30.5967800617218
1619378635.47085,29.70309,30.612410068511963
1619378635.48647,24.83673,30.6280300617218
1619378635.5021,19.50739,30.643660068511963
1619378635.51772,13.92258,30.6592800617218
1619378635.53335,8.3414,30.674910068511963
1619378635.54898,2.995911,30.690540075302124
1619378635.5646,-2.00235,30.706160068511963
1619378635.58023,-6.774231,30.721790075302124
1619378635.59585,-11.6041,30.737410068511963
1619378635.61148,-16.83258,30.753040075302124
1619378635.6271,-22.586,30.768660068511963
1619378635.64273,-28.68002,30.784290075302124
1619378635.65836,-34.63406,30.799920082092285
1619378635.67398,-39.91623,30.815540075302124
1619378635.68961,-44.20898,30.831170082092285
1619378635.70523,-47.56921,30.846790075302124
1619378635.72086,-50.44202,30.862420082092285
1619378635.73648,-53.50342,30.878040075302124
1619378635.75211,-57.47318,30.893670082092285
1619378635.76774,-62.89713,30.909300088882446
1619378635.78336,-70.05225,30.924920082092285
1619378635.79899,-78.66977,30.940550088882446
1619378635.81461,-87.77444,30.956170082092285
1619378635.83024,-95.58362,30.971800088882446
1619378635.84586,-99.74823,30.987420082092285
1619378635.86149,-97.9859,31.003050088882446
1619378635.87712,-88.86508,31.018680095672607
1619378635.89274,-72.51825,31.034300088882446
1619378635.90837,-50.71555,31.049930095672607
1619378635.92399,-26.37741,31.065550088882446
1619378635.93962,-2.613617,31.081180095672607
1619378635.95524,18.17993,31.096800088882446
1619378635.97087,34.7897,31.112430095672607
1619378635.9865,47.12827,31.12806010246277
1619378636.00212,55.72867,31.143680095672607
1619378636.01775,61.26025,31.15931010246277
1619378636.03337,64.20193,31.174930095672607
1619378636.049,64.87042,31.19056010246277
1619378636.06462,63.63058,31.206180095672607
1619378636.08025,61.02167,31.22181010246277
1619378636.09588,57.78818,31.23744010925293
1619378636.1115,54.67368,31.25306010246277
1619378636.12713,52.25058,31.26869010925293
1619378636.14275,50.72681,31.28431010246277
1619378636.15838,50.02084,31.29994010925293
1619378636.174,49.8667,31.31556010246277
1619378636.18963,50.01672,31.33119010925293
1619378636.20526,50.36597,31.34682011604309
1619378636.22088,50.9303,31.36244010925293
1619378636.23651,51.77023,31.37807011604309
1619378636.25213,52.81235,31.39369010925293
1619378636.26776,53.80945,31.40932011604309
1619378636.28338,54.34732,31.42494010925293
1619378636.29901,53.9863,31.44057011604309
1619378636.31464,52.45847,31.456200122833252
1619378636.33026,49.75443,31.47182011604309
1619378636.34589,46.15137,31.487450122833252
1619378636.36151,42.01129,31.50307011604309
1619378636.37714,37.67816,31.518700122833252
1619378636.39276,33.30856,31.53432011604309
1619378636.40839,28.87186,31.549950122833252
1619378636.42402,24.22382,31.565580129623413
1619378636.43964,19.25116,31.581200122833252
1619378636.45527,13.98038,31.596830129623413
1619378636.47089,8.580139,31.612450122833252
1619378636.48652,3.302063,31.628080129623413
1619378636.50214,-1.654205,31.643700122833252
1619378636.51777,-6.228333,31.659330129623413
1619378636.5334,-10.53961,31.674960136413574
1619378636.54902,-14.82697,31.690580129623413
1619378636.56465,-19.30557,31.706210136413574
1619378636.58027,-24.06281,31.721830129623413
1619378636.5959,-28.97284,31.737460136413574
1619378636.61152,-33.75974,31.753080129623413
1619378636.62715,-38.12155,31.768710136413574
1619378636.64278,-41.90149,31.784340143203735
1619378636.6584,-45.18759,31.799960136413574
1619378636.67403,-48.32886,31.815590143203735
1619378636.68965,-51.89346,31.831210136413574
1619378636.70528,-56.51239,31.846840143203735
1619378636.7209,-62.6763,31.862460136413574
1619378636.73653,-70.45944,31.878090143203735
1619378636.75216,-79.24615,31.893720149993896
1619378636.76778,-87.60474,31.909340143203735
1619378636.78341,-93.44781,31.924970149993896
1619378636.79903,-94.52414,31.940590143203735
1619378636.81466,-89.15314,31.956220149993896
1619378636.83028,-76.89142,31.971840143203735
1619378636.84591,-58.82108,31.987470149993896
1619378636.86154,-37.28845,32.00310015678406
1619378636.87716,-15.17929,32.0187201499939
1619378636.89279,4.958191,32.03435015678406
1619378636.90841,21.58139,32.0499701499939
1619378636.92404,34.23486,32.06560015678406
1619378636.93967,43.24313,32.08123016357422
1619378636.95529,49.17886,32.09685015678406
1619378636.97092,52.49734,32.11248016357422
1619378636.98654,53.44498,32.12810015678406
1619378637.00217,52.25723,32.14373016357422
1619378637.01779,49.37106,32.15935015678406
1619378637.03342,45.48062,32.17498016357422
1619378637.04905,41.4245,32.19061017036438
1619378637.06467,37.9248,32.20623016357422
1619378637.0803,35.38394,32.22186017036438
1619378637.09592,33.85712,32.23748016357422
1619378637.11155,33.11203,32.25311017036438
1619378637.12717,32.84195,32.26873016357422
1619378637.1428,32.78662,32.28436017036438
1619378637.15843,32.8175,32.29999017715454
1619378637.17405,32.89505,32.31561017036438
1619378637.18968,33.0173,32.33124017715454
1619378637.2053,33.1246,32.34686017036438
1619378637.22093,33.0813,32.36249017715454
1619378637.23655,32.70618,32.37811017036438
1619378637.25218,31.79538,32.39374017715454
1619378637.26781,30.17905,32.4093701839447
1619378637.28343,27.72632,32.42499017715454
1619378637.29906,24.40872,32.4406201839447
1619378637.31468,20.31281,32.45624017715454
1619378637.33031,15.70291,32.4718701839447
1619378637.34593,10.94254,32.48749017715454
1619378637.36156,6.421173,32.5031201839447
1619378637.37719,2.406921,32.51875019073486
1619378637.39281,-1.071228,32.5343701839447
1619378637.40844,-4.252777,32.55000019073486
1619378637.42406,-7.521484,32.5656201839447
1619378637.43969,-11.23846,32.58125019073486
1619378637.45531,-15.62811,32.5968701839447
1619378637.47094,-20.64328,32.61250019073486
1619378637.48657,-26.03702,32.628129959106445
1619378637.50219,-31.45016,32.64375019073486
1619378637.51782,-36.58536,32.659379959106445
1619378637.53344,-41.27563,32.67500019073486
1619378637.54907,-45.59064,32.690629959106445
1619378637.56469,-49.82333,32.70625019073486
1619378637.58032,-54.45728,32.721879959106445
1619378637.59595,-60.04483,32.737509965896606
1619378637.61157,-66.99738,32.753129959106445
1619378637.6272,-75.27774,32.768759965896606
1619378637.64282,-84.14902,32.784379959106445
1619378637.65845,-92.08884,32.800009965896606
1619378637.67407,-97.01505,32.815629959106445
1619378637.6897,-96.82382,32.831259965896606
1619378637.70533,-90.10971,32.84688997268677
1619378637.72095,-76.78238,32.862509965896606
1619378637.73658,-58.20493,32.87813997268677
1619378637.7522,-36.84201,32.893759965896606
1619378637.76783,-15.48456,32.90938997268677
1619378637.78345,3.588989,32.925009965896606
1619378637.79908,19.14804,32.94063997268677
1619378637.81471,31.01697,32.95626997947693
1619378637.83033,39.72275,32.97188997268677
1619378637.84596,45.91562,32.98751997947693
1619378637.86158,49.97089,33.00313997268677
1619378637.87721,51.99396,33.01876997947693
1619378637.89283,52.00867,33.03438997268677
1619378637.90846,50.21979,33.05001997947693
1619378637.92409,47.17731,33.06564998626709
1619378637.93971,43.62042,33.08126997947693
1619378637.95534,40.26404,33.09689998626709
1619378637.97096,37.56897,33.11251997947693
1619378637.98659,35.69424,33.12814998626709
1619378638.00221,34.58267,33.14376997947693
1619378638.01784,34.07617,33.15939998626709
1619378638.03347,34.04059,33.17502999305725
1619378638.04909,34.37976,33.19064998626709
1619378638.06472,34.99075,33.20627999305725
1619378638.08034,35.73825,33.22189998626709
1619378638.09597,36.4299,33.23752999305725
1619378638.11159,36.81888,33.25314998626709
1619378638.12722,36.67401,33.26877999305725
1619378638.14285,35.80072,33.28440999984741
1619378638.15847,34.04416,33.30002999305725
1619378638.1741,31.35492,33.31565999984741
1619378638.18972,27.76346,33.33127999305725
1619378638.20535,23.46216,33.34690999984741
1619378638.22097,18.72415,33.36252999305725
1619378638.2366,13.87354,33.37815999984741
1619378638.25223,9.202576,33.39379000663757
1619378638.26785,4.877289,33.40940999984741
1619378638.28348,0.9143066,33.42504000663757
1619378638.2991,-2.815399,33.44065999984741
1619378638.31473,-6.522675,33.45629000663757
1619378638.33035,-10.44507,33.47190999984741
1619378638.34598,-14.71927,33.48754000663757
1619378638.36161,-19.3876,33.503170013427734
1619378638.37723,-24.30396,33.51879000663757
1619378638.39286,-29.2153,33.534420013427734
1619378638.40848,-33.83557,33.55004000663757
1619378638.42411,-37.978,33.565670013427734
1619378638.43973,-41.6553,33.58129000663757
1619378638.45536,-45.08255,33.596920013427734
1619378638.47099,-48.68756,33.612550020217896
1619378638.48661,-52.94333,33.628170013427734
1619378638.50224,-58.28055,33.643800020217896
1619378638.51786,-64.85349,33.659420013427734
1619378638.53349,-72.3251,33.675050020217896
1619378638.54911,-79.67599,33.690670013427734
1619378638.56474,-85.19229,33.706300020217896
1619378638.58037,-86.76825,33.72193002700806
1619378638.59599,-82.49445,33.737550020217896
1619378638.61162,-71.3605,33.75318002700806
1619378638.62724,-53.67636,33.768800020217896
1619378638.64287,-31.15366,33.78443002700806
1619378638.65849,-6.341125,33.800050020217896
1619378638.67412,18.13614,33.81568002700806
1619378638.68975,40.28174,33.83131003379822
1619378638.70537,59.10718,33.84693002700806
1619378638.721,74.54312,33.86256003379822
1619378638.73662,87.00131,33.87818002700806
1619378638.75225,96.92972,33.89381003379822
1619378638.76787,104.5486,33.90943002700806
1619378638.7835,109.798,33.92506003379822
1619378638.79913,112.5649,33.94069004058838
1619378638.81475,112.9182,33.95631003379822
1619378638.83038,111.2162,33.97194004058838
1619378638.846,108.0552,33.98756003379822
1619378638.86163,104.1253,34.00319004058838
1619378638.87725,99.98386,34.01881003379822
1619378638.89288,95.90302,34.03444004058838
1619378638.90851,91.86835,34.05007004737854
1619378638.92413,87.63824,34.06569004058838
1619378638.93976,82.88708,34.08132004737854
1619378638.95538,77.40417,34.09694004058838
1619378638.97101,71.18073,34.11257004737854
1619378638.98663,64.44498,34.12819004058838
1619378639.00226,57.62534,34.14382004737854
1619378639.01789,51.17892,34.1594500541687
1619378639.03351,45.48648,34.17507004737854
1619378639.04914,40.76456,34.1907000541687
1619378639.06476,36.98419,34.20632004737854
1619378639.08039,33.81317,34.2219500541687
1619378639.09601,30.74176,34.23757004737854
1619378639.11164,27.10947,34.2532000541687
1619378639.12727,22.30576,34.26883006095886
1619378639.14289,15.98312,34.2844500541687
1619378639.15852,8.116394,34.30008006095886
1619378639.17414,-0.9811096,34.3157000541687
1619378639.18977,-10.89783,34.33133006095886
1619378639.20539,-21.34402,34.3469500541687
1619378639.22102,-32.31958,34.36258006095886
1619378639.23665,-44.03409,34.37821006774902
1619378639.25227,-56.6907,34.39383006095886
1619378639.2679,-70.17044,34.40946006774902
1619378639.28352,-83.86575,34.42508006095886
1619378639.29915,-96.82959,34.44071006774902
1619378639.31477,-108.0176,34.45633006095886
1619378639.3304,-116.6569,34.47196006774902
1619378639.34603,-122.4339,34.487590074539185
1619378639.36165,-125.5051,34.50321006774902
1619378639.37728,-126.2734,34.518840074539185
1619378639.3929,-125.3749,34.53446006774902
1619378639.40853,-123.56,34.550090074539185
1619378639.42416,-121.7334,34.565720081329346
1619378639.43978,-120.8715,34.581340074539185
1619378639.45541,-121.7043,34.596970081329346
1619378639.47103,-124.3914,34.612590074539185
1619378639.48666,-128.2286,34.628220081329346
1619378639.50228,-131.6765,34.643840074539185
1619378639.51791,-132.7022,34.659470081329346
1619378639.53354,-129.4464,34.67510008811951
1619378639.54916,-120.7215,34.690720081329346
1619378639.56479,-106.4009,34.70635008811951
1619378639.58041,-87.4469,34.721970081329346
1619378639.59604,-65.57208,34.73760008811951
1619378639.61166,-42.79071,34.753220081329346
1619378639.62729,-20.99921,34.76885008811951
1619378639.64292,-1.647125,34.78448009490967
1619378639.65854,14.34766,34.80010008811951
1619378639.67417,26.62036,34.81573009490967
1619378639.68979,35.28949,34.83135008811951
1619378639.70542,40.79089,34.84698009490967
1619378639.72104,43.71878,34.86260008811951
1619378639.73667,44.75278,34.87823009490967
1619378639.7523,44.48291,34.89386010169983
1619378639.76792,43.41931,34.90948009490967
1619378639.78355,41.99838,34.92511010169983
1619378639.79917,40.59851,34.94073009490967
1619378639.8148,39.54947,34.95636010169983
1619378639.83042,39.1268,34.97198009490967
1619378639.84605,39.48975,34.98761010169983
1619378639.86168,40.60864,35.00324010848999
1619378639.8773,42.26563,35.01886010169983
1619378639.89293,44.08081,35.03449010848999
1619378639.90855,45.65994,35.05011010169983
1619378639.92418,46.74152,35.06574010848999
1619378639.9398,47.27048,35.08136010169983
1619378639.95543,47.33694,35.09699010848999
1619378639.97106,47.09207,35.11262011528015
1619378639.98668,46.55884,35.12824010848999
1619378640.00231,45.59644,35.14387011528015
1619378640.01793,43.96234,35.15949010848999
1619378640.03356,41.45041,35.17512011528015
1619378640.04918,38.06049,35.19074010848999
1619378640.06481,34.04672,35.20637011528015
1619378640.08044,29.79263,35.22200012207031
1619378640.09606,25.67117,35.23762011528015
1619378640.11169,21.84973,35.25325012207031
1619378640.12731,18.26556,35.26887011528015
1619378640.14294,14.69748,35.28450012207031
1619378640.15856,10.90265,35.30012011528015
1619378640.17419,6.772064,35.31575012207031
1619378640.18982,2.362854,35.331380128860474
1619378640.20544,-2.126404,35.34700012207031
1619378640.22107,-6.442932,35.362630128860474
1619378640.23669,-10.38461,35.37825012207031
1619378640.25232,-13.89267,35.393880128860474
1619378640.26794,-17.08768,35.40950012207031
1619378640.28357,-20.2912,35.425130128860474
1619378640.2992,-23.91156,35.440760135650635
1619378640.31482,-28.32184,35.456380128860474
1619378640.33045,-33.76154,35.472010135650635
1619378640.34607,-40.21826,35.487630128860474
1619378640.3617,-47.42175,35.503260135650635
1619378640.37732,-54.79465,35.518880128860474
1619378640.39295,-61.44846,35.534510135650635
1619378640.40858,-66.18814,35.550140142440796
1619378640.4242,-67.6684,35.565760135650635
1619378640.43983,-64.66034,35.581390142440796
1619378640.45545,-56.52567,35.597010135650635
1619378640.47108,-43.54605,35.612640142440796
1619378640.4867,-27.05383,35.628260135650635
1619378640.50233,-9.156158,35.643890142440796
1619378640.51796,7.862122,35.65952014923096
1619378640.53358,22.21271,35.675140142440796
1619378640.54921,33.04156,35.69077014923096
1619378640.56483,40.46136,35.706390142440796
1619378640.58046,45.15671,35.72202014923096
1619378640.59608,47.8959,35.737640142440796
1619378640.61171,49.1597,35.75327014923096
1619378640.62734,49.11807,35.76890015602112
1619378640.64296,47.83456,35.78452014923096
1619378640.65859,45.51324,35.80015015602112
1619378640.67421,42.63336,35.81577014923096
1619378640.68984,39.80167,35.83140015602112
1619378640.70546,37.54691,35.84702014923096
1619378640.72109,36.12393,35.86265015602112
1619378640.73672,35.43378,35.87828016281128
1619378640.75234,35.19232,35.89390015602112
1619378640.76797,35.11374,35.90953016281128
1619378640.78359,35.08569,35.92515015602112
1619378640.79922,35.19498,35.94078016281128
1619378640.81484,35.60135,35.95640015602112
1619378640.83047,36.36234,35.97203016281128
1619378640.8461,37.3035,35.98766016960144
1619378640.86172,38.05304,36.00328016281128
1619378640.87735,38.1377,36.01891016960144
1619378640.89297,37.20325,36.03453016281128
1619378640.9086,35.16867,36.05016016960144
1619378640.92422,32.22034,36.06578016281128
1619378640.93985,28.72803,36.08141016960144
1619378640.95548,25.04248,36.0970401763916
1619378640.9711,21.36768,36.11266016960144
1619378640.98673,17.71326,36.1282901763916
1619378641.00235,13.97192,36.14391016960144
1619378641.01798,10.02438,36.1595401763916
1619378641.0336,5.862305,36.17516016960144
1619378641.04923,1.563416,36.1907901763916
1619378641.06486,-2.718658,36.20642018318176
1619378641.08048,-6.861816,36.2220401763916
1619378641.09611,-10.8063,36.23767018318176
1619378641.11173,-14.54404,36.2532901763916
1619378641.12736,-18.09091,36.26892018318176
1619378641.14298,-21.466,36.2845401763916
1619378641.15861,-24.70602,36.30017018318176
1619378641.17424,-27.86728,36.315800189971924
1619378641.18986,-31.06436,36.33142018318176
1619378641.20549,-34.47797,36.347050189971924
1619378641.22111,-38.27487,36.36267018318176
1619378641.23674,-42.59296,36.378300189971924
1619378641.25236,-47.39233,36.39392018318176
1619378641.26799,-52.40344,36.409550189971924
1619378641.28362,-57.12158,36.425180196762085
1619378641.29924,-60.84946,36.440800189971924
1619378641.31487,-62.82315,36.456430196762085
1619378641.33049,-62.37494,36.472050189971924
1619378641.34612,-59.03354,36.487680196762085
1619378641.36174,-52.65018,36.503300189971924
1619378641.37737,-43.39758,36.518930196762085
1619378641.393,-31.83893,36.53455996513367
1619378641.40862,-18.87253,36.550180196762085
1619378641.42425,-5.655396,36.56580996513367
1619378641.43987,6.618988,36.581430196762085
1619378641.4555,16.96558,36.59705996513367
1619378641.47112,24.8345,36.612680196762085
1619378641.48675,30.15628,36.62830996513367
1619378641.50238,33.23434,36.64393997192383
1619378641.518,34.52042,36.65955996513367
1619378641.53363,34.40518,36.67518997192383
1619378641.54925,33.15665,36.69080996513367
1619378641.56488,31.03687,36.70643997192383
1619378641.5805,28.42108,36.72205996513367
1619378641.59613,25.82321,36.73768997192383
1619378641.61176,23.7793,36.75331997871399
1619378641.62738,22.62427,36.76893997192383
1619378641.64301,22.3349,36.78456997871399
1619378641.65863,22.54941,36.80018997192383
1619378641.67426,22.76993,36.81581997871399
1619378641.68988,22.60602,36.83143997192383
1619378641.70551,21.97272,36.84706997871399
1619378641.72114,21.0437,36.86269998550415
1619378641.73676,20.10773,36.87831997871399
1619378641.75239,19.31274,36.89394998550415
1619378641.76801,18.61246,36.90956997871399
1619378641.78364,17.73508,36.92519998550415
1619378641.79927,16.3891,36.94082999229431
1619378641.81489,14.34933,36.95644998550415
1619378641.83052,11.58926,36.97207999229431
1619378641.84614,8.276337,36.98769998550415
1619378641.86177,4.660095,37.00332999229431
1619378641.87739,1.020172,37.01894998550415
1619378641.89302,-2.498047,37.03457999229431
1619378641.90865,-5.863708,37.05020999908447
1619378641.92427,-9.163696,37.06582999229431
1619378641.9399,-12.53458,37.08145999908447
1619378641.95552,-16.08734,37.09707999229431
1619378641.97115,-19.78687,37.11270999908447
1619378641.98677,-23.48914,37.12832999229431
1619378642.0024,-26.94101,37.14395999908447
1619378642.01803,-29.90427,37.159590005874634
1619378642.03365,-32.32913,37.17520999908447
1619378642.04928,-34.422,37.190840005874634
1619378642.0649,-36.64999,37.20645999908447
1619378642.08053,-39.57428,37.222090005874634
1619378642.09615,-43.64868,37.23770999908447
1619378642.11178,-48.96899,37.253340005874634
1619378642.12741,-55.19189,37.268970012664795
1619378642.14303,-61.5379,37.284590005874634
1619378642.15866,-66.95978,37.300220012664795
1619378642.17428,-70.37515,37.315840005874634
1619378642.18991,-70.84918,37.331470012664795
1619378642.20553,-67.74231,37.347090005874634
1619378642.22116,-60.85156,37.362720012664795
1619378642.23679,-50.40756,37.378350019454956
1619378642.25241,-37.16031,37.393970012664795
1619378642.26804,-22.30301,37.409600019454956
1619378642.28366,-7.332825,37.425220012664795
1619378642.29929,6.303131,37.440850019454956
1619378642.31491,17.51932,37.456470012664795
1619378642.33054,25.82458,37.472100019454956
1619378642.34617,31.34094,37.48773002624512
1619378642.36179,34.59924,37.503350019454956
1619378642.37742,36.20203,37.51898002624512
1619378642.39304,36.63995,37.534600019454956
1619378642.40867,36.17108,37.55023002624512
1619378642.42429,34.99066,37.565850019454956
1619378642.43992,33.32166,37.58148002624512
1619378642.45555,31.50278,37.59711003303528
1619378642.47117,29.93912,37.61273002624512
1619378642.4868,28.96246,37.62836003303528
1619378642.50242,28.75763,37.64398002624512
1619378642.51805,29.30402,37.65961003303528
1619378642.53367,30.47009,37.67523002624512
1619378642.5493,32.0545,37.69086003303528
1619378642.56493,33.86963,37.70649003982544
1619378642.58055,35.74377,37.72211003303528
1619378642.59618,37.53503,37.73774003982544
1619378642.6118,39.08331,37.75336003303528
1619378642.62743,40.18732,37.76899003982544
1619378642.64305,40.63077,37.78461003303528
1619378642.65868,40.14676,37.80024003982544
1619378642.67431,38.49811,37.8158700466156
1619378642.68993,35.56433,37.83149003982544
1619378642.70556,31.46448,37.8471200466156
1619378642.72118,26.58145,37.86274003982544
1619378642.73681,21.46088,37.8783700466156
1619378642.75243,16.62045,37.89399003982544
1619378642.76806,12.3522,37.9096200466156
1619378642.78369,8.623718,37.92525005340576
1619378642.79931,5.110504,37.9408700466156
1619378642.81494,1.411682,37.95650005340576
1619378642.83056,-2.796173,37.9721200466156
1619378642.84619,-7.564056,37.98775005340576
1619378642.86181,-12.69818,38.0033700466156
1619378642.87744,-17.84299,38.01900005340576
1619378642.89307,-22.63608,38.03463006019592
1619378642.90869,-26.84933,38.05025005340576
1619378642.92432,-30.51807,38.06588006019592
1619378642.93994,-33.94275,38.08150005340576
1619378642.95557,-37.61441,38.09713006019592
1619378642.97119,-42.04883,38.11275005340576
1619378642.98682,-47.58157,38.12838006019592
1619378643.00245,-54.20197,38.144010066986084
1619378643.01807,-61.42056,38.15963006019592
1619378643.0337,-68.33002,38.175260066986084
1619378643.04932,-73.69763,38.19088006019592
1619378643.06495,-76.19678,38.206510066986084
1619378643.08057,-74.70517,38.22213006019592
1619378643.0962,-68.58307,38.237760066986084
1619378643.11183,-57.93939,38.253390073776245
1619378643.12745,-43.65939,38.269010066986084
1619378643.14308,-27.2471,38.284640073776245
1619378643.1587,-10.45352,38.300260066986084
1619378643.17433,5.117645,38.315890073776245
1619378643.18995,18.35522,38.331510066986084
1619378643.20558,28.70313,38.347140073776245
1619378643.22121,36.1131,38.362770080566406
1619378643.23683,40.82062,38.378390073776245
1619378643.25246,43.1944,38.394020080566406
1619378643.26808,43.66248,38.409640073776245
1619378643.28371,42.70825,38.425270080566406
1619378643.29933,40.88916,38.440890073776245
1619378643.31496,38.76816,38.456520080566406
1619378643.33059,36.85318,38.47215008735657
1619378643.34621,35.45483,38.487770080566406
1619378643.36184,34.67484,38.50340008735657
1619378643.37746,34.41867,38.519020080566406
1619378643.39309,34.48712,38.53465008735657
1619378643.40871,34.69165,38.550270080566406
1619378643.42434,34.90259,38.56590008735657
1619378643.43997,35.06705,38.58153009414673
1619378643.45559,35.14551,38.59715008735657
1619378643.47122,35.1098,38.61278009414673
1619378643.48684,34.88873,38.62840008735657
1619378643.50247,34.39529,38.64403009414673
1619378643.51809,33.55844,38.65965008735657
1619378643.53372,32.33136,38.67528009414673
1619378643.54935,30.67386,38.69091010093689
1619378643.56497,28.5148,38.70653009414673
1619378643.5806,25.76678,38.72216010093689
1619378643.59622,22.32883,38.73778009414673
1619378643.61185,18.22397,38.75341010093689
1619378643.62747,13.61304,38.76903009414673
1619378643.6431,8.806213,38.78466010093689
1619378643.65873,4.19043,38.80029010772705
1619378643.67435,0.05282593,38.81591010093689
1619378643.68998,-3.513641,38.83154010772705
1619378643.7056,-6.655945,38.84716010093689
1619378643.72123,-9.648773,38.86279010772705
1619378643.73685,-12.77859,38.87841010093689
1619378643.75248,-16.21259,38.89404010772705
1619378643.76811,-19.9455,38.90967011451721
1619378643.78373,-23.81827,38.92529010772705
1619378643.79936,-27.60977,38.94092011451721
1619378643.81498,-31.15875,38.95654010772705
1619378643.83061,-34.41428,38.97217011451721
1619378643.84623,-37.5137,38.98779010772705
1619378643.86186,-40.74298,39.00342011451721
1619378643.87749,-44.46988,39.01905012130737
1619378643.89311,-48.97934,39.03467011451721
1619378643.90874,-54.36194,39.05030012130737
1619378643.92436,-60.39752,39.06592011451721
1619378643.93999,-66.51617,39.08155012130737
1619378643.95562,-71.83804,39.097180128097534
1619378643.97124,-75.23672,39.11280012130737
1619378643.98687,-75.50766,39.128430128097534
1619378644.00249,-71.65692,39.14405012130737
1619378644.01812,-63.17664,39.159680128097534
1619378644.03374,-50.35571,39.17530012130737
1619378644.04937,-34.36655,39.190930128097534
1619378644.065,-17.08795,39.206560134887695
1619378644.08062,-0.5785522,39.222180128097534
1619378644.09625,13.49701,39.237810134887695
1619378644.11187,24.26935,39.253430128097534
1619378644.1275,31.76343,39.269060134887695
1619378644.14312,36.57571,39.284680128097534
1619378644.15875,39.4223,39.300310134887695
1619378644.17438,40.79031,39.315940141677856
1619378644.19,40.87912,39.331560134887695
1619378644.20563,39.78815,39.347190141677856
1619378644.22125,37.77768,39.362810134887695
1619378644.23688,35.37122,39.378440141677856
1619378644.2525,33.23273,39.394060134887695
1619378644.26813,31.95569,39.409690141677856
1619378644.28376,31.82248,39.42532014846802
1619378644.29938,32.7373,39.440940141677856
1619378644.31501,34.3237,39.45657014846802
1619378644.33063,36.11572,39.472190141677856
1619378644.34626,37.72873,39.48782014846802
1619378644.36188,38.97287,39.503440141677856
1619378644.37751,39.84348,39.51907014846802
1619378644.39314,40.42471,39.53470015525818
1619378644.40876,40.8046,39.55032014846802
1619378644.42439,40.9819,39.56595015525818
1619378644.44001,40.83023,39.58157014846802
1619378644.45564,40.15353,39.59720015525818
1619378644.47126,38.77594,39.61282014846802
1619378644.48689,36.67603,39.62845015525818
1619378644.50252,34.00461,39.64408016204834
1619378644.51814,31.03653,39.65970015525818
1619378644.53377,28.03137,39.67533016204834
1619378644.54939,25.14767,39.69095015525818
1619378644.56502,22.383,39.70658016204834
1619378644.58064,19.65164,39.72220015525818
1619378644.59627,16.89307,39.73783016204834
1619378644.6119,14.14417,39.7534601688385
1619378644.62752,11.52808,39.76908016204834
1619378644.64315,9.180847,39.7847101688385
1619378644.65877,7.126495,39.80033016204834
1619378644.6744,5.254547,39.8159601688385
1619378644.69002,3.407806,39.83158016204834
1619378644.70565,1.470306,39.8472101688385
1619378644.72128,-0.5248108,39.86284017562866
1619378644.7369,-2.366699,39.8784601688385
1619378644.75253,-3.808502,39.89409017562866
1619378644.76815,-4.689819,39.9097101688385
1619378644.78378,-5.101501,39.92534017562866
1619378644.7994,-5.391235,39.9409601688385
1619378644.81503,-6.031708,39.95659017562866
1619378644.83066,-7.311066,39.97222018241882
1619378644.84628,-9.133423,39.98784017562866
1619378644.86191,-10.87326,40.00347018241882
1619378644.87753,-11.55222,40.01909017562866
1619378644.89316,-10.17554,40.03472018241882
1619378644.90878,-6.108795,40.05034017562866
1619378644.92441,0.6428528,40.06597018241882
1619378644.94004,9.414185,40.081600189208984
1619378644.95566,19.12851,40.09722018241882
1619378644.97129,28.62857,40.112850189208984
1619378644.98691,37.02106,40.12847018241882
1619378645.00254,43.80463,40.144100189208984
1619378645.01816,48.89133,40.15972018241882
1619378645.03379,52.42783,40.175350189208984
1619378645.04942,54.64395,40.190980195999146
1619378645.06504,55.82019,40.206600189208984
1619378645.08067,56.2348,40.222230195999146
1619378645.09629,56.12903,40.237850189208984
1619378645.11192,55.67355,40.253480195999146
1619378645.12754,54.89185,40.269100189208984
1619378645.14317,53.64972,40.284730195999146
1619378645.1588,51.67444,40.30035996437073
1619378645.17442,48.65433,40.315980195999146
1619378645.19005,44.36618,40.33160996437073
1619378645.20567,38.76456,40.347230195999146
1619378645.2213,32.02997,40.36285996437073
1619378645.23692,24.56323,40.378480195999146
1619378645.25255,16.89536,40.39410996437073
1619378645.26818,9.569519,40.40973997116089
1619378645.2838,3.072235,40.42535996437073
1619378645.29943,-2.244202,40.44098997116089
1619378645.31505,-6.222839,40.45660996437073
1619378645.33068,-8.909546,40.47223997116089
1619378645.3463,-10.58582,40.48785996437073
1619378645.36193,-11.81418,40.50348997116089
1619378645.37756,-13.41241,40.51911997795105
1619378645.39318,-16.31616,40.53473997116089
1619378645.40881,-21.34882,40.55036997795105
1619378645.42443,-28.81549,40.56598997116089
1619378645.44006,-38.32404,40.58161997795105
1619378645.45568,-48.77228,40.59723997116089
1619378645.47131,-58.66101,40.61286997795105
1619378645.48694,-66.67108,40.62849998474121
1619378645.50256,-72.06818,40.64411997795105
1619378645.51819,-74.97778,40.65974998474121
1619378645.53381,-76.14618,40.67536997795105
1619378645.54944,-76.62708,40.69099998474121
1619378645.56506,-77.27386,40.70661997795105
1619378645.58069,-78.55786,40.72224998474121
1619378645.59632,-80.52228,40.73787999153137
1619378645.61194,-82.98706,40.75349998474121
1619378645.62757,-85.70605,40.76912999153137
1619378645.64319,-88.48004,40.78474998474121
1619378645.65882,-91.13593,40.80037999153137
1619378645.67444,-93.50226,40.81599998474121
1619378645.69007,-95.45612,40.83162999153137
1619378645.7057,-96.99982,40.84725999832153
1619378645.72132,-98.3078,40.86287999153137
1619378645.73695,-99.60352,40.87850999832153
1619378645.75257,-100.9631,40.89412999153137
1619378645.7682,-102.0064,40.90975999832153
1619378645.78382,-101.7903,40.92537999153137
1619378645.79945,-98.99841,40.94100999832153
1619378645.81508,-92.39886,40.956640005111694
1619378645.8307,-81.40051,40.97225999832153
1619378645.84633,-66.42828,40.987890005111694
1619378645.86195,-48.88635,41.00350999832153
1619378645.87758,-30.69202,41.019140005111694
1619378645.8932,-13.6571,41.03475999832153
1619378645.90883,0.97052,41.050390005111694
1619378645.92446,12.68616,41.066020011901855
1619378645.94008,21.50049,41.081640005111694
1619378645.95571,27.68042,41.097270011901855
1619378645.97133,31.51813,41.112890005111694
1619378645.98696,33.31372,41.128520011901855
1619378646.00258,33.48999,41.144140005111694
1619378646.01821,32.64301,41.159770011901855
1619378646.03384,31.44843,41.17540001869202
1619378646.04946,30.47821,41.191020011901855
1619378646.06509,30.04407,41.20665001869202
1619378646.08071,30.13013,41.222270011901855
1619378646.09634,30.49164,41.23790001869202
1619378646.11196,30.84412,41.253520011901855
1619378646.12759,31.02618,41.26915001869202
1619378646.14322,31.02631,41.28478002548218
1619378646.15884,30.95544,41.30040001869202
1619378646.17447,30.85565,41.31603002548218
1619378646.19009,30.67822,41.33165001869202
1619378646.20572,30.22699,41.34728002548218
1619378646.22134,29.25391,41.36290001869202
1619378646.23697,27.54788,41.37853002548218
1619378646.2526,25.03491,41.39416003227234
1619378646.26822,21.80807,41.40978002548218
1619378646.28385,18.14365,41.42541003227234
1619378646.29947,14.41376,41.44103002548218
1619378646.3151,10.96683,41.45666003227234
1619378646.33072,8.005341,41.47228002548218
1619378646.34635,5.511902,41.48791003227234
1619378646.36198,3.269653,41.5035400390625
1619378646.3776,0.9079895,41.51916003227234
1619378646.39323,-1.94223,41.5347900390625
1619378646.40885,-5.51828,41.55041003227234
1619378646.42448,-9.807098,41.5660400390625
1619378646.4401,-14.54916,41.58166003227234
1619378646.45573,-19.3241,41.5972900390625
1619378646.47136,-23.65466,41.61292004585266
1619378646.48698,-27.25681,41.6285400390625
1619378646.50261,-30.15543,41.64417004585266
1619378646.51823,-32.67456,41.6597900390625
1619378646.53386,-35.39413,41.67542004585266
1619378646.54948,-38.89651,41.6910400390625
1619378646.56511,-43.52209,41.70667004585266
1619378646.58074,-49.1185,41.72230005264282
1619378646.59636,-55.05417,41.73792004585266
1619378646.61199,-60.26086,41.75355005264282
1619378646.62761,-63.51993,41.76917004585266
1619378646.64324,-63.78372,41.78480005264282
1619378646.65887,-60.41199,41.80043005943298
1619378646.67449,-53.36176,41.81605005264282
1619378646.69012,-43.13504,41.83168005943298
1619378646.70574,-30.65463,41.84730005264282
1619378646.72137,-17.02786,41.86293005943298
1619378646.73699,-3.374634,41.87855005264282
1619378646.75262,9.396698,41.89418005943298
1619378646.76825,20.57895,41.909810066223145
1619378646.78387,29.73914,41.92543005943298
1619378646.7995,36.64035,41.941060066223145
1619378646.81512,41.2764,41.95668005943298
1619378646.83075,43.85031,41.972310066223145
1619378646.84637,44.75153,41.98793005943298
1619378646.862,44.50735,42.003560066223145
1619378646.87763,43.64151,42.019190073013306
1619378646.89325,42.57672,42.034810066223145
1619378646.90888,41.54309,42.050440073013306
1619378646.9245,40.61038,42.066060066223145
1619378646.94013,39.78375,42.081690073013306
1619378646.95575,39.06793,42.097310066223145
1619378646.97138,38.57129,42.112940073013306
1619378646.98701,38.39291,42.12857007980347
1619378647.00263,38.57245,42.144190073013306
1619378647.01826,38.99097,42.15982007980347
1619378647.03388,39.35535,42.175440073013306
1619378647.04951,39.26968,42.19107007980347
1619378647.06513,38.36374,42.206690073013306
1619378647.08076,36.4415,42.22232007980347
1619378647.09639,33.48651,42.23795008659363
1619378647.11201,29.67255,42.25357007980347
1619378647.12764,25.26236,42.26920008659363
1619378647.14326,20.51312,42.28482007980347
1619378647.15889,15.62643,42.30045008659363
1619378647.17451,10.68454,42.31607007980347
1619378647.19014,5.650146,42.33170008659363
1619378647.20577,0.4173584,42.34733009338379
1619378647.22139,-5.137756,42.36295008659363
1619378647.23702,-11.04724,42.37858009338379
1619378647.25264,-17.16144,42.39420008659363
1619378647.26827,-23.1933,42.40983009338379
1619378647.28389,-28.78506,42.42545008659363
1619378647.29952,-33.69809,42.44108009338379
1619378647.31515,-37.92569,42.45671010017395
1619378647.33077,-41.81793,42.47233009338379
1619378647.3464,-45.95532,42.48796010017395
1619378647.36202,-51.00122,42.50358009338379
1619378647.37765,-57.47409,42.51921010017395
1619378647.39327,-65.44608,42.53483009338379
1619378647.4089,-74.37695,42.55046010017395
1619378647.42453,-82.99869,42.56609010696411
1619378647.44015,-89.45404,42.58171010017395
1619378647.45578,-91.65427,42.59734010696411
1619378647.4714,-87.92577,42.61296010017395
1619378647.48703,-77.59113,42.62859010696411
1619378647.50265,-61.38579,42.64421010017395
1619378647.51828,-41.32704,42.65984010696411
1619378647.53391,-20.13078,42.67547011375427
1619378647.54953,-0.3616333,42.69109010696411
1619378647.56516,16.27107,42.70672011375427
1619378647.58078,29.20113,42.72234010696411
1619378647.59641,38.7449,42.73797011375427
1619378647.61203,45.55661,42.75359010696411
1619378647.62766,50.15736,42.76922011375427
1619378647.64329,52.72916,42.784850120544434
1619378647.65891,53.26669,42.80047011375427
1619378647.67454,51.89154,42.816100120544434
1619378647.69016,49.10052,42.83172011375427
1619378647.70579,45.74399,42.847350120544434
1619378647.72141,42.76959,42.86297011375427
1619378647.73704,40.86647,42.878600120544434
1619378647.75267,40.24277,42.894230127334595
1619378647.76829,40.62889,42.909850120544434
1619378647.78392,41.4536,42.925480127334595
1619378647.79954,42.17706,42.941100120544434
1619378647.81517,42.46532,42.956730127334595
1619378647.83079,42.29851,42.972350120544434
1619378647.84642,41.83769,42.987980127334595
1619378647.86205,41.28343,43.003610134124756
1619378647.87767,40.62807,43.019230127334595
1619378647.8933,39.58829,43.034860134124756
1619378647.90892,37.65337,43.050480127334595
1619378647.92455,34.25699,43.066110134124756
1619378647.94017,29.04649,43.081730127334595
1619378647.9558,22.09259,43.097360134124756
1619378647.97143,13.91922,43.11299014091492
1619378647.98705,5.34642,43.128610134124756
1619378648.00268,-2.82663,43.14424014091492
1619378648.0183,-10.14896,43.159860134124756
1619378648.03393,-16.7043,43.17549014091492
1619378648.04955,-23.00517,43.191110134124756
1619378648.06518,-29.74623,43.20674014091492
1619378648.08081,-37.37484,43.22237014770508
1619378648.09643,-45.85613,43.23799014091492
1619378648.11206,-54.58365,43.25362014770508
1619378648.12768,-62.62146,43.26924014091492
1619378648.14331,-69.04185,43.28487014770508
1619378648.15893,-73.29122,43.30049014091492
1619378648.17456,-75.38351,43.31612014770508
1619378648.19019,-75.94254,43.33175015449524
1619378648.20581,-75.97449,43.34737014770508
1619378648.22144,-76.61954,43.36300015449524
1619378648.23706,-78.8704,43.37862014770508
1619378648.25269,-83.27624,43.39425015449524
1619378648.26831,-89.76935,43.40987014770508
1619378648.28394,-97.46802,43.42550015449524
1619378648.29957,-104.6235,43.4411301612854
1619378648.31519,-108.8383,43.45675015449524
1619378648.33082,-107.5882,43.4723801612854
1619378648.34644,-99.01678,43.48800015449524
1619378648.36207,-82.63235,43.5036301612854
1619378648.37769,-59.68691,43.51925015449524
1619378648.39332,-32.83718,43.5348801612854
1619378648.40895,-5.334088,43.55051016807556
1619378648.42457,20.01859,43.5661301612854
1619378648.4402,41.56647,43.58176016807556
1619378648.45582,58.91283,43.5973801612854
1619378648.47145,72.47242,43.61301016807556
1619378648.48707,82.89189,43.6286301612854
1619378648.5027,90.59377,43.64426016807556
1619378648.51833,95.70428,43.65989017486572
1619378648.53395,98.27769,43.67551016807556
1619378648.54958,98.54168,43.69114017486572
1619378648.5652,96.98106,43.70676016807556
1619378648.58083,94.28544,43.72239017486572
1619378648.59645,91.13503,43.73801016807556
1619378648.61208,88.03731,43.75364017486572
1619378648.62771,85.28137,43.769270181655884
1619378648.64333,82.97974,43.78489017486572
1619378648.65896,81.14693,43.800520181655884
1619378648.67458,79.78268,43.81614017486572
1619378648.69021,78.87164,43.831770181655884
1619378648.70583,78.3849,43.84739017486572
1619378648.72146,78.26132,43.863020181655884
1619378648.73709,78.3219,43.878650188446045
1619378648.75271,78.25466,43.894270181655884
1619378648.76834,77.64354,43.909900188446045
1619378648.78396,76.06538,43.925520181655884
1619378648.79959,73.2044,43.941150188446045
1619378648.81522,69.04096,43.956780195236206
1619378648.83084,63.87531,43.972400188446045
1619378648.84647,58.23498,43.988030195236206
1619378648.86209,52.73603,44.003650188446045
1619378648.87772,47.84966,44.019280195236206
1619378648.89334,43.74324,44.034900188446045
1619378648.90897,40.24535,44.050530195236206
1619378648.9246,36.92049,44.06615996360779
1619378648.94022,33.23744,44.081780195236206
1619378648.95585,28.7748,44.09740996360779
1619378648.97147,23.38751,44.113030195236206
1619378648.9871,17.22243,44.12865996360779
