timestamp,value,norm_ts
1619376385.43736,51.22673,3.345139980316162
1619376385.45299,44.5096,3.3607699871063232
1619376385.46862,38.02498,3.3763999938964844
1619376385.48424,32.22081,3.3920199871063232
1619376385.49987,27.27138,3.4076499938964844
1619376385.51549,22.993,3.4232699871063232
1619376385.53112,18.91873,3.4388999938964844
1619376385.54674,14.48009,3.4545199871063232
1619376385.56237,9.175575,3.4701499938964844
1619376385.578,2.747643,3.4857800006866455
1619376385.59362,-4.779076,3.5013999938964844
1619376385.60925,-13.09704,3.5170300006866455
1619376385.62487,-21.76344,3.5326499938964844
1619376385.6405,-30.30193,3.5482800006866455
1619376385.65612,-38.43734,3.5638999938964844
1619376385.67175,-46.14127,3.5795300006866455
1619376385.68738,-53.71886,3.5951600074768066
1619376385.703,-61.72058,3.6107800006866455
1619376385.71863,-70.78513,3.6264100074768066
1619376385.73425,-81.36661,3.6420300006866455
1619376385.74988,-93.44859,3.6576600074768066
1619376385.7655,-106.3288,3.6732800006866455
1619376385.78113,-118.5799,3.6889100074768066
1619376385.79676,-128.2703,3.7045400142669678
1619376385.81238,-133.3494,3.7201600074768066
1619376385.82801,-132.2005,3.7357900142669678
1619376385.84363,-124.0724,3.7514100074768066
1619376385.85926,-109.3189,3.7670400142669678
1619376385.87488,-89.32102,3.7826600074768066
1619376385.89051,-66.15131,3.7982900142669678
1619376385.90614,-42.07192,3.813920021057129
1619376385.92176,-19.06775,3.8295400142669678
1619376385.93739,1.44318,3.845170021057129
1619376385.95301,18.64107,3.8607900142669678
1619376385.96864,32.2282,3.876420021057129
1619376385.98426,42.22326,3.8920400142669678
1619376385.99989,48.85168,3.907670021057129
1619376386.01552,52.48669,3.92330002784729
1619376386.03114,53.63805,3.938920021057129
1619376386.04677,52.94109,3.95455002784729
1619376386.06239,51.01072,3.970170021057129
1619376386.07802,48.38047,3.98580002784729
1619376386.09364,45.40155,4.001420021057129
1619376386.10927,42.25774,4.01705002784729
1619376386.1249,39.00628,4.032680034637451
1619376386.14052,35.73006,4.04830002784729
1619376386.15615,32.51537,4.063930034637451
1619376386.17177,29.52127,4.07955002784729
1619376386.1874,26.91678,4.095180034637451
1619376386.20302,24.8383,4.11080002784729
1619376386.21865,23.30053,4.126430034637451
1619376386.23428,22.1482,4.142060041427612
1619376386.2499,21.01679,4.157680034637451
1619376386.26553,19.34415,4.173310041427612
1619376386.28115,16.54335,4.188930034637451
1619376386.29678,12.17516,4.204560041427612
1619376386.3124,6.182673,4.220180034637451
1619376386.32803,-1.061975,4.235810041427612
1619376386.34366,-8.878758,4.251440048217773
1619376386.35928,-16.55799,4.267060041427612
1619376386.37491,-23.64897,4.282690048217773
1619376386.39053,-30.11765,4.298310041427612
1619376386.40616,-36.28902,4.313940048217773
1619376386.42178,-42.57172,4.329560041427612
1619376386.43741,-49.32716,4.345190048217773
1619376386.45304,-56.74134,4.3608198165893555
1619376386.46866,-64.86869,4.376440048217773
1619376386.48429,-73.6823,4.3920698165893555
1619376386.49991,-82.95069,4.407690048217773
1619376386.51554,-92.0433,4.4233198165893555
1619376386.53116,-99.76443,4.438940048217773
1619376386.54679,-104.443,4.4545698165893555
1619376386.56242,-104.3086,4.470199823379517
1619376386.57804,-98.17873,4.4858198165893555
1619376386.59367,-85.8689,4.501449823379517
1619376386.60929,-68.42631,4.5170698165893555
1619376386.62492,-47.80402,4.532699823379517
1619376386.64054,-26.25132,4.5483198165893555
1619376386.65617,-5.69676,4.563949823379517
1619376386.6718,12.58366,4.579579830169678
1619376386.68742,27.97321,4.595199823379517
1619376386.70305,40.28423,4.610829830169678
1619376386.71867,49.46436,4.626449823379517
1619376386.7343,55.56523,4.642079830169678
1619376386.74992,58.75842,4.657699823379517
1619376386.76555,59.43928,4.673329830169678
1619376386.78118,58.24647,4.688959836959839
1619376386.7968,55.91899,4.704579830169678
1619376386.81243,53.11919,4.720209836959839
1619376386.82805,50.26038,4.735829830169678
1619376386.84368,47.44829,4.751459836959839
1619376386.8593,44.55941,4.767079830169678
1619376386.87493,41.38818,4.782709836959839
1619376386.89056,37.75932,4.79833984375
1619376386.90618,33.65378,4.813959836959839
1619376386.92181,29.23292,4.82958984375
1619376386.93743,24.81347,4.845209836959839
1619376386.95306,20.7721,4.86083984375
1619376386.96868,17.43918,4.876459836959839
1619376386.98431,14.90356,4.89208984375
1619376386.99994,12.92224,4.907719850540161
1619376387.01556,10.96386,4.92333984375
1619376387.03119,8.328741,4.938969850540161
1619376387.04681,4.458014,4.95458984375
1619376387.06244,-0.8329496,4.970219850540161
1619376387.07806,-7.285315,4.98583984375
1619376387.09369,-14.3248,5.001469850540161
1619376387.10932,-21.3313,5.017099857330322
1619376387.12494,-27.94968,5.032719850540161
1619376387.14057,-34.18339,5.048349857330322
1619376387.15619,-40.31198,5.063969850540161
1619376387.17182,-46.74074,5.079599857330322
1619376387.18744,-53.79306,5.095219850540161
1619376387.20307,-61.67797,5.110849857330322
1619376387.2187,-70.36513,5.126479864120483
1619376387.23432,-79.55322,5.142099857330322
1619376387.24995,-88.49918,5.157729864120483
1619376387.26557,-95.9886,5.173349857330322
1619376387.2812,-100.4147,5.188979864120483
1619376387.29682,-100.1487,5.204599857330322
1619376387.31245,-94.07684,5.220229864120483
1619376387.32808,-82.04117,5.2358598709106445
1619376387.3437,-65.02951,5.251479864120483
1619376387.35933,-44.8967,5.2671098709106445
1619376387.37495,-23.82799,5.282729864120483
1619376387.39058,-3.72657,5.2983598709106445
1619376387.4062,14.14322,5.313979864120483
1619376387.42183,29.22714,5.3296098709106445
1619376387.43746,41.45244,5.345239877700806
1619376387.45308,50.92673,5.3608598709106445
1619376387.46871,57.76431,5.376489877700806
1619376387.48433,62.06069,5.3921098709106445
1619376387.49996,63.99548,5.407739877700806
1619376387.51558,63.95565,5.4233598709106445
1619376387.53121,62.48967,5.438989877700806
1619376387.54684,60.24333,5.454619884490967
1619376387.56246,57.73296,5.470239877700806
1619376387.57809,55.26041,5.485869884490967
1619376387.59371,52.86055,5.501489877700806
1619376387.60934,50.40574,5.517119884490967
1619376387.62496,47.75533,5.532739877700806
1619376387.64059,44.8819,5.548369884490967
1619376387.65622,41.88697,5.563999891281128
1619376387.67184,38.981,5.579619884490967
1619376387.68747,36.33667,5.595249891281128
1619376387.70309,33.98235,5.610869884490967
1619376387.71872,31.73286,5.626499891281128
1619376387.73434,29.22767,5.642119884490967
1619376387.74997,26.02904,5.657749891281128
1619376387.7656,21.78043,5.673379898071289
1619376387.78122,16.36362,5.688999891281128
1619376387.79685,9.977688,5.704629898071289
1619376387.81247,3.055313,5.720249891281128
1619376387.8281,-3.894936,5.735879898071289
1619376387.84372,-10.5319,5.751499891281128
1619376387.85935,-16.79629,5.767129898071289
1619376387.87498,-22.97887,5.78275990486145
1619376387.8906,-29.51856,5.798379898071289
1619376387.90623,-36.91447,5.81400990486145
1619376387.92185,-45.54894,5.829629898071289
1619376387.93748,-55.60389,5.84525990486145
1619376387.9531,-66.92707,5.860879898071289
1619376387.96873,-78.9263,5.87650990486145
1619376387.98436,-90.41327,5.892139911651611
1619376387.99998,-99.66192,5.90775990486145
1619376388.01561,-104.6852,5.923389911651611
1619376388.03123,-103.7882,5.93900990486145
1619376388.04686,-96.09872,5.954639911651611
1619376388.06248,-81.97861,5.97025990486145
1619376388.07811,-62.94447,5.985889911651611
1619376388.09374,-41.17923,6.0015199184417725
1619376388.10936,-18.9345,6.017139911651611
1619376388.12499,2.033127,6.0327699184417725
1619376388.14061,20.66788,6.048389911651611
1619376388.15624,36.51547,6.0640199184417725
1619376388.17187,49.4809,6.079649925231934
1619376388.18749,59.58633,6.0952699184417725
1619376388.20312,66.85495,6.110899925231934
1619376388.21874,71.37016,6.1265199184417725
1619376388.23437,73.38948,6.142149925231934
1619376388.24999,73.36234,6.1577699184417725
1619376388.26562,71.90961,6.173399925231934
1619376388.28125,69.62958,6.189029932022095
1619376388.29687,67.02572,6.204649925231934
1619376388.3125,64.32757,6.220279932022095
1619376388.32812,61.53446,6.235899925231934
1619376388.34375,58.50651,6.251529932022095
1619376388.35937,55.12212,6.267149925231934
1619376388.375,51.41542,6.282779932022095
1619376388.39063,47.61322,6.298409938812256
1619376388.40625,44.05663,6.314029932022095
1619376388.42188,41.01078,6.329659938812256
1619376388.4375,38.52698,6.345279932022095
1619376388.45313,36.34829,6.360909938812256
1619376388.46875,33.9533,6.376529932022095
1619376388.48438,30.74765,6.392159938812256
1619376388.50001,26.28734,6.407789945602417
1619376388.51563,20.4554,6.423409938812256
1619376388.53126,13.48502,6.439039945602417
1619376388.54688,5.91684,6.454659938812256
1619376388.56251,-1.690964,6.470289945602417
1619376388.57813,-8.925026,6.485909938812256
1619376388.59376,-15.71508,6.501539945602417
1619376388.60939,-22.31084,6.517169952392578
1619376388.62501,-29.13905,6.532789945602417
1619376388.64064,-36.65266,6.548419952392578
1619376388.65626,-45.21915,6.564039945602417
1619376388.67189,-55.01551,6.579669952392578
1619376388.68751,-65.94956,6.595289945602417
1619376388.70314,-77.53963,6.610919952392578
1619376388.71877,-88.75872,6.626549959182739
1619376388.73439,-98.06497,6.642169952392578
1619376388.75002,-103.6216,6.657799959182739
1619376388.76564,-103.7476,6.673419952392578
1619376388.78127,-97.46326,6.689049959182739
1619376388.79689,-84.84558,6.704669952392578
1619376388.81252,-67.03259,6.720299959182739
1619376388.82815,-45.90278,6.7359299659729
1619376388.84377,-23.55075,6.751549959182739
1619376388.8594,-1.80928,6.7671799659729
1619376388.87502,17.99849,6.782799959182739
1619376388.89065,35.08556,6.7984299659729
1619376388.90627,49.04532,6.814049959182739
1619376388.9219,59.70269,6.8296799659729
1619376388.93753,67.02963,6.8453099727630615
1619376388.95315,71.20744,6.8609299659729
1619376388.96878,72.58803,6.8765599727630615
1619376388.9844,71.72813,6.8921799659729
1619376389.00003,69.28466,6.9078099727630615
1619376389.01565,65.90988,6.9234299659729
1619376389.03128,62.11462,6.9390599727630615
1619376389.04691,58.22063,6.954689979553223
1619376389.06253,54.31761,6.9703099727630615
1619376389.07816,50.3948,6.985939979553223
1619376389.09378,46.42717,7.0015599727630615
1619376389.10941,42.4612,7.017189979553223
1619376389.12503,38.63509,7.0328099727630615
1619376389.14066,35.11315,7.048439979553223
1619376389.15629,31.9914,7.064069986343384
1619376389.17191,29.2196,7.079689979553223
1619376389.18754,26.63226,7.095319986343384
1619376389.20316,23.96675,7.110939979553223
1619376389.21879,20.94671,7.126569986343384
1619376389.23441,17.25455,7.142189979553223
1619376389.25004,12.61001,7.157819986343384
1619376389.26567,6.856659,7.173449993133545
1619376389.28129,0.03473663,7.189069986343384
1619376389.29692,-7.529564,7.204699993133545
1619376389.31254,-15.28378,7.220319986343384
1619376389.32817,-22.67063,7.235949993133545
1619376389.34379,-29.40472,7.251569986343384
1619376389.35942,-35.6805,7.267199993133545
1619376389.37505,-42.13481,7.282829999923706
1619376389.39067,-49.6059,7.298449993133545
1619376389.4063,-58.74744,7.314079999923706
1619376389.42192,-69.61904,7.329699993133545
1619376389.43755,-81.48092,7.345329999923706
1619376389.45317,-92.83487,7.360949993133545
1619376389.4688,-101.6892,7.376579999923706
1619376389.48443,-106.0512,7.392210006713867
1619376389.50005,-104.4057,7.407829999923706
1619376389.51568,-96.12424,7.423460006713867
1619376389.5313,-81.65626,7.439079999923706
1619376389.54693,-62.43305,7.454710006713867
1619376389.56255,-40.47857,7.470329999923706
1619376389.57818,-17.92503,7.485960006713867
1619376389.59381,3.429802,7.501590013504028
1619376389.60943,22.32795,7.517210006713867
1619376389.62506,38.04251,7.532840013504028
1619376389.64068,50.2449,7.548460006713867
1619376389.65631,58.80934,7.564090013504028
1619376389.67193,63.82181,7.579710006713867
1619376389.68756,65.61965,7.595340013504028
1619376389.70319,64.82258,7.6109700202941895
1619376389.71881,62.3028,7.626590013504028
1619376389.73444,58.98741,7.6422200202941895
1619376389.75006,55.66169,7.657840013504028
1619376389.76569,52.75615,7.6734700202941895
1619376389.78131,50.32226,7.689090013504028
1619376389.79694,48.08843,7.7047200202941895
1619376389.81257,45.67635,7.720350027084351
1619376389.82819,42.78197,7.7359700202941895
1619376389.84382,39.32217,7.751600027084351
1619376389.85944,35.49623,7.7672200202941895
1619376389.87507,31.69434,7.782850027084351
1619376389.89069,28.30027,7.7984700202941895
1619376389.90632,25.50428,7.814100027084351
1619376389.92195,23.11911,7.829730033874512
1619376389.93757,20.62711,7.845350027084351
1619376389.9532,17.31796,7.860980033874512
1619376389.96882,12.63232,7.876600027084351
1619376389.98445,6.408562,7.892230033874512
1619376390.00007,-1.009827,7.907850027084351
1619376390.0157,-8.8992,7.923480033874512
1619376390.03133,-16.48441,7.939110040664673
1619376390.04695,-23.28204,7.954730033874512
1619376390.06258,-29.32717,7.970360040664673
1619376390.0782,-35.0934,7.985980033874512
1619376390.09383,-41.3419,8.001610040664673
1619376390.10945,-48.77988,8.017230033874512
1619376390.12508,-57.86247,8.032860040664673
1619376390.14071,-68.58817,8.048490047454834
1619376390.15633,-80.42347,8.064110040664673
1619376390.17196,-92.23104,8.079740047454834
1619376390.18758,-102.3287,8.095360040664673
1619376390.20321,-108.7327,8.110990047454834
1619376390.21883,-109.5869,8.126610040664673
1619376390.23446,-103.7022,8.142240047454834
1619376390.25009,-90.95232,8.157869815826416
1619376390.26571,-72.43179,8.173490047454834
1619376390.28134,-50.14738,8.189119815826416
1619376390.29696,-26.47685,8.204740047454834
1619376390.31259,-3.540344,8.220369815826416
1619376390.32822,17.18745,8.235999822616577
1619376390.34384,34.92329,8.251619815826416
1619376390.35947,49.3867,8.267249822616577
1619376390.37509,60.5554,8.282869815826416
1619376390.39072,68.50771,8.298499822616577
1619376390.40634,73.42911,8.314119815826416
1619376390.42197,75.65486,8.329749822616577
1619376390.4376,75.69839,8.345379829406738
1619376390.45322,74.15923,8.360999822616577
1619376390.46885,71.60185,8.376629829406738
1619376390.48447,68.43549,8.392249822616577
1619376390.5001,64.88319,8.407879829406738
1619376390.51572,61.06091,8.423499822616577
1619376390.53135,57.04202,8.439129829406738
1619376390.54698,52.95096,8.4547598361969
1619376390.5626,48.95467,8.470379829406738
1619376390.57823,45.22102,8.4860098361969
1619376390.59385,41.87138,8.501629829406738
1619376390.60948,38.91661,8.5172598361969
1619376390.6251,36.2135,8.532879829406738
1619376390.64073,33.46834,8.5485098361969
1619376390.65636,30.28584,8.56413984298706
1619376390.67198,26.25174,8.5797598361969
1619376390.68761,21.06252,8.59538984298706
1619376390.70323,14.69542,8.6110098361969
1619376390.71886,7.400757,8.62663984298706
1619376390.73448,-0.3329468,8.6422598361969
1619376390.75011,-7.981354,8.65788984298706
1619376390.76574,-15.18234,8.673519849777222
1619376390.78136,-21.8605,8.68913984298706
1619376390.79699,-28.20941,8.704769849777222
1619376390.81261,-34.60439,8.72038984298706
1619376390.82824,-41.50082,8.736019849777222
1619376390.84386,-49.37148,8.75163984298706
1619376390.85949,-58.63292,8.767269849777222
1619376390.87512,-69.46002,8.782899856567383
1619376390.89074,-81.53993,8.798519849777222
1619376390.90637,-93.82993,8.814149856567383
1619376390.92199,-104.5128,8.829769849777222
1619376390.93762,-111.3046,8.845399856567383
1619376390.95324,-112.0594,8.861019849777222
1619376390.96887,-105.521,8.876649856567383
1619376390.9845,-91.74652,8.892279863357544
1619376391.00012,-72.13403,8.907899856567383
1619376391.01575,-48.93246,8.923529863357544
1619376391.03137,-24.58972,8.939149856567383
1619376391.047,-1.133377,8.954779863357544
1619376391.06262,20.11797,8.970399856567383
1619376391.07825,38.47202,8.986029863357544
1619376391.09388,53.66669,9.001659870147705
1619376391.1095,65.5979,9.017279863357544
1619376391.12513,74.285,9.032909870147705
1619376391.14075,79.85512,9.048529863357544
1619376391.15638,82.6236,9.064159870147705
1619376391.172,83.10329,9.079779863357544
1619376391.18763,81.91325,9.095409870147705
1619376391.20326,79.67587,9.111039876937866
1619376391.21888,76.85922,9.126659870147705
1619376391.23451,73.76108,9.142289876937866
1619376391.25013,70.49968,9.157909870147705
1619376391.26576,67.11211,9.173539876937866
1619376391.28138,63.58562,9.189159870147705
1619376391.29701,59.96504,9.204789876937866
1619376391.31264,56.3215,9.220419883728027
1619376391.32826,52.73529,9.236039876937866
1619376391.34389,49.30663,9.251669883728027
1619376391.35951,46.07597,9.267289876937866
1619376391.37514,43.03284,9.282919883728027
1619376391.39076,40.01691,9.298539876937866
1619376391.40639,36.73471,9.314169883728027
1619376391.42202,32.73523,9.329799890518188
1619376391.43764,27.58792,9.345419883728027
1619376391.45327,21.02762,9.361049890518188
1619376391.46889,13.14229,9.376669883728027
1619376391.48452,4.361252,9.392299890518188
1619376391.50014,-4.667511,9.407919883728027
1619376391.51577,-13.34163,9.423549890518188
1619376391.5314,-21.35295,9.43917989730835
1619376391.54702,-28.729,9.454799890518188
1619376391.56265,-35.81073,9.47042989730835
1619376391.57827,-43.06541,9.486049890518188
1619376391.5939,-50.98948,9.50167989730835
1619376391.60952,-60.01379,9.517299890518188
1619376391.62515,-70.31609,9.53292989730835
1619376391.64078,-81.64777,9.54855990409851
1619376391.6564,-93.02118,9.56417989730835
1619376391.67203,-102.7035,9.57980990409851
1619376391.68765,-108.4424,9.59542989730835
1619376391.70328,-108.1665,9.61105990409851
1619376391.7189,-100.6718,9.62667989730835
1619376391.73453,-86.176,9.64230990409851
1619376391.75016,-66.25898,9.657939910888672
1619376391.76578,-43.3522,9.67355990409851
1619376391.78141,-19.94878,9.689189910888672
1619376391.79703,2.014748,9.70480990409851
1619376391.81266,21.43529,9.720439910888672
1619376391.82828,37.83966,9.73605990409851
1619376391.84391,51.0489,9.751689910888672
1619376391.85954,60.94379,9.767319917678833
1619376391.87516,67.39733,9.782939910888672
1619376391.89079,70.47213,9.798569917678833
1619376391.90641,70.59012,9.814189910888672
1619376391.92204,68.54845,9.829819917678833
1619376391.93766,65.36962,9.845439910888672
1619376391.95329,61.96267,9.861069917678833
1619376391.96892,58.87078,9.876699924468994
1619376391.98454,56.11734,9.892319917678833
1619376392.00017,53.37251,9.907949924468994
1619376392.01579,50.17376,9.923569917678833
1619376392.03142,46.26959,9.939199924468994
1619376392.04704,41.73117,9.954819917678833
1619376392.06267,36.96417,9.970449924468994
1619376392.0783,32.50595,9.986079931259155
1619376392.09392,28.76713,10.001699924468994
1619376392.10955,25.85023,10.017329931259155
1619376392.12517,23.48943,10.032949924468994
1619376392.1408,21.16271,10.048579931259155
1619376392.15642,18.25199,10.064199924468994
1619376392.17205,14.27467,10.079829931259155
1619376392.18768,9.029152,10.095459938049316
1619376392.2033,2.647629,10.111079931259155
1619376392.21893,-4.444595,10.126709938049316
1619376392.23455,-11.7201,10.142329931259155
1619376392.25018,-18.73457,10.157959938049316
1619376392.2658,-25.32538,10.173579931259155
1619376392.28143,-31.64502,10.189209938049316
1619376392.29706,-38.10489,10.204839944839478
1619376392.31268,-45.20066,10.220459938049316
1619376392.32831,-53.31955,10.236089944839478
1619376392.34393,-62.60312,10.251709938049316
1619376392.35956,-72.76906,10.267339944839478
1619376392.37518,-83.11298,10.282959938049316
1619376392.39081,-92.44487,10.298589944839478
1619376392.40644,-99.23389,10.314219951629639
1619376392.42206,-101.836,10.329839944839478
1619376392.43769,-98.91609,10.345469951629639
1619376392.45331,-89.82234,10.361089944839478
1619376392.46894,-74.87754,10.376719951629639
1619376392.48456,-55.38733,10.392339944839478
1619376392.50019,-33.3501,10.407969951629639
1619376392.51582,-10.97012,10.4235999584198
1619376392.53144,9.824665,10.439219951629639
1619376392.54707,27.6853,10.4548499584198
1619376392.56269,41.88971,10.470469951629639
1619376392.57832,52.23244,10.4860999584198
1619376392.59395,58.83467,10.501729965209961
1619376392.60957,62.03795,10.5173499584198
1619376392.6252,62.36567,10.532979965209961
1619376392.64082,60.53296,10.5485999584198
1619376392.65645,57.36673,10.564229965209961
1619376392.67207,53.71445,10.5798499584198
1619376392.6877,50.22448,10.595479965209961
1619376392.70333,47.2283,10.611109972000122
1619376392.71895,44.66987,10.626729965209961
1619376392.73458,42.23473,10.642359972000122
1619376392.7502,39.55827,10.657979965209961
1619376392.76583,36.44951,10.673609972000122
1619376392.78145,32.98004,10.689229965209961
1619376392.79708,29.4098,10.704859972000122
1619376392.81271,26.06818,10.720489978790283
1619376392.82833,23.12669,10.736109972000122
1619376392.84396,20.52127,10.751739978790283
1619376392.85958,17.94962,10.767359972000122
1619376392.87521,15.03184,10.782989978790283
1619376392.89083,11.38915,10.798609972000122
1619376392.90646,6.799699,10.814239978790283
1619376392.92209,1.205123,10.829869985580444
1619376392.93771,-5.255453,10.845489978790283
1619376392.95334,-12.3132,10.861119985580444
1619376392.96896,-19.60839,10.876739978790283
1619376392.98459,-26.80035,10.892369985580444
1619376393.00021,-33.68958,10.907989978790283
1619376393.01584,-40.29957,10.923619985580444
1619376393.03147,-46.97124,10.939249992370605
1619376393.04709,-54.27338,10.954869985580444
1619376393.06272,-62.80959,10.970499992370605
1619376393.07834,-72.8454,10.986119985580444
1619376393.09397,-83.92854,11.001749992370605
1619376393.10959,-94.74045,11.017369985580444
1619376393.12522,-103.2093,11.032999992370605
1619376393.14085,-107.0305,11.048629999160767
1619376393.15647,-104.3872,11.064249992370605
1619376393.1721,-94.63202,11.079879999160767
1619376393.18772,-78.5298,11.095499992370605
1619376393.20335,-58.04263,11.111129999160767
1619376393.21897,-35.65267,11.126749992370605
1619376393.2346,-13.6322,11.142379999160767
1619376393.25023,6.469143,11.158010005950928
1619376393.26585,23.90749,11.173629999160767
1619376393.28148,38.44361,11.189260005950928
1619376393.2971,49.94692,11.204879999160767
1619376393.31273,58.2238,11.220510005950928
1619376393.32835,63.07708,11.236129999160767
1619376393.34398,64.59782,11.251760005950928
1619376393.35961,63.31708,11.267390012741089
1619376393.37523,60.17482,11.283010005950928
1619376393.39086,56.25228,11.298640012741089
1619376393.40648,52.39492,11.314260005950928
1619376393.42211,49.02289,11.329890012741089
1619376393.43773,46.11532,11.345510005950928
1619376393.45336,43.38923,11.361140012741089
1619376393.46899,40.57268,11.37677001953125
1619376393.48461,37.54752,11.392390012741089
1619376393.50024,34.39126,11.40802001953125
1619376393.51586,31.30177,11.423640012741089
1619376393.53149,28.45684,11.43927001953125
1619376393.54711,25.91978,11.454890012741089
1619376393.56274,23.55286,11.47052001953125
1619376393.57837,21.05171,11.486150026321411
1619376393.59399,18.00942,11.50177001953125
1619376393.60962,14.03431,11.517400026321411
1619376393.62524,8.912504,11.53302001953125
1619376393.64087,2.642215,11.548650026321411
1619376393.65649,-4.482562,11.56427001953125
1619376393.67212,-12.01195,11.579900026321411
1619376393.68775,-19.49187,11.595530033111572
1619376393.70337,-26.6355,11.611150026321411
1619376393.719,-33.41816,11.626780033111572
1619376393.73462,-40.11353,11.642400026321411
1619376393.75025,-47.16635,11.658030033111572
1619376393.76587,-55.05172,11.673650026321411
1619376393.7815,-64.10428,11.689280033111572
1619376393.79713,-74.34393,11.704910039901733
1619376393.81275,-85.26656,11.720530033111572
1619376393.82838,-95.79747,11.736160039901733
1619376393.844,-104.312,11.751780033111572
1619376393.85963,-108.9569,11.767410039901733
1619376393.87525,-108.0897,11.783030033111572
1619376393.89088,-100.7595,11.798660039901733
1619376393.90651,-87.06573,11.814290046691895
1619376393.92213,-68.19552,11.829910039901733
1619376393.93776,-46.10303,11.845540046691895
1619376393.95338,-23.01649,11.861160039901733
1619376393.96901,-0.8589268,11.876790046691895
1619376393.98463,19.07249,11.892410039901733
1619376394.00026,36.18433,11.908040046691895
1619376394.01589,50.30569,11.923669815063477
1619376394.03151,61.43156,11.939290046691895
1619376394.04714,69.49938,11.954919815063477
1619376394.06276,74.41851,11.970540046691895
1619376394.07839,76.26758,11.986169815063477
1619376394.09401,75.44132,12.001790046691895
1619376394.10964,72.738,12.017419815063477
1619376394.12527,69.15965,12.033049821853638
1619376394.14089,65.61135,12.048669815063477
1619376394.15652,62.61286,12.064299821853638
1619376394.17214,60.1483,12.079919815063477
1619376394.18777,57.79296,12.095549821853638
1619376394.20339,55.03837,12.111169815063477
1619376394.21902,51.61335,12.126799821853638
1619376394.23465,47.65085,12.142429828643799
1619376394.25027,43.6143,12.158049821853638
1619376394.2659,39.99542,12.173679828643799
1619376394.28152,37.02443,12.189299821853638
1619376394.29715,34.42809,12.204929828643799
1619376394.31277,31.59567,12.220549821853638
1619376394.3284,27.7915,12.236179828643799
1619376394.34403,22.57402,12.25180983543396
1619376394.35965,15.95983,12.267429828643799
1619376394.37528,8.419209,12.28305983543396
1619376394.3909,0.6042461,12.298679828643799
1619376394.40653,-6.980463,12.31430983543396
1619376394.42215,-14.17775,12.329929828643799
1619376394.43778,-21.19358,12.34555983543396
1619376394.45341,-28.38786,12.361189842224121
1619376394.46903,-36.11772,12.37680983543396
1619376394.48466,-44.63906,12.392439842224121
1619376394.50028,-54.10857,12.40805983543396
1619376394.51591,-64.58884,12.423689842224121
1619376394.53153,-75.87298,12.43930983543396
1619376394.54716,-87.25777,12.454939842224121
1619376394.56279,-97.33401,12.470569849014282
1619376394.57841,-104.1195,12.486189842224121
1619376394.59404,-105.5396,12.501819849014282
1619376394.60966,-100.1776,12.517439842224121
1619376394.62529,-87.83923,12.533069849014282
1619376394.64091,-69.74334,12.548689842224121
1619376394.65654,-48.1378,12.564319849014282
1619376394.67217,-25.54029,12.579949855804443
1619376394.68779,-4.029736,12.595569849014282
1619376394.70342,15.15923,12.611199855804443
1619376394.71904,31.55242,12.626819849014282
1619376394.73467,45.05217,12.642449855804443
1619376394.75029,55.57935,12.658069849014282
1619376394.76592,62.91912,12.673699855804443
1619376394.78155,66.91271,12.689329862594604
1619376394.79717,67.69048,12.704949855804443
1619376394.8128,65.85957,12.720579862594604
1619376394.82842,62.40392,12.736199855804443
1619376394.84405,58.36908,12.751829862594604
1619376394.85967,54.5174,12.767449855804443
1619376394.8753,51.12915,12.783079862594604
1619376394.89093,48.0612,12.798709869384766
1619376394.90655,44.97911,12.814329862594604
1619376394.92218,41.6549,12.829959869384766
1619376394.9378,38.11497,12.845579862594604
1619376394.95343,34.64397,12.861209869384766
1619376394.96905,31.55861,12.876829862594604
1619376394.98468,28.97291,12.892459869384766
1619376395.00031,26.715,12.908089876174927
1619376395.01593,24.32248,12.923709869384766
1619376395.03156,21.28295,12.939339876174927
1619376395.04718,17.21447,12.954959869384766
1619376395.06281,12.01583,12.970589876174927
1619376395.07843,5.87965,12.986209869384766
1619376395.09406,-0.8073978,13.001839876174927
1619376395.10969,-7.633892,13.017469882965088
1619376395.12531,-14.28084,13.033089876174927
1619376395.14094,-20.61354,13.048719882965088
1619376395.15656,-26.71265,13.064339876174927
1619376395.17219,-32.83829,13.079969882965088
1619376395.18782,-39.39242,13.095599889755249
1619376395.20344,-46.84879,13.111219882965088
1619376395.21907,-55.61106,13.126849889755249
1619376395.23469,-65.73439,13.142469882965088
1619376395.25032,-76.6473,13.158099889755249
1619376395.26594,-86.99638,13.173719882965088
1619376395.28157,-94.77718,13.189349889755249
1619376395.2972,-97.79642,13.20497989654541
1619376395.31282,-94.36714,13.220599889755249
1619376395.32845,-83.93248,13.23622989654541
1619376395.34407,-67.2878,13.251849889755249
1619376395.3597,-46.38932,13.26747989654541
1619376395.37532,-23.69696,13.283099889755249
1619376395.39095,-1.481613,13.29872989654541
1619376395.40658,18.72727,13.314359903335571
1619376395.4222,36.1679,13.32997989654541
1619376395.43783,50.64162,13.345609903335571
1619376395.45345,62.09642,13.36122989654541
1619376395.46908,70.4117,13.376859903335571
1619376395.4847,75.44725,13.39247989654541
1619376395.50033,77.28997,13.408109903335571
1619376395.51596,76.42657,13.423739910125732
1619376395.53158,73.70248,13.439359903335571
1619376395.54721,70.04216,13.454989910125732
1619376395.56283,66.12306,13.470609903335571
1619376395.57846,62.20887,13.486239910125732
1619376395.59408,58.21361,13.501859903335571
1619376395.60971,54.00513,13.517489910125732
1619376395.62534,49.64954,13.533119916915894
1619376395.64096,45.48576,13.548739910125732
1619376395.65659,41.93629,13.564369916915894
1619376395.67221,39.22063,13.579989910125732
1619376395.68784,37.17549,13.595619916915894
1619376395.70346,35.24548,13.611239910125732
1619376395.71909,32.74934,13.626869916915894
1619376395.73472,29.11697,13.642499923706055
1619376395.75034,24.15656,13.658119916915894
1619376395.76597,18.11523,13.673749923706055
1619376395.78159,11.56079,13.689369916915894
1619376395.79722,5.15702,13.704999923706055
1619376395.81284,-0.5399261,13.720619916915894
1619376395.82847,-5.262248,13.736249923706055
1619376395.8441,-9.092245,13.751879930496216
1619376395.85972,-12.40921,13.767499923706055
1619376395.87535,-15.8297,13.783129930496216
1619376395.89097,-20.01897,13.798749923706055
1619376395.9066,-25.57201,13.814379930496216
1619376395.92222,-32.88357,13.829999923706055
1619376395.93785,-41.98084,13.845629930496216
1619376395.95348,-52.32793,13.861259937286377
1619376395.9691,-62.71517,13.876879930496216
1619376395.98473,-71.36455,13.892509937286377
1619376396.00035,-76.24341,13.908129930496216
1619376396.01598,-75.58897,13.923759937286377
1619376396.0316,-68.47316,13.939379930496216
1619376396.04723,-55.12696,13.955009937286377
1619376396.06286,-36.86192,13.970639944076538
1619376396.07848,-15.70339,13.986259937286377
1619376396.09411,6.139824,14.001889944076538
1619376396.10973,26.72649,14.017509937286377
1619376396.12536,44.66655,14.033139944076538
1619376396.14098,59.17027,14.048759937286377
1619376396.15661,69.99436,14.064389944076538
1619376396.17224,77.33953,14.0800199508667
1619376396.18786,81.69041,14.095639944076538
1619376396.20349,83.67619,14.1112699508667
1619376396.21911,83.91644,14.126889944076538
1619376396.23474,82.85799,14.1425199508667
1619376396.25036,80.79135,14.158139944076538
1619376396.26599,77.90617,14.1737699508667
1619376396.28162,74.4146,14.18939995765686
1619376396.29724,70.68162,14.2050199508667
1619376396.31287,67.2257,14.22064995765686
1619376396.32849,64.62801,14.2362699508667
1619376396.34412,63.36628,14.25189995765686
1619376396.35974,63.70068,14.2675199508667
1619376396.37537,65.57748,14.28314995765686
1619376396.391,68.6199,14.298779964447021
1619376396.40662,72.22652,14.31439995765686
1619376396.42225,75.7236,14.330029964447021
1619376396.43787,78.5304,14.34564995765686
1619376396.4535,80.38959,14.361279964447021
1619376396.46912,81.44569,14.37689995765686
1619376396.48475,82.1749,14.392529964447021
1619376396.50038,83.103,14.408159971237183
1619376396.516,84.51668,14.423779964447021
1619376396.53163,86.21677,14.439409971237183
1619376396.54725,87.6239,14.455029964447021
1619376396.56288,88.08846,14.470659971237183
1619376396.5785,87.34058,14.486279964447021
1619376396.59413,85.78677,14.501909971237183
1619376396.60976,84.45244,14.517539978027344
1619376396.62538,84.58646,14.533159971237183
1619376396.64101,87.25598,14.548789978027344
1619376396.65663,93.1033,14.564409971237183
1619376396.67226,102.3303,14.580039978027344
1619376396.68788,114.7594,14.595659971237183
1619376396.70351,129.8356,14.611289978027344
1619376396.71914,146.4906,14.626919984817505
1619376396.73476,163.049,14.642539978027344
1619376396.75039,177.409,14.658169984817505
1619376396.76601,187.4595,14.673789978027344
1619376396.78164,191.6264,14.689419984817505
1619376396.79726,189.2406,14.705039978027344
1619376396.81289,180.5024,14.720669984817505
1619376396.82852,166.1821,14.736299991607666
1619376396.84414,147.2235,14.751919984817505
1619376396.85977,124.683,14.767549991607666
1619376396.87539,99.64392,14.783169984817505
1619376396.89102,73.32343,14.798799991607666
1619376396.90664,46.86987,14.814419984817505
1619376396.92227,20.8457,14.830049991607666
1619376396.9379,-5.230591,14.845679998397827
1619376396.95352,-33.07312,14.861299991607666
1619376396.96915,-65.42493,14.876929998397827
1619376396.98477,-105.4579,14.892549991607666
1619376397.0004,-155.6677,14.908179998397827
1619376397.01602,-216.5701,14.923799991607666
1619376397.03165,-285.4265,14.939429998397827
1619376397.04728,-355.652,14.955060005187988
1619376397.0629,-417.6545,14.970679998397827
1619376397.07853,-461.2574,14.986310005187988
1619376397.09415,-479.1072,15.001929998397827
1619376397.10978,-469.6714,15.017560005187988
1619376397.1254,-438.3425,15.033179998397827
1619376397.14103,-395.7154,15.048810005187988
1619376397.15666,-353.6931,15.06444001197815
1619376397.17228,-321.1666,15.080060005187988
1619376397.18791,-301.3514,15.09569001197815
1619376397.20353,-291.8076,15.111310005187988
1619376397.21916,-286.8038,15.12694001197815
1619376397.23478,-280.5974,15.142560005187988
1619376397.25041,-269.7719,15.15819001197815
1619376397.26604,-253.9347,15.17382001876831
1619376397.28166,-234.9764,15.18944001197815
1619376397.29729,-215.7202,15.20507001876831
1619376397.31291,-198.8509,15.22069001197815
1619376397.32854,-186.4079,15.23632001876831
1619376397.34416,-179.5961,15.25194001197815
1619376397.35979,-178.6146,15.26757001876831
1619376397.37542,-182.5837,15.283200025558472
1619376397.39104,-189.4871,15.29882001876831
1619376397.40667,-196.2955,15.314450025558472
1619376397.42229,-199.4549,15.33007001876831
1619376397.43792,-195.4335,15.345700025558472
1619376397.45355,-181.2906,15.361330032348633
1619376397.46917,-155.1607,15.376950025558472
1619376397.4848,-116.8347,15.392580032348633
1619376397.50042,-68.14948,15.408200025558472
1619376397.51605,-12.98853,15.423830032348633
1619376397.53167,43.39752,15.439450025558472
1619376397.5473,95.83704,15.455080032348633
1619376397.56293,140.673,15.470710039138794
1619376397.57855,176.762,15.486330032348633
1619376397.59418,205.3405,15.501960039138794
1619376397.6098,229.0191,15.517580032348633
1619376397.62543,250.345,15.533210039138794
1619376397.64105,270.8779,15.548830032348633
1619376397.65668,290.9887,15.564460039138794
1619376397.67231,310.3256,15.580090045928955
1619376397.68793,328.3398,15.595710039138794
1619376397.70356,344.4099,15.611340045928955
1619376397.71918,357.6618,15.626960039138794
1619376397.73481,366.6403,15.642590045928955
1619376397.75043,369.3499,15.658210039138794
1619376397.76606,363.7205,15.673840045928955
1619376397.78169,348.2394,15.689469814300537
1619376397.79731,322.5751,15.705090045928955
1619376397.81294,287.7601,15.720719814300537
1619376397.82856,246.1602,15.736340045928955
1619376397.84419,201.0468,15.751969814300537
1619376397.85981,156.1016,15.767590045928955
1619376397.87544,114.7719,15.783219814300537
1619376397.89107,79.61395,15.798849821090698
1619376397.90669,51.74963,15.814469814300537
1619376397.92232,30.64697,15.830099821090698
1619376397.93794,14.37109,15.845719814300537
1619376397.95357,0.1509399,15.861349821090698
1619376397.96919,-14.79388,15.876969814300537
1619376397.98482,-32.59033,15.892599821090698
1619376398.00045,-54.24713,15.90822982788086
1619376398.01607,-79.62323,15.923849821090698
1619376398.0317,-107.7056,15.93947982788086
1619376398.04732,-136.9922,15.955099821090698
1619376398.06295,-165.8877,15.97072982788086
1619376398.07857,-192.8381,15.986349821090698
1619376398.0942,-216.2176,16.00197982788086
1619376398.10983,-234.2391,16.01760983467102
1619376398.12545,-245.2156,16.03322982788086
1619376398.14108,-248.1171,16.04885983467102
1619376398.1567,-243.3109,16.06447982788086
1619376398.17233,-232.7874,16.08010983467102
1619376398.18795,-219.4846,16.09572982788086
1619376398.20358,-205.9993,16.11135983467102
1619376398.21921,-193.1227,16.12698984146118
1619376398.23483,-179.21,16.14260983467102
1619376398.25046,-160.774,16.15823984146118
1619376398.26608,-134.1093,16.17385983467102
1619376398.28171,-97.20959,16.18948984146118
1619376398.29733,-50.86298,16.20510983467102
1619376398.31296,1.677856,16.22073984146118
1619376398.32859,56.19769,16.236369848251343
1619376398.34421,109.3188,16.25198984146118
1619376398.35984,159.5317,16.267619848251343
1619376398.37546,206.7608,16.28323984146118
1619376398.39109,251.0676,16.298869848251343
1619376398.40671,291.1594,16.31448984146118
1619376398.42234,323.9938,16.330119848251343
1619376398.43797,345.6041,16.345749855041504
1619376398.45359,352.8812,16.361369848251343
1619376398.46922,345.1694,16.376999855041504
1619376398.48484,324.7683,16.392619848251343
1619376398.50047,296.0515,16.408249855041504
1619376398.51609,263.7394,16.423869848251343
1619376398.53172,231.3997,16.439499855041504
1619376398.54735,200.9973,16.455129861831665
1619376398.56297,173.6409,16.470749855041504
1619376398.5786,150.5939,16.486379861831665
1619376398.59422,133.6583,16.501999855041504
1619376398.60985,124.5359,16.517629861831665
1619376398.62547,123.5368,16.533249855041504
1619376398.6411,128.7297,16.548879861831665
1619376398.65673,136.1334,16.564509868621826
1619376398.67235,141.0971,16.580129861831665
1619376398.68798,140.0148,16.595759868621826
1619376398.7036,131.572,16.611379861831665
1619376398.71923,116.7853,16.627009868621826
1619376398.73485,98.07764,16.642629861831665
1619376398.75048,77.92163,16.658259868621826
1619376398.76611,57.81775,16.673889875411987
1619376398.78173,38.07397,16.689509868621826
1619376398.79736,18.20587,16.705139875411987
1619376398.81298,-2.34137,16.720759868621826
1619376398.82861,-23.78912,16.736389875411987
1619376398.84423,-46.04858,16.752009868621826
1619376398.85986,-69.19934,16.767639875411987
1619376398.87549,-94.08752,16.78326988220215
1619376398.89111,-122.5656,16.798889875411987
1619376398.90674,-156.9358,16.81451988220215
1619376398.92236,-198.5992,16.830139875411987
1619376398.93799,-246.3655,16.84576988220215
1619376398.95361,-295.3512,16.861389875411987
1619376398.96924,-337.4587,16.87701988220215
1619376398.98487,-363.3517,16.89264988899231
1619376399.00049,-365.3976,16.90826988220215
1619376399.01612,-340.1898,16.92389988899231
1619376399.03174,-289.7858,16.93951988220215
1619376399.04737,-221.1844,16.95514988899231
1619376399.06299,-144.447,16.97076988220215
1619376399.07862,-70.25952,16.98639988899231
1619376399.09425,-7.828003,17.00202989578247
1619376399.10987,36.48486,17.01764988899231
1619376399.1255,59.77124,17.03327989578247
1619376399.14112,62.48413,17.04889988899231
1619376399.15675,47.87305,17.06452989578247
1619376399.17237,21.06897,17.08014988899231
1619376399.188,-12.09351,17.09577989578247
1619376399.20363,-46.21228,17.111409902572632
1619376399.21925,-77.1637,17.12702989578247
1619376399.23488,-102.5105,17.142659902572632
1619376399.2505,-121.476,17.15827989578247
1619376399.26613,-134.7061,17.173909902572632
1619376399.28175,-144.0015,17.18952989578247
1619376399.29738,-151.8885,17.205159902572632
1619376399.31301,-160.999,17.220789909362793
1619376399.32863,-173.3656,17.236409902572632
1619376399.34426,-189.7238,17.252039909362793
1619376399.35988,-209.1295,17.267659902572632
1619376399.37551,-229.1938,17.283289909362793
1619376399.39113,-246.7202,17.298909902572632
1619376399.40676,-258.6157,17.314539909362793
1619376399.42239,-262.8975,17.330169916152954
1619376399.43801,-259.2322,17.345789909362793
1619376399.45364,-248.9679,17.361419916152954
1619376399.46926,-234.6504,17.377039909362793
1619376399.48489,-219.186,17.392669916152954
1619376399.50051,-205.0294,17.408289909362793
1619376399.51614,-193.6107,17.423919916152954
1619376399.53177,-185.2068,17.439549922943115
1619376399.54739,-179.0436,17.455169916152954
1619376399.56302,-173.6223,17.470799922943115
1619376399.57864,-166.8218,17.486419916152954
1619376399.59427,-156.1337,17.502049922943115
1619376399.60989,-139.1017,17.517669916152954
1619376399.62552,-113.9724,17.533299922943115
1619376399.64115,-80.31787,17.548929929733276
1619376399.65677,-39.24939,17.564549922943115
1619376399.6724,7.011963,17.580179929733276
1619376399.68802,55.95288,17.595799922943115
1619376399.70365,105.5302,17.611429929733276
1619376399.71928,154.3552,17.627059936523438
1619376399.7349,201.4599,17.642679929733276
1619376399.75053,245.9465,17.658309936523438
1619376399.76615,287.0169,17.673929929733276
1619376399.78178,324.5031,17.689559936523438
1619376399.7974,359.4581,17.705179929733276
1619376399.81303,394.0657,17.720809936523438
1619376399.82866,430.5057,17.7364399433136
1619376399.84428,469.2383,17.752059936523438
1619376399.85991,507.7518,17.7676899433136
1619376399.87553,540.7845,17.783309936523438
1619376399.89116,562.188,17.7989399433136
1619376399.90678,567.5856,17.814559936523438
1619376399.92241,556.3182,17.8301899433136
1619376399.93804,531.6818,17.84581995010376
1619376399.95366,499.3808,17.8614399433136
1619376399.96929,465.1142,17.87706995010376
1619376399.98491,432.6615,17.8926899433136
1619376400.00054,403.3088,17.90831995010376
1619376400.01616,376.5452,17.9239399433136
1619376400.03179,351.3526,17.93956995010376
1619376400.04742,327.2655,17.95519995689392
1619376400.06304,304.4547,17.97081995010376
1619376400.07867,283.3151,17.98644995689392
1619376400.09429,263.7677,18.00206995010376
1619376400.10992,245.0093,18.01769995689392
1619376400.12554,225.7905,18.03331995010376
1619376400.14117,205.0703,18.04894995689392
1619376400.1568,182.5901,18.064579963684082
1619376400.17242,159.0242,18.08019995689392
1619376400.18805,135.6899,18.095829963684082
1619376400.20367,113.8944,18.11144995689392
1619376400.2193,94.41016,18.127079963684082
1619376400.23492,77.18994,18.14269995689392
1619376400.25055,61.52173,18.158329963684082
1619376400.26618,46.44214,18.173959970474243
1619376400.2818,31.15637,18.189579963684082
1619376400.29743,15.27478,18.205209970474243
1619376400.31305,-1.094727,18.220829963684082
1619376400.32868,-17.40271,18.236459970474243
1619376400.3443,-32.73022,18.252079963684082
1619376400.35993,-45.94739,18.267709970474243
1619376400.37556,-55.95691,18.283339977264404
1619376400.39118,-62.09314,18.298959970474243
1619376400.40681,-64.3938,18.314589977264404
1619376400.42243,-63.61182,18.330209970474243
1619376400.43806,-61.94092,18.345839977264404
1619376400.45368,-60.89673,18.361459970474243
1619376400.46931,-60.43823,18.377089977264404
1619376400.48494,-59.34399,18.392719984054565
1619376400.50056,-56.53882,18.408339977264404
1619376400.51619,-52.0708,18.423969984054565
1619376400.53181,-47.17188,18.439589977264404
1619376400.54744,-43.67212,18.455219984054565
1619376400.56306,-43.09839,18.470839977264404
1619376400.57869,-47.07153,18.486469984054565
1619376400.59432,-55.5293,18.502099990844727
1619376400.60994,-66.65088,18.517719984054565
1619376400.62557,-77.85742,18.533349990844727
1619376400.64119,-87.34058,18.548969984054565
1619376400.65682,-94.64551,18.564599990844727
1619376400.67244,-100.3174,18.580219984054565
1619376400.68807,-105.2996,18.595849990844727
1619376400.7037,-110.4319,18.611479997634888
1619376400.71932,-118.8872,18.627099990844727
1619376400.73495,-132.4326,18.642729997634888
1619376400.75057,-150.176,18.658349990844727
1619376400.7662,-169.3674,18.673979997634888
1619376400.78182,-187.5271,18.689599990844727
1619376400.79745,-203.4749,18.705229997634888
1619376400.81308,-217.0945,18.72086000442505
1619376400.8287,-228.9243,18.736479997634888
1619376400.84433,-240.031,18.75211000442505
1619376400.85995,-259.0488,18.767729997634888
1619376400.87558,-291.3491,18.78336000442505
1619376400.8912,-334.8699,18.798979997634888
1619376400.90683,-381.5015,18.81461000442505
1619376400.92246,-422.6604,18.83024001121521
1619376400.93808,-452.3132,18.84586000442505
1619376400.95371,-466.8689,18.86149001121521
1619376400.96933,-464.4751,18.87711000442505
1619376400.98496,-444.917,18.89274001121521
1619376401.00058,-424.7217,18.90836000442505
1619376401.01621,-415.9058,18.92399001121521
1619376401.03184,-418.5979,18.93962001800537
1619376401.04746,-424.4736,18.95524001121521
1619376401.06309,-427.4753,18.97087001800537
1619376401.07871,-427.8613,18.98649001121521
1619376401.09434,-428.8982,19.00212001800537
1619376401.10996,-432.8601,19.01774001121521
1619376401.12559,-439.6077,19.03337001800537
1619376401.14122,-470.9465,19.049000024795532
1619376401.15684,-538.2961,19.06462001800537
1619376401.17247,-632.4648,19.080250024795532
1619376401.18809,-730.5632,19.09587001800537
1619376401.20372,-814.2815,19.111500024795532
1619376401.21934,-877.5732,19.12712001800537
1619376401.23497,-922.7114,19.142750024795532
1619376401.2506,-954.6116,19.158380031585693
1619376401.26622,-978.0906,19.174000024795532
1619376401.28185,-1028.042,19.189630031585693
1619376401.29747,-1125.528,19.205250024795532
1619376401.3131,-1262.947,19.220880031585693
1619376401.32872,-1412.499,19.236500024795532
1619376401.34435,-1550.485,19.252130031585693
1619376401.35998,-1668.191,19.267760038375854
1619376401.3756,-1767.527,19.283380031585693
1619376401.39123,-1853.969,19.299010038375854
1619376401.40685,-1737.614,19.314630031585693
1619376401.42248,-1342.893,19.330260038375854
1619376401.4381,-755.2656,19.345880031585693
1619376401.45373,-152.2495,19.361510038375854
1619376401.46936,340.1635,19.377140045166016
1619376401.48498,689.9895,19.392760038375854
1619376401.50061,918.9545,19.408390045166016
1619376401.51623,1062.112,19.424010038375854
1619376401.53186,1149.982,19.439640045166016
1619376401.54748,1204.275,19.455260038375854
1619376401.56311,1208.411,19.470890045166016
1619376401.57874,1154.244,19.486519813537598
1619376401.59436,1059.105,19.502140045166016
1619376401.60999,958.219,19.517769813537598
1619376401.62561,880.2552,19.533390045166016
1619376401.64124,835.8412,19.549019813537598
1619376401.65686,821.7474,19.564640045166016
1619376401.67249,828.8571,19.580269813537598
1619376401.68812,847.3345,19.59589982032776
1619376401.70374,845.9082,19.611519813537598
1619376401.71937,806.585,19.62714982032776
1619376401.73499,735.8154,19.642769813537598
1619376401.75062,656.7936,19.65839982032776
1619376401.76624,589.5051,19.674019813537598
1619376401.78187,541.7259,19.68964982032776
1619376401.7975,511.4612,19.70527982711792
1619376401.81312,494.4487,19.72089982032776
1619376401.82875,486.0862,19.73652982711792
1619376401.84437,468.0641,19.75214982032776
1619376401.86,429.7976,19.76777982711792
1619376401.87562,375.2,19.78339982032776
1619376401.89125,318.0123,19.79902982711792
1619376401.90688,269.6313,19.81465983390808
1619376401.9225,233.9662,19.83027982711792
1619376401.93813,209.4496,19.84590983390808
1619376401.95375,192.9448,19.86152982711792
1619376401.96938,181.6936,19.87715983390808
1619376401.985,166.7695,19.89277982711792
1619376402.00063,143.0239,19.90840983390808
1619376402.01626,111.9745,19.924039840698242
1619376402.03188,79.36335,19.93965983390808
1619376402.04751,49.65581,19.955289840698242
1619376402.06313,24.5086,19.97090983390808
1619376402.07876,3.65403,19.986539840698242
1619376402.09438,-13.20931,20.00215983390808
1619376402.11001,-26.11932,20.017789840698242
1619376402.12564,-37.51865,20.033419847488403
1619376402.14126,-48.80423,20.049039840698242
1619376402.15689,-59.04588,20.064669847488403
1619376402.17251,-65.18166,20.080289840698242
1619376402.18814,-67.66846,20.095919847488403
1619376402.20376,-66.55865,20.111539840698242
1619376402.21939,-62.54095,20.127169847488403
1619376402.23502,-56.71991,20.142799854278564
1619376402.25064,-50.68268,20.158419847488403
1619376402.26627,-46.21552,20.174049854278564
1619376402.28189,-44.9679,20.189669847488403
1619376402.29752,-47.84805,20.205299854278564
1619376402.31315,-54.77759,20.220929861068726
1619376402.32877,-64.5018,20.236549854278564
1619376402.3444,-74.30786,20.252179861068726
1619376402.36002,-81.37561,20.267799854278564
1619376402.37565,-83.34467,20.283429861068726
1619376402.39127,-78.92731,20.299049854278564
1619376402.4069,-68.05219,20.314679861068726
1619376402.42253,-51.91864,20.330309867858887
1619376402.43815,-32.87555,20.345929861068726
1619376402.45378,-14.04791,20.361559867858887
1619376402.4694,1.272461,20.377179861068726
1619376402.48503,10.88867,20.392809867858887
1619376402.50065,13.98163,20.408429861068726
1619376402.51628,11.52704,20.424059867858887
1619376402.53191,5.894226,20.439689874649048
1619376402.54753,-0.02197266,20.455309867858887
1619376402.56316,-3.987,20.470939874649048
1619376402.57878,-5.174133,20.486559867858887
1619376402.59441,-4.130554,20.502189874649048
1619376402.61003,-2.180725,20.517809867858887
1619376402.62566,-0.1636353,20.533439874649048
1619376402.64129,1.701355,20.54906988143921
1619376402.65691,3.848572,20.564689874649048
1619376402.67254,6.887695,20.58031988143921
1619376402.68816,11.10779,20.595939874649048
1619376402.70379,16.37622,20.61156988143921
1619376402.71941,22.29773,20.627189874649048
1619376402.73504,28.53943,20.64281988143921
1619376402.75067,34.89429,20.65844988822937
1619376402.76629,41.29083,20.67406988143921
1619376402.78192,47.45819,20.68969988822937
1619376402.79754,53.0744,20.70531988143921
1619376402.81317,57.7796,20.72094988822937
1619376402.82879,61.53174,20.73656988143921
1619376402.84442,64.7124,20.75219988822937
1619376402.86005,68.00769,20.76782989501953
1619376402.87567,72.11914,20.78344988822937
1619376402.8913,77.45923,20.79907989501953
1619376402.90692,84.07227,20.81469988822937
1619376402.92255,91.58154,20.83032989501953
1619376402.93817,99.4635,20.84594988822937
1619376402.9538,107.1765,20.86157989501953
1619376402.96943,114.4374,20.877209901809692
1619376402.98505,121.3015,20.89282989501953
1619376403.00068,128.3655,20.908459901809692
1619376403.0163,136.7629,20.92407989501953
1619376403.03193,147.8387,20.939709901809692
1619376403.04755,162.5253,20.95532989501953
1619376403.06318,180.6345,20.970959901809692
1619376403.07881,200.509,20.986589908599854
1619376403.09443,219.3517,21.002209901809692
1619376403.11006,234.1768,21.017839908599854
1619376403.12568,242.9392,21.033459901809692
1619376403.14131,245.2352,21.049089908599854
1619376403.15693,242.1975,21.064709901809692
1619376403.17256,235.6691,21.080339908599854
1619376403.18819,227.2538,21.095969915390015
1619376403.20381,217.7311,21.111589908599854
1619376403.21944,207.121,21.127219915390015
1619376403.23506,195.1833,21.142839908599854
1619376403.25069,181.9801,21.158469915390015
1619376403.26631,168.0573,21.174089908599854
1619376403.28194,154.2008,21.189719915390015
1619376403.29757,141.0524,21.205349922180176
1619376403.31319,128.8015,21.220969915390015
1619376403.32882,117.1727,21.236599922180176
1619376403.34444,105.7023,21.252219915390015
1619376403.36007,94.04333,21.267849922180176
1619376403.37569,82.18457,21.283469915390015
1619376403.39132,70.54688,21.299099922180176
1619376403.40695,59.83655,21.314729928970337
1619376403.42257,50.71631,21.330349922180176
1619376403.4382,43.52051,21.345979928970337
1619376403.45382,38.00159,21.361599922180176
1619376403.46945,33.32471,21.377229928970337
1619376403.48507,28.3092,21.392849922180176
1619376403.5007,21.84534,21.408479928970337
1619376403.51633,13.31934,21.424109935760498
1619376403.53195,2.824707,21.439729928970337
1619376403.54758,-8.881836,21.455359935760498
1619376403.5632,-20.66479,21.470979928970337
1619376403.57883,-31.40417,21.486609935760498
1619376403.59445,-40.27393,21.502229928970337
1619376403.61008,-46.9585,21.517859935760498
1619376403.62571,-51.63171,21.53348994255066
1619376403.64133,-54.83386,21.549109935760498
1619376403.65696,-57.34399,21.56473994255066
1619376403.67258,-59.96436,21.580359935760498
1619376403.68821,-63.3291,21.59598994255066
1619376403.70383,-67.68384,21.611609935760498
1619376403.71946,-72.69873,21.62723994255066
1619376403.73509,-77.46765,21.64286994934082
1619376403.75071,-80.68408,21.65848994255066
1619376403.76634,-81.01733,21.67411994934082
1619376403.78196,-77.54663,21.68973994255066
1619376403.79759,-70.0293,21.70536994934082
1619376403.81321,-58.93225,21.72098994255066
1619376403.82884,-45.23108,21.73661994934082
1619376403.84447,-30.0896,21.75224995613098
1619376403.86009,-14.58447,21.76786994934082
1619376403.87572,0.3951416,21.78349995613098
1619376403.89134,14.10449,21.79911994934082
1619376403.90697,25.87073,21.81474995613098
1619376403.92259,35.0907,21.83036994934082
1619376403.93822,41.3689,21.84599995613098
1619376403.95385,44.6803,21.861629962921143
1619376403.96947,45.44739,21.87724995613098
1619376403.9851,44.42041,21.892879962921143
1619376404.00072,42.46936,21.90849995613098
1619376404.01635,40.30042,21.924129962921143
1619376404.03197,38.28638,21.93974995613098
1619376404.0476,36.46484,21.955379962921143
1619376404.06323,34.64368,21.971009969711304
1619376404.07885,32.61365,21.986629962921143
1619376404.09448,30.33667,22.002259969711304
1619376404.1101,28.04309,22.017879962921143
1619376404.12573,26.17334,22.033509969711304
1619376404.14135,25.18982,22.049129962921143
1619376404.15698,25.33215,22.064759969711304
1619376404.17261,26.40222,22.080389976501465
1619376404.18823,27.71667,22.096009969711304
1619376404.20386,28.30188,22.111639976501465
1619376404.21948,27.23877,22.127259969711304
1619376404.23511,24.07764,22.142889976501465
1619376404.25073,19.14856,22.158509969711304
1619376404.26636,13.59277,22.174139976501465
1619376404.28199,9.122437,22.189769983291626
1619376404.29761,7.435303,22.205389976501465
1619376404.31324,9.607422,22.221019983291626
1619376404.32886,15.54175,22.236639976501465
1619376404.34449,23.81384,22.252269983291626
1619376404.36011,31.87183,22.267889976501465
1619376404.37574,36.68701,22.283519983291626
1619376404.39137,35.56836,22.299149990081787
1619376404.40699,27.00757,22.314769983291626
1619376404.42262,11.22498,22.330399990081787
1619376404.43824,-9.775269,22.346019983291626
1619376404.45387,-32.64575,22.361649990081787
1619376404.4695,-53.57239,22.37727999687195
1619376404.48512,-69.22083,22.392899990081787
1619376404.50075,-77.49762,22.40852999687195
1619376404.51637,-77.85126,22.424149990081787
1619376404.532,-71.07483,22.43977999687195
1619376404.54762,-58.77905,22.455399990081787
1619376404.56325,-42.79767,22.47102999687195
1619376404.57888,-24.80811,22.48666000366211
1619376404.5945,-6.225891,22.50227999687195
1619376404.61013,11.70691,22.51791000366211
1619376404.62575,27.7746,22.53352999687195
1619376404.64138,40.81128,22.54916000366211
1619376404.657,49.93604,22.56477999687195
1619376404.67263,54.86285,22.58041000366211
1619376404.68826,55.9975,22.59604001045227
1619376404.70388,54.37195,22.61166000366211
1619376404.71951,51.20605,22.62729001045227
1619376404.73513,47.48914,22.64291000366211
1619376404.75076,43.6463,22.65854001045227
1619376404.76638,39.52826,22.67416000366211
1619376404.78201,34.66919,22.68979001045227
1619376404.79764,28.68134,22.70542001724243
1619376404.81326,21.59607,22.72104001045227
1619376404.82889,13.94098,22.73667001724243
1619376404.84451,6.553101,22.75229001045227
1619376404.86014,0.1860962,22.76792001724243
1619376404.87576,-4.788086,22.78354001045227
1619376404.89139,-8.544983,22.79917001724243
1619376404.90702,-11.66962,22.814800024032593
1619376404.92264,-14.81958,22.83042001724243
1619376404.93827,-18.41693,22.846050024032593
1619376404.95389,-22.43805,22.86167001724243
1619376404.96952,-26.5108,22.877300024032593
1619376404.98514,-30.14764,22.89292001724243
1619376405.00077,-33.05035,22.908550024032593
1619376405.0164,-35.27588,22.924180030822754
1619376405.03202,-37.26318,22.939800024032593
1619376405.04765,-39.67786,22.955430030822754
1619376405.06327,-43.19702,22.971050024032593
1619376405.0789,-48.28223,22.986680030822754
1619376405.09452,-55.01953,23.002300024032593
1619376405.11015,-62.96338,23.017930030822754
1619376405.12578,-71.08661,23.033560037612915
1619376405.1414,-77.86774,23.049180030822754
1619376405.15703,-81.54755,23.064810037612915
1619376405.17265,-80.54919,23.080430030822754
1619376405.18828,-73.98358,23.096060037612915
1619376405.2039,-61.97174,23.111680030822754
1619376405.21953,-45.71417,23.127310037612915
1619376405.23516,-27.15564,23.142940044403076
1619376405.25078,-8.491943,23.158560037612915
1619376405.26641,8.417908,23.174190044403076
1619376405.28203,22.34094,23.189810037612915
1619376405.29766,32.77234,23.205440044403076
1619376405.31328,39.70544,23.221060037612915
1619376405.32891,43.4624,23.236690044403076
1619376405.34454,44.48804,23.252320051193237
1619376405.36016,43.33228,23.267940044403076
1619376405.37579,40.64056,23.283570051193237
1619376405.39141,37.09088,23.299190044403076
1619376405.40704,33.29108,23.314820051193237
1619376405.42266,29.59686,23.330440044403076
1619376405.43829,26.02618,23.346070051193237
1619376405.45392,22.35669,23.36169981956482
1619376405.46954,18.32263,23.377320051193237
1619376405.48517,13.88263,23.39294981956482
1619376405.50079,9.323914,23.408570051193237
1619376405.51642,5.189148,23.42419981956482
1619376405.53204,1.983215,23.439820051193237
1619376405.54767,-0.09667969,23.45544981956482
1619376405.5633,-1.321777,23.47107982635498
1619376405.57892,-2.360413,23.48669981956482
1619376405.59455,-3.988464,23.50232982635498
1619376405.61017,-6.807861,23.51794981956482
1619376405.6258,-10.99536,23.53357982635498
1619376405.64142,-16.2959,23.54919981956482
1619376405.65705,-22.17651,23.56482982635498
1619376405.67268,-28.08252,23.58045983314514
1619376405.6883,-33.63037,23.59607982635498
1619376405.70393,-38.73114,23.61170983314514
1619376405.71955,-43.56897,23.62732982635498
1619376405.73518,-48.52863,23.64295983314514
1619376405.7508,-54.03967,23.65857982635498
1619376405.76643,-60.40021,23.67420983314514
1619376405.78206,-67.55695,23.689839839935303
1619376405.79768,-74.89124,23.70545983314514
1619376405.81331,-81.19415,23.721089839935303
1619376405.82893,-84.84601,23.73670983314514
1619376405.84456,-84.25909,23.752339839935303
1619376405.86018,-78.38531,23.76795983314514
1619376405.87581,-67.1311,23.783589839935303
1619376405.89144,-51.54773,23.799219846725464
1619376405.90706,-33.50275,23.814839839935303
1619376405.92269,-15.17438,23.830469846725464
1619376405.93831,1.466248,23.846089839935303
1619376405.95394,15.05316,23.861719846725464
1619376405.96956,24.90808,23.877339839935303
1619376405.98519,30.91083,23.892969846725464
1619376406.00082,33.30878,23.908599853515625
1619376406.01644,32.62622,23.924219846725464
1619376406.03207,29.5882,23.939849853515625
1619376406.04769,25.07867,23.955469846725464
1619376406.06332,20.00793,23.971099853515625
1619376406.07894,15.07764,23.986719846725464
1619376406.09457,10.62219,24.002349853515625
1619376406.1102,6.56897,24.017979860305786
1619376406.12582,2.612732,24.033599853515625
1619376406.14145,-1.459106,24.049229860305786
1619376406.15707,-5.560913,24.064849853515625
1619376406.1727,-9.247803,24.080479860305786
1619376406.18832,-11.96783,24.096099853515625
1619376406.20395,-13.45215,24.111729860305786
1619376406.21958,-13.97382,24.127359867095947
1619376406.2352,-14.35211,24.142979860305786
1619376406.25083,-15.60614,24.158609867095947
1619376406.26645,-18.44867,24.174229860305786
1619376406.28208,-22.94397,24.189859867095947
1619376406.2977,-28.44385,24.205479860305786
1619376406.31333,-33.90234,24.221109867095947
1619376406.32896,-38.3905,24.23673987388611
1619376406.34458,-41.52887,24.252359867095947
1619376406.36021,-43.56354,24.26798987388611
1619376406.37583,-45.14642,24.283609867095947
1619376406.39146,-46.93317,24.29923987388611
1619376406.40708,-49.28424,24.314859867095947
1619376406.42271,-52.13647,24.33048987388611
1619376406.43834,-55.19727,24.34611988067627
1619376406.45396,-58.15515,24.36173987388611
1619376406.46959,-60.90814,24.37736988067627
1619376406.48521,-63.5816,24.39298987388611
1619376406.50084,-66.37134,24.40861988067627
1619376406.51646,-69.28998,24.42423987388611
1619376406.53209,-71.93738,24.43986988067627
1619376406.54772,-73.37842,24.45549988746643
1619376406.56334,-72.25543,24.47111988067627
1619376406.57897,-67.11377,24.48674988746643
1619376406.59459,-56.84491,24.50236988067627
1619376406.61022,-41.24707,24.51799988746643
1619376406.62584,-21.28455,24.53361988067627
1619376406.64147,0.9064941,24.54924988746643
1619376406.6571,22.20459,24.564879894256592
1619376406.67272,39.15527,24.58049988746643
1619376406.68835,48.68921,24.596129894256592
1619376406.70397,49.35846,24.61174988746643
1619376406.7196,42.48828,24.627379894256592
1619376406.73522,32.91479,24.64299988746643
1619376406.75085,28.42059,24.658629894256592
1619376406.76648,37.62671,24.674259901046753
1619376406.7821,66.6637,24.689879894256592
1619376406.79773,116.0436,24.705509901046753
1619376406.81335,179.4029,24.721129894256592
1619376406.82898,245.0655,24.736759901046753
1619376406.8446,299.9876,24.752379894256592
1619376406.86023,334.4262,24.768009901046753
1619376406.87586,345.018,24.783639907836914
1619376406.89148,334.9437,24.799259901046753
1619376406.90711,311.3705,24.814889907836914
1619376406.92273,281.7272,24.830509901046753
1619376406.93836,250.9507,24.846139907836914
1619376406.95398,220.7699,24.861759901046753
1619376406.96961,190.9725,24.877389907836914
1619376406.98524,161.3089,24.893019914627075
1619376407.00086,132.7128,24.908639907836914
1619376407.01649,107.094,24.924269914627075
1619376407.03211,86.07217,24.939889907836914
1619376407.04774,69.76474,24.955519914627075
1619376407.06336,56.20462,24.971139907836914
1619376407.07899,41.99454,24.986769914627075
1619376407.09462,23.68033,25.002399921417236
1619376407.11024,-1.270966,25.018019914627075
1619376407.12587,-34.10788,25.033649921417236
1619376407.14149,-75.2215,25.049269914627075
1619376407.15712,-124.477,25.064899921417236
1619376407.17275,-180.9147,25.080529928207397
1619376407.18837,-241.8606,25.096149921417236
1619376407.204,-302.2543,25.111779928207397
1619376407.21962,-354.9956,25.127399921417236
1619376407.23525,-392.6929,25.143029928207397
1619376407.25087,-410.12,25.158649921417236
1619376407.2665,-405.9991,25.174279928207397
1619376407.28213,-383.2067,25.18990993499756
1619376407.29775,-347.2838,25.205529928207397
1619376407.31338,-304.2493,25.22115993499756
1619376407.329,-258.9475,25.236779928207397
1619376407.34463,-214.6913,25.25240993499756
1619376407.36025,-173.907,25.268029928207397
1619376407.37588,-138.8401,25.28365993499756
1619376407.39151,-111.6018,25.29928994178772
1619376407.40713,-93.43024,25.31490993499756
1619376407.42276,-83.78882,25.33053994178772
1619376407.43838,-80.14923,25.34615993499756
1619376407.45401,-78.80453,25.36178994178772
1619376407.46963,-76.30206,25.37740993499756
1619376407.48526,-70.65192,25.39303994178772
1619376407.50089,-61.77887,25.40866994857788
1619376407.51651,-51.03693,25.42428994178772
1619376407.53214,-40.34641,25.43991994857788
1619376407.54776,-31.18198,25.45553994178772
1619376407.56339,-24.08578,25.47116994857788
1619376407.57901,-18.81302,25.48678994178772
1619376407.59464,-14.66663,25.50241994857788
1619376407.61027,-11.02966,25.518049955368042
1619376407.62589,-7.637939,25.53366994857788
1619376407.64152,-4.631104,25.549299955368042
1619376407.65714,-2.388763,25.56491994857788
1619376407.67277,-1.215424,25.580549955368042
1619376407.68839,-1.170258,25.59616994857788
1619376407.70402,-2.104523,25.611799955368042
1619376407.71965,-3.847076,25.627429962158203
1619376407.73527,-6.488159,25.643049955368042
1619376407.7509,-10.49155,25.658679962158203
1619376407.76652,-16.52197,25.674299955368042
1619376407.78215,-25.06891,25.689929962158203
1619376407.79777,-35.82272,25.705549955368042
1619376407.8134,-47.36453,25.721179962158203
1619376407.82903,-57.23987,25.736809968948364
1619376407.84465,-62.6185,25.752429962158203
1619376407.86028,-61.20825,25.768059968948364
1619376407.8759,-52.06433,25.783679962158203
1619376407.89153,-35.91547,25.799309968948364
1619376407.90715,-14.83093,25.814929962158203
1619376407.92278,8.492432,25.830559968948364
1619376407.93841,31.54401,25.846189975738525
1619376407.95403,52.48059,25.861809968948364
1619376407.96966,70.19373,25.877439975738525
1619376407.98528,84.10199,25.893059968948364
1619376408.00091,93.92029,25.908689975738525
1619376408.01653,99.61841,25.924309968948364
1619376408.03216,101.5098,25.939939975738525
1619376408.04779,100.3219,25.955569982528687
1619376408.06341,97.16754,25.971189975738525
1619376408.07904,93.23077,25.986819982528687
1619376408.09466,89.40863,26.002439975738525
1619376408.11029,86.08185,26.018069982528687
1619376408.12591,83.13068,26.033689975738525
1619376408.14154,80.19562,26.049319982528687
1619376408.15717,77.00726,26.064949989318848
1619376408.17279,73.63757,26.080569982528687
1619376408.18842,70.38788,26.096199989318848
1619376408.20404,67.56274,26.111819982528687
1619376408.21967,65.16022,26.127449989318848
1619376408.23529,62.77484,26.143069982528687
1619376408.25092,59.74835,26.158699989318848
1619376408.26655,55.49664,26.17432999610901
1619376408.28217,49.79224,26.189949989318848
1619376408.2978,42.86646,26.20557999610901
1619376408.31342,35.24304,26.221199989318848
1619376408.32905,27.4881,26.23682999610901
1619376408.34467,19.93805,26.252449989318848
1619376408.3603,12.59216,26.26807999610901
1619376408.37593,5.149475,26.28371000289917
1619376408.39155,-2.90271,26.29932999610901
1619376408.40718,-12.1543,26.31496000289917
1619376408.4228,-23.1557,26.33057999610901
1619376408.43843,-36.14514,26.34621000289917
1619376408.45405,-50.75751,26.36182999610901
1619376408.46968,-65.77783,26.37746000289917
1619376408.48531,-79.16388,26.39309000968933
1619376408.50093,-88.41693,26.40871000289917
1619376408.51656,-91.29364,26.42434000968933
1619376408.53218,-86.54266,26.43996000289917
1619376408.54781,-74.37585,26.45559000968933
1619376408.56343,-56.44165,26.47121000289917
1619376408.57906,-35.28009,26.48684000968933
1619376408.59469,-13.57819,26.502470016479492
1619376408.61031,6.546448,26.51809000968933
1619376408.62594,23.80762,26.533720016479492
1619376408.64156,37.72845,26.54934000968933
1619376408.65719,48.25195,26.564970016479492
1619376408.67281,55.48596,26.58059000968933
1619376408.68844,59.54608,26.596220016479492
1619376408.70407,60.65692,26.611850023269653
1619376408.71969,59.25745,26.627470016479492
1619376408.73532,56.01727,26.643100023269653
1619376408.75094,51.71918,26.658720016479492
1619376408.76657,47.03326,26.674350023269653
1619376408.78219,42.3739,26.689970016479492
1619376408.79782,37.8949,26.705600023269653
1619376408.81345,33.62518,26.721230030059814
1619376408.82907,29.61823,26.736850023269653
1619376408.8447,26.03357,26.752480030059814
1619376408.86032,23.04028,26.768100023269653
1619376408.87595,20.66357,26.783730030059814
1619376408.89157,18.67603,26.799350023269653
1619376408.9072,16.64386,26.814980030059814
1619376408.92283,14.06036,26.830610036849976
1619376408.93845,10.56763,26.846230030059814
1619376408.95408,6.09021,26.861860036849976
1619376408.9697,0.8077393,26.877480030059814
1619376408.98533,-4.978577,26.893110036849976
1619376409.00095,-10.97443,26.908730030059814
1619376409.01658,-17.08289,26.924360036849976
1619376409.03221,-23.42389,26.939990043640137
1619376409.04783,-30.35547,26.955610036849976
1619376409.06346,-38.39514,26.971240043640137
1619376409.07908,-48.02032,26.986860036849976
1619376409.09471,-59.45477,27.002490043640137
1619376409.11033,-72.37555,27.018110036849976
1619376409.12596,-85.73346,27.033740043640137
1619376409.14159,-97.71326,27.049370050430298
1619376409.15721,-106.0421,27.064990043640137
1619376409.17284,-108.5032,27.080620050430298
1619376409.18846,-103.537,27.096240043640137
1619376409.20409,-90.71429,27.111870050430298
1619376409.21971,-70.85638,27.127490043640137
1619376409.23534,-45.8056,27.143120050430298
1619376409.25097,-17.89166,27.15874981880188
1619376409.26659,10.61938,27.174370050430298
1619376409.28222,37.92487,27.18999981880188
1619376409.29784,62.78461,27.205620050430298
1619376409.31347,84.41339,27.22124981880188
1619376409.32909,102.1923,27.236870050430298
1619376409.34472,115.5868,27.25249981880188
1619376409.36035,124.1643,27.26812982559204
1619376409.37597,127.8344,27.28374981880188
1619376409.3916,127.0399,27.29937982559204
1619376409.40722,122.813,27.31499981880188
1619376409.42285,116.5432,27.33062982559204
1619376409.43848,109.5636,27.346259832382202
1619376409.4541,102.8043,27.36187982559204
1619376409.46973,96.62219,27.377509832382202
1619376409.48535,90.93677,27.39312982559204
1619376409.50098,85.53796,27.408759832382202
1619376409.5166,80.32141,27.42437982559204
1619376409.53223,75.36938,27.440009832382202
1619376409.54786,70.80493,27.455639839172363
1619376409.56348,66.5592,27.471259832382202
1619376409.57911,62.30811,27.486889839172363
1619376409.59473,57.5376,27.502509832382202
1619376409.61036,51.83997,27.518139839172363
1619376409.62598,45.10669,27.533759832382202
1619376409.64161,37.60352,27.549389839172363
1619376409.65724,29.84717,27.565019845962524
1619376409.67286,22.30847,27.580639839172363
1619376409.68849,15.22461,27.596269845962524
1619376409.70411,8.455688,27.611889839172363
1619376409.71974,1.556396,27.627519845962524
1619376409.73536,-6.123657,27.643139839172363
1619376409.75099,-15.23682,27.658769845962524
1619376409.76662,-26.24463,27.674399852752686
1619376409.78224,-39.16199,27.690019845962524
1619376409.79787,-53.33655,27.705649852752686
1619376409.81349,-67.29108,27.721269845962524
1619376409.82912,-78.87872,27.736899852752686
1619376409.84474,-85.70038,27.752519845962524
1619376409.86037,-85.79852,27.768149852752686
1619376409.876,-78.30768,27.783779859542847
1619376409.89162,-63.83887,27.799399852752686
1619376409.90725,-44.34497,27.815029859542847
1619376409.92287,-22.51147,27.830649852752686
1619376409.9385,-0.9931641,27.846279859542847
1619376409.95412,18.23547,27.861899852752686
1619376409.96975,34.16077,27.877529859542847
1619376409.98538,46.58362,27.893159866333008
1619376410.001,55.70349,27.908779859542847
1619376410.01663,61.75525,27.924409866333008
1619376410.03225,64.84888,27.940029859542847
1619376410.04788,64.99976,27.955659866333008
1619376410.0635,62.39294,27.971279859542847
1619376410.07913,57.50012,27.986909866333008
1619376410.09476,51.11853,28.00253987312317
1619376410.11038,44.21155,28.018159866333008
1619376410.12601,37.63269,28.03378987312317
1619376410.14163,31.95654,28.049409866333008
1619376410.15726,27.39978,28.06503987312317
1619376410.17288,23.92114,28.080659866333008
1619376410.18851,21.37915,28.09628987312317
1619376410.20414,19.67798,28.11191987991333
1619376410.21976,18.81091,28.12753987312317
1619376410.23539,18.76331,28.14316987991333
1619376410.25101,19.37341,28.15878987312317
1619376410.26664,20.1983,28.17441987991333
1619376410.28226,20.55438,28.19003987312317
1619376410.29789,19.71375,28.20566987991333
1619376410.31352,17.15442,28.22129988670349
1619376410.32914,12.7832,28.23691987991333
1619376410.34477,7.001892,28.25254988670349
1619376410.36039,0.5858765,28.26816987991333
1619376410.37602,-5.6828,28.28379988670349
1619376410.39164,-11.30939,28.29941987991333
1619376410.40727,-16.34186,28.31504988670349
1619376410.4229,-21.33362,28.330679893493652
1619376410.43852,-27.11639,28.34629988670349
1619376410.45415,-34.4939,28.361929893493652
1619376410.46977,-43.89728,28.37754988670349
1619376410.4854,-55.15845,28.393179893493652
1619376410.50102,-67.41437,28.40879988670349
1619376410.51665,-79.1145,28.424429893493652
1619376410.53228,-88.17737,28.440059900283813
1619376410.5479,-92.32928,28.455679893493652
1619376410.56353,-89.63361,28.471309900283813
1619376410.57915,-79.0498,28.486929893493652
1619376410.59478,-60.87164,28.502559900283813
1619376410.6104,-36.74939,28.518179893493652
1619376410.62603,-9.294006,28.533809900283813
1619376410.64166,18.59052,28.549439907073975
1619376410.65728,44.42786,28.565059900283813
1619376410.67291,66.52759,28.580689907073975
1619376410.68853,84.03937,28.596309900283813
1619376410.70416,96.65125,28.611939907073975
1619376410.71978,104.3082,28.627559900283813
1619376410.73541,107.073,28.643189907073975
1619376410.75104,105.2554,28.658819913864136
1619376410.76666,99.57947,28.674439907073975
1619376410.78229,91.28778,28.690069913864136
1619376410.79791,81.91339,28.705689907073975
1619376410.81354,72.93042,28.721319913864136
1619376410.82916,65.30005,28.736939907073975
1619376410.84479,59.30737,28.752569913864136
1619376410.86042,54.65338,28.768199920654297
1619376410.87604,50.81042,28.783819913864136
1619376410.89167,47.43024,28.799449920654297
1619376410.90729,44.53864,28.815069913864136
1619376410.92292,42.43213,28.830699920654297
1619376410.93854,41.39587,28.846319913864136
1619376410.95417,41.34515,28.861949920654297
1619376410.9698,41.68304,28.877579927444458
1619376410.98542,41.44904,28.893199920654297
1619376411.00105,39.66119,28.908829927444458
1619376411.01667,35.73517,28.924449920654297
1619376411.0323,29.69647,28.940079927444458
1619376411.04792,22.11487,28.955699920654297
1619376411.06355,13.84576,28.971329927444458
1619376411.07918,5.640686,28.98695993423462
1619376411.0948,-2.156189,29.002579927444458
1619376411.11043,-9.677429,29.01820993423462
1619376411.12605,-17.45819,29.033829927444458
1619376411.14168,-26.18542,29.04945993423462
1619376411.1573,-36.47668,29.065079927444458
1619376411.17293,-48.67804,29.08070993423462
1619376411.18856,-62.71472,29.09633994102478
1619376411.20418,-77.9549,29.11195993423462
1619376411.21981,-93.13324,29.12758994102478
1619376411.23543,-106.3967,29.14320993423462
1619376411.25106,-115.5559,29.15883994102478
1619376411.26668,-118.559,29.17445993423462
1619376411.28231,-114.1073,29.19008994102478
1619376411.29794,-102.0504,29.20571994781494
1619376411.31356,-83.52087,29.22133994102478
1619376411.32919,-60.69775,29.23696994781494
1619376411.34481,-36.1673,29.25258994102478
1619376411.36044,-12.36346,29.26821994781494
1619376411.37606,8.849854,29.28383994102478
1619376411.39169,26.31317,29.29946994781494
1619376411.40732,39.46899,29.315099954605103
1619376411.42294,48.17419,29.33071994781494
1619376411.43857,52.61475,29.346349954605103
1619376411.45419,53.2774,29.36196994781494
1619376411.46982,50.9845,29.377599954605103
1619376411.48544,46.81549,29.39321994781494
1619376411.50107,41.90009,29.408849954605103
1619376411.5167,37.19519,29.424479961395264
1619376411.53232,33.24371,29.440099954605103
1619376411.54795,30.08368,29.455729961395264
1619376411.56357,27.36121,29.471349954605103
1619376411.5792,24.57855,29.486979961395264
1619376411.59483,21.37573,29.502609968185425
1619376411.61045,17.67407,29.518229961395264
1619376411.62608,13.7356,29.533859968185425
1619376411.6417,9.980164,29.549479961395264
1619376411.65733,6.78064,29.565109968185425
1619376411.67295,4.262085,29.580729961395264
1619376411.68858,2.2276,29.596359968185425
1619376411.70421,0.2404175,29.611989974975586
1619376411.71983,-2.188049,29.627609968185425
1619376411.73546,-5.368469,29.643239974975586
1619376411.75108,-9.30835,29.658859968185425
1619376411.76671,-13.70349,29.674489974975586
1619376411.78233,-18.13324,29.690109968185425
1619376411.79796,-22.23816,29.705739974975586
1619376411.81359,-25.89307,29.721369981765747
1619376411.82921,-29.19672,29.736989974975586
1619376411.84484,-32.3443,29.752619981765747
1619376411.86046,-35.47333,29.768239974975586
1619376411.87609,-38.58984,29.783869981765747
1619376411.89171,-41.69098,29.799489974975586
1619376411.90734,-44.93292,29.815119981765747
1619376411.92297,-48.72595,29.830749988555908
1619376411.93859,-53.62714,29.846369981765747
1619376411.95422,-60.0401,29.861999988555908
1619376411.96984,-67.77783,29.877619981765747
1619376411.98547,-75.86395,29.893249988555908
1619376412.00109,-82.5741,29.908869981765747
1619376412.01672,-85.8219,29.924499988555908
1619376412.03235,-83.77948,29.94012999534607
1619376412.04797,-75.4574,29.955749988555908
1619376412.0636,-61.17188,29.97137999534607
1619376412.07922,-42.59601,29.986999988555908
1619376412.09485,-22.46191,30.00262999534607
1619376412.11047,-3.855347,30.018249988555908
1619376412.1261,10.61023,30.03387999534607
1619376412.14173,19.53271,30.04951000213623
1619376412.15735,23.02814,30.06512999534607
1619376412.17298,22.45166,30.08076000213623
1619376412.1886,19.68793,30.09637999534607
1619376412.20423,16.29694,30.11201000213623
1619376412.21985,12.93048,30.12762999534607
1619376412.23548,9.162048,30.14326000213623
1619376412.25111,3.84845,30.15889000892639
1619376412.26673,-4.262054,30.17451000213623
1619376412.28236,-15.90045,30.19014000892639
1619376412.29798,-30.63342,30.20576000213623
1619376412.31361,-46.41544,30.22139000892639
1619376412.32923,-59.31628,30.23701000213623
1619376412.34486,-63.95044,30.25264000892639
1619376412.36049,-54.79105,30.268270015716553
1619376412.37611,-28.17984,30.28389000892639
1619376412.39174,15.68781,30.299520015716553
1619376412.40736,71.84232,30.31514000892639
1619376412.42299,131.5929,30.330770015716553
1619376412.43861,185.2491,30.34639000892639
1619376412.45424,225.3804,30.362020015716553
1619376412.46987,249.0325,30.377650022506714
1619376412.48549,257.762,30.393270015716553
1619376412.50112,255.7535,30.408900022506714
1619376412.51674,247.133,30.424520015716553
1619376412.53237,234.2023,30.440150022506714
1619376412.54799,217.3364,30.455770015716553
1619376412.56362,196.2941,30.471400022506714
1619376412.57925,171.7678,30.487030029296875
1619376412.59487,145.7735,30.502650022506714
1619376412.6105,120.9885,30.518280029296875
1619376412.62612,99.14185,30.533900022506714
1619376412.64175,79.9274,30.549530029296875
1619376412.65737,61.04102,30.565150022506714
1619376412.673,39.12244,30.580780029296875
1619376412.68863,10.98792,30.596410036087036
1619376412.70425,-25.60843,30.612030029296875
1619376412.71988,-71.61349,30.627660036087036
1619376412.7355,-126.4318,30.643280029296875
1619376412.75113,-187.4702,30.658910036087036
1619376412.76675,-249.6985,30.674530029296875
1619376412.78238,-305.9362,30.690160036087036
1619376412.79801,-348.2261,30.705790042877197
1619376412.81363,-370.0975,30.721410036087036
1619376412.82926,-368.6412,30.737040042877197
1619376412.84488,-345.441,30.752660036087036
1619376412.86051,-305.7579,30.768290042877197
1619376412.87613,-256.5852,30.783910036087036
1619376412.89176,-204.5436,30.799540042877197
1619376412.90739,-154.6727,30.81517004966736
1619376412.92301,-110.3187,30.830790042877197
1619376412.93864,-73.71429,30.84642004966736
1619376412.95426,-46.37579,30.862040042877197
1619376412.96989,-28.94931,30.87767004966736
1619376412.98551,-20.71039,30.893290042877197
1619376413.00114,-19.31915,30.90892004966736
1619376413.01677,-21.28329,30.92454981803894
1619376413.03239,-23.02435,30.94017004966736
1619376413.04802,-22.04538,30.95579981803894
1619376413.06364,-17.56906,30.97142004966736
1619376413.07927,-10.40228,30.98704981803894
1619376413.09489,-2.369629,31.00267004966736
1619376413.11052,4.640869,31.01829981803894
1619376413.12615,9.413727,31.0339298248291
1619376413.14177,11.74655,31.04954981803894
1619376413.1574,12.33762,31.0651798248291
1619376413.17302,12.36237,31.08079981803894
1619376413.18865,12.85767,31.0964298248291
1619376413.20427,14.27133,31.11204981803894
1619376413.2199,16.27609,31.1276798248291
1619376413.23553,17.97238,31.143309831619263
1619376413.25115,18.27625,31.1589298248291
1619376413.26678,16.46661,31.174559831619263
1619376413.2824,12.43643,31.1901798248291
1619376413.29803,6.764069,31.205809831619263
1619376413.31365,0.3890686,31.2214298248291
1619376413.32928,-5.767639,31.237059831619263
1619376413.34491,-11.15573,31.252689838409424
1619376413.36053,-15.81454,31.268309831619263
1619376413.37616,-20.25479,31.283939838409424
1619376413.39178,-25.31598,31.299559831619263
1619376413.40741,-31.87677,31.315189838409424
1619376413.42303,-40.61465,31.330809831619263
1619376413.43866,-51.7648,31.346439838409424
1619376413.45429,-64.88321,31.362069845199585
1619376413.46991,-78.67444,31.377689838409424
1619376413.48554,-90.97629,31.393319845199585
1619376413.50116,-99.12225,31.408939838409424
1619376413.51679,-100.6027,31.424569845199585
1619376413.53241,-93.79413,31.440189838409424
1619376413.54804,-78.56888,31.455819845199585
1619376413.56367,-56.37878,31.471449851989746
1619376413.57929,-29.80554,31.487069845199585
1619376413.59492,-1.780609,31.502699851989746
1619376413.61054,25.16397,31.518319845199585
1619376413.62617,49.36401,31.533949851989746
1619376413.64179,70.01062,31.549569845199585
1619376413.65742,86.87244,31.565199851989746
1619376413.67305,99.93814,31.580829858779907
1619376413.68867,109.2251,31.596449851989746
1619376413.7043,114.8124,31.612079858779907
1619376413.71992,116.9822,31.627699851989746
1619376413.73555,116.2992,31.643329858779907
1619376413.75117,113.5731,31.658949851989746
1619376413.7668,109.631,31.674579858779907
1619376413.78243,105.0983,31.69020986557007
1619376413.79805,100.2812,31.705829858779907
1619376413.81368,95.21143,31.72145986557007
1619376413.8293,89.82339,31.737079858779907
1619376413.84493,84.14178,31.75270986557007
1619376413.86055,78.32574,31.768329858779907
1619376413.87618,72.67407,31.78395986557007
1619376413.89181,67.46851,31.79958987236023
1619376413.90743,62.82281,31.81520986557007
1619376413.92306,58.63782,31.83083987236023
1619376413.93868,54.59659,31.84645986557007
1619376413.95431,50.31815,31.86208987236023
1619376413.96993,45.46423,31.87770986557007
1619376413.98556,39.86337,31.89333987236023
1619376414.00119,33.51389,31.90896987915039
1619376414.01681,26.54037,31.92458987236023
1619376414.03244,19.14755,31.94021987915039
1619376414.04806,11.56897,31.95583987236023
1619376414.06369,4.038147,31.97146987915039
1619376414.07931,-3.214447,31.98708987236023
1619376414.09494,-10.00912,32.00271987915039
1619376414.11057,-16.29263,32.01834988594055
1619376414.12619,-22.20056,32.03396987915039
1619376414.14182,-28.08704,32.04959988594055
1619376414.15744,-34.47318,32.06521987915039
1619376414.17307,-41.92142,32.08084988594055
1619376414.18869,-50.84357,32.09646987915039
1619376414.20432,-61.28232,32.11209988594055
1619376414.21995,-72.72107,32.12772989273071
1619376414.23557,-84.0426,32.14334988594055
1619376414.2512,-93.56946,32.15897989273071
1619376414.26682,-99.36746,32.17459988594055
1619376414.28245,-99.65744,32.19022989273071
1619376414.29808,-93.31345,32.205859899520874
1619376414.3137,-80.23505,32.22147989273071
1619376414.32933,-61.45303,32.237109899520874
1619376414.34495,-38.90234,32.25272989273071
1619376414.36058,-14.93112,32.268359899520874
1619376414.3762,8.238556,32.28397989273071
1619376414.39183,28.89093,32.299609899520874
1619376414.40746,45.9382,32.315239906311035
1619376414.42308,58.87283,32.330859899520874
1619376414.43871,67.57144,32.346489906311035
1619376414.45433,72.16943,32.362109899520874
1619376414.46996,73.0228,32.377739906311035
1619376414.48558,70.66928,32.393359899520874
1619376414.50121,65.875,32.408989906311035
1619376414.51684,59.5202,32.424619913101196
1619376414.53246,52.49747,32.440239906311035
1619376414.54809,45.59979,32.455869913101196
1619376414.56371,39.38385,32.471489906311035
1619376414.57934,34.14172,32.487119913101196
1619376414.59496,29.92239,32.502739906311035
1619376414.61059,26.54233,32.518369913101196
1619376414.62622,23.69406,32.53399991989136
1619376414.64184,21.06662,32.549619913101196
1619376414.65747,18.44925,32.56524991989136
1619376414.67309,15.81097,32.580869913101196
1619376414.68872,13.2598,32.59649991989136
1619376414.70434,10.96286,32.612119913101196
1619376414.71997,8.951843,32.62774991989136
1619376414.7356,7.080963,32.64337992668152
1619376414.75122,4.964874,32.65899991989136
1619376414.76685,2.151459,32.67462992668152
1619376414.78247,-1.713837,32.69024991989136
1619376414.7981,-6.716675,32.70587992668152
1619376414.81372,-12.61676,32.72149991989136
1619376414.82935,-18.97614,32.73712992668152
1619376414.84498,-25.29138,32.75275993347168
1619376414.8606,-31.2377,32.76837992668152
1619376414.87623,-36.67847,32.78400993347168
1619376414.89185,-41.70651,32.79962992668152
1619376414.90748,-46.60306,32.81525993347168
1619376414.9231,-51.80753,32.83087992668152
1619376414.93873,-57.84915,32.84650993347168
1619376414.95436,-65.18027,32.86213994026184
1619376414.96998,-73.93878,32.87775993347168
1619376414.98561,-83.6077,32.89338994026184
1619376415.00123,-92.88571,32.90900993347168
1619376415.01686,-99.77142,32.92463994026184
1619376415.03248,-102.0406,32.94025993347168
1619376415.04811,-97.8837,32.95588994026184
1619376415.06374,-86.55322,32.971519947052
1619376415.07936,-68.60983,32.98713994026184
1619376415.09499,-45.7381,33.002769947052
1619376415.11061,-20.26306,33.01838994026184
1619376415.12624,5.47467,33.034019947052
1619376415.14186,29.513,33.04963994026184
1619376415.15749,50.46393,33.065269947052
1619376415.17312,67.37964,33.08089995384216
1619376415.18874,79.61264,33.096519947052
1619376415.20437,86.71155,33.11214995384216
1619376415.21999,88.47311,33.127769947052
1619376415.23562,85.06689,33.14339995384216
1619376415.25124,77.16565,33.159019947052
1619376415.26687,65.94302,33.17464995384216
1619376415.2825,52.93121,33.190279960632324
1619376415.29812,39.74557,33.20589995384216
1619376415.31375,27.77786,33.221529960632324
1619376415.32937,17.94647,33.23714995384216
1619376415.345,10.63757,33.252779960632324
1619376415.36062,5.760742,33.26839995384216
1619376415.37625,2.957184,33.284029960632324
1619376415.39188,1.790924,33.299659967422485
1619376415.4075,1.877838,33.315279960632324
1619376415.42313,2.911224,33.330909967422485
1619376415.43875,4.620697,33.346529960632324
1619376415.45438,6.730255,33.362159967422485
1619376415.47,8.924072,33.377779960632324
1619376415.48563,10.88477,33.393409967422485
1619376415.50126,12.2959,33.40903997421265
1619376415.51688,12.91232,33.424659967422485
1619376415.53251,12.53644,33.44028997421265
1619376415.54813,11.08719,33.455909967422485
1619376415.56376,8.65509,33.47153997421265
1619376415.57938,5.472015,33.487159967422485
1619376415.59501,1.8862,33.50278997421265
1619376415.61064,-1.802643,33.51841998100281
1619376415.62626,-5.519073,33.53403997421265
1619376415.64189,-9.482635,33.54966998100281
1619376415.65751,-14.14368,33.56528997421265
1619376415.67314,-20.02069,33.58091998100281
1619376415.68876,-27.4566,33.59653997421265
1619376415.70439,-36.54568,33.61216998100281
1619376415.72002,-47.05795,33.62779998779297
1619376415.73564,-58.45685,33.64341998100281
1619376415.75127,-69.85541,33.65904998779297
1619376415.76689,-79.96249,33.67466998100281
1619376415.78252,-87.14899,33.69029998779297
1619376415.79814,-89.71375,33.70591998100281
1619376415.81377,-86.30743,33.72154998779297
1619376415.8294,-76.4462,33.73717999458313
1619376415.84502,-60.79352,33.75279998779297
1619376415.86065,-41.03281,33.76842999458313
1619376415.87627,-19.37372,33.78404998779297
1619376415.8919,2.078552,33.79967999458313
1619376415.90752,21.80469,33.81529998779297
1619376415.92315,39.04196,33.83092999458313
1619376415.93878,53.53064,33.84656000137329
1619376415.9544,65.18317,33.86217999458313
1619376415.97003,73.86249,33.87781000137329
1619376415.98565,79.34677,33.89342999458313
1619376416.00128,81.48138,33.90906000137329
1619376416.0169,80.45786,33.92467999458313
1619376416.03253,76.82187,33.94031000137329
1619376416.04816,71.43045,33.95594000816345
1619376416.06378,65.207,33.97156000137329
1619376416.07941,58.89044,33.98719000816345
1619376416.09503,52.93756,34.00281000137329
1619376416.11066,47.50967,34.01844000816345
1619376416.12628,42.60434,34.03406000137329
1619376416.14191,38.20755,34.04969000816345
1619376416.15754,34.37946,34.06532001495361
1619376416.17316,31.24448,34.08094000816345
1619376416.18879,28.91052,34.09657001495361
1619376416.20441,27.39536,34.11219000816345
1619376416.22004,26.53369,34.12782001495361
1619376416.23566,25.97083,34.14344000816345
1619376416.25129,25.26929,34.15907001495361
1619376416.26692,23.9809,34.174700021743774
1619376416.28254,21.79187,34.19032001495361
1619376416.29817,18.577,34.205950021743774
1619376416.31379,14.43497,34.22157001495361
1619376416.32942,9.630219,34.237200021743774
1619376416.34504,4.477844,34.25282001495361
1619376416.36067,-0.7601929,34.268450021743774
1619376416.3763,-5.98172,34.284080028533936
1619376416.39192,-11.26941,34.299700021743774
1619376416.40755,-16.89166,34.315330028533936
1619376416.42317,-23.2186,34.330950021743774
1619376416.4388,-30.62866,34.346580028533936
1619376416.45443,-39.42053,34.3622100353241
1619376416.47005,-49.66122,34.377830028533936
1619376416.48568,-61.02487,34.3934600353241
1619376416.5013,-72.67841,34.409080028533936
1619376416.51693,-83.20663,34.4247100353241
1619376416.53255,-90.80008,34.440330028533936
1619376416.54818,-93.56744,34.4559600353241
1619376416.56381,-90.10626,34.47159004211426
1619376416.57943,-79.91129,34.4872100353241
1619376416.59506,-63.58917,34.50284004211426
1619376416.61068,-42.76817,34.5184600353241
1619376416.62631,-19.67296,34.53409004211426
1619376416.64193,3.459671,34.5497100353241
1619376416.65756,24.83469,34.56534004211426
1619376416.67319,43.32382,34.58097004890442
1619376416.68881,58.41841,34.59659004211426
1619376416.70444,70.00546,34.61222004890442
1619376416.72006,78.14023,34.62784004211426
1619376416.73569,82.93231,34.64347004890442
1619376416.75131,84.58667,34.65909004211426
1619376416.76694,83.50415,34.67472004890442
1619376416.78257,80.32851,34.690349817276
1619376416.79819,75.86748,34.70597004890442
1619376416.81382,70.9231,34.721599817276
1619376416.82944,66.09143,34.73722004890442
1619376416.84507,61.60973,34.752849817276
1619376416.86069,57.41403,34.76847004890442
1619376416.87632,53.30743,34.784099817276
1619376416.89195,49.15808,34.79972982406616
1619376416.90757,45.00508,34.815349817276
1619376416.9232,41.06706,34.83097982406616
1619376416.93882,37.59393,34.846599817276
1619376416.95445,34.67937,34.86222982406616
1619376416.97007,32.16394,34.877849817276
1619376416.9857,29.64647,34.89347982406616
1619376417.00133,26.65097,34.90910983085632
1619376417.01695,22.77878,34.92472982406616
1619376417.03258,17.85054,34.94035983085632
1619376417.0482,11.98907,34.95597982406616
1619376417.06383,5.553024,34.97160983085632
1619376417.07945,-1.015625,34.98722982406616
1619376417.09508,-7.332123,35.00285983085632
1619376417.11071,-13.19655,35.018489837646484
1619376417.12633,-18.68004,35.03410983085632
1619376417.14196,-24.09346,35.049739837646484
1619376417.15758,-29.90539,35.06535983085632
1619376417.17321,-36.67642,35.080989837646484
1619376417.18883,-44.87264,35.09660983085632
1619376417.20446,-54.64869,35.112239837646484
1619376417.22009,-65.67079,35.127869844436646
1619376417.23571,-76.90136,35.143489837646484
1619376417.25134,-86.66434,35.159119844436646
1619376417.26696,-92.93445,35.174739837646484
1619376417.28259,-93.87589,35.190369844436646
1619376417.29821,-88.37434,35.205989837646484
1619376417.31384,-76.42681,35.221619844436646
1619376417.32947,-59.12688,35.23724985122681
1619376417.34509,-38.39745,35.252869844436646
1619376417.36072,-16.46816,35.26849985122681
1619376417.37634,4.605122,35.284119844436646
1619376417.39197,23.25237,35.29974985122681
1619376417.40759,38.43218,35.315369844436646
1619376417.42322,49.56515,35.33099985122681
1619376417.43885,56.46582,35.34662985801697
1619376417.45447,59.27739,35.36224985122681
1619376417.4701,58.45532,35.37787985801697
1619376417.48572,54.7505,35.39349985122681
1619376417.50135,49.10707,35.40912985801697
1619376417.51697,42.4845,35.42474985122681
1619376417.5326,35.65521,35.44037985801697
1619376417.54823,29.08168,35.45600986480713
1619376417.56385,22.91234,35.47162985801697
1619376417.57948,17.11703,35.48725986480713
1619376417.5951,11.65153,35.50287985801697
1619376417.61073,6.565522,35.51850986480713
1619376417.62635,2.013599,35.53412985801697
1619376417.64198,-1.84417,35.54975986480713
1619376417.65761,-4.97091,35.56538987159729
1619376417.67323,-7.533653,35.58100986480713
1619376417.68886,-9.85524,35.59663987159729
1619376417.70448,-12.31916,35.61225986480713
1619376417.72011,-15.24946,35.62788987159729
1619376417.73573,-18.79834,35.64350986480713
1619376417.75136,-22.99694,35.65913987159729
1619376417.76699,-27.74776,35.67476987838745
1619376417.78261,-32.90992,35.69038987159729
1619376417.79824,-38.28213,35.70601987838745
1619376417.81386,-43.67113,35.72163987159729
1619376417.82949,-48.86804,35.73726987838745
1619376417.84511,-53.7461,35.75288987159729
1619376417.86074,-58.32597,35.76851987838745
1619376417.87637,-62.84298,35.78414988517761
1619376417.89199,-67.72086,35.79976987838745
1619376417.90762,-73.44355,35.81539988517761
1619376417.92324,-80.32211,35.83101987838745
1619376417.93887,-88.23155,35.84664988517761
1619376417.95449,-96.35574,35.86226987838745
1619376417.97012,-103.2179,35.87789988517761
1619376417.98575,-106.9346,35.89352989196777
1619376418.00137,-105.7462,35.90914988517761
1619376418.017,-98.60093,35.92477989196777
1619376418.03262,-85.51404,35.94039988517761
1619376418.04825,-67.5713,35.95602989196777
1619376418.06387,-46.57576,35.97164988517761
1619376418.0795,-24.51077,35.98727989196777
1619376418.09513,-3.031181,36.002909898757935
1619376418.11075,16.70158,36.01852989196777
1619376418.12638,33.97268,36.034159898757935
1619376418.142,48.30225,36.04977989196777
1619376418.15763,59.24998,36.065409898757935
1619376418.17325,66.46629,36.08102989196777
1619376418.18888,69.87405,36.096659898757935
1619376418.20451,69.81097,36.112289905548096
1619376418.22013,67.08867,36.127909898757935
1619376418.23576,62.80579,36.143539905548096
1619376418.25138,58.02372,36.159159898757935
1619376418.26701,53.4793,36.174789905548096
1619376418.28263,49.43422,36.190409898757935
1619376418.29826,45.75941,36.206039905548096
1619376418.31389,42.15905,36.22166991233826
1619376418.32951,38.40346,36.237289905548096
1619376418.34514,34.50323,36.25291991233826
1619376418.36076,30.67455,36.268539905548096
1619376418.37639,27.20621,36.28416991233826
1619376418.39201,24.22133,36.299789905548096
1619376418.40764,21.55013,36.31541991233826
1619376418.42327,18.71068,36.33104991912842
1619376418.43889,15.05748,36.34666991233826
1619376418.45452,10.02691,36.36229991912842
1619376418.47014,3.391441,36.37791991233826
1619376418.48577,-4.634041,36.39354991912842
1619376418.50139,-13.4133,36.40916991233826
1619376418.51702,-22.11604,36.42479991912842
1619376418.53265,-30.00417,36.44042992591858
1619376418.54827,-36.66933,36.45604991912842
1619376418.5639,-42.16305,36.47167992591858
1619376418.57952,-46.9937,36.48729991912842
1619376418.59515,-51.94981,36.50292992591858
1619376418.61077,-57.89195,36.51854991912842
1619376418.6264,-65.52036,36.53417992591858
1619376418.64203,-75.08384,36.54980993270874
1619376418.65765,-86.18484,36.56542992591858
1619376418.67328,-97.63564,36.58105993270874
1619376418.6889,-107.5723,36.59667992591858
1619376418.70453,-113.7779,36.61230993270874
1619376418.72016,-114.2552,36.6279399394989
1619376418.73578,-107.8217,36.64355993270874
1619376418.75141,-94.48948,36.6591899394989
1619376418.76703,-75.46501,36.67480993270874
1619376418.78266,-52.80846,36.6904399394989
1619376418.79828,-28.79914,36.70605993270874
1619376418.81391,-5.410194,36.7216899394989
1619376418.82954,16.02763,36.73731994628906
1619376418.84516,34.84555,36.7529399394989
1619376418.86079,50.76426,36.76856994628906
1619376418.87641,63.66199,36.7841899394989
1619376418.89204,73.35448,36.79981994628906
1619376418.90766,79.66378,36.8154399394989
1619376418.92329,82.57615,36.83106994628906
1619376418.93892,82.41862,36.846699953079224
1619376418.95454,79.89281,36.86231994628906
1619376418.97017,75.95182,36.877949953079224
1619376418.98579,71.55177,36.89356994628906
1619376419.00142,67.38977,36.909199953079224
1619376419.01704,63.77244,36.92481994628906
1619376419.03267,60.65137,36.940449953079224
1619376419.0483,57.81068,36.956079959869385
1619376419.06392,55.08006,36.971699953079224
1619376419.07955,52.44273,36.987329959869385
1619376419.09517,49.99502,37.002949953079224
1619376419.1108,47.82827,37.018579959869385
1619376419.12642,45.86185,37.034199953079224
1619376419.14205,43.77636,37.049829959869385
1619376419.15768,41.09255,37.065459966659546
1619376419.1733,37.36199,37.081079959869385
1619376419.18893,32.31023,37.096709966659546
1619376419.20455,25.94061,37.112329959869385
1619376419.22018,18.51682,37.127959966659546
1619376419.2358,10.42482,37.143579959869385
1619376419.25143,2.039482,37.159209966659546
1619376419.26706,-6.315796,37.17483997344971
1619376419.28268,-14.45178,37.190459966659546
1619376419.29831,-22.2466,37.20608997344971
1619376419.31393,-29.71447,37.221709966659546
1619376419.32956,-37.07687,37.23733997344971
1619376419.34518,-44.76193,37.252959966659546
1619376419.36081,-53.32135,37.26858997344971
1619376419.37644,-63.11659,37.28421998023987
1619376419.39206,-73.96916,37.29983997344971
1619376419.40769,-84.84567,37.31546998023987
1619376419.42331,-93.91977,37.33108997344971
1619376419.43894,-98.9677,37.34671998023987
1619376419.45456,-97.99229,37.36233997344971
1619376419.47019,-89.90075,37.37796998023987
1619376419.48582,-74.83179,37.39359998703003
1619376419.50144,-54.1404,37.40921998023987
1619376419.51707,-29.9847,37.42484998703003
1619376419.53269,-4.82267,37.44046998023987
1619376419.54832,19.1178,37.45609998703003
1619376419.56394,40.0911,37.47171998023987
1619376419.57957,56.97166,37.48734998703003
1619376419.5952,69.21111,37.50297999382019
1619376419.61082,76.77982,37.51859998703003
1619376419.62645,80.12283,37.53422999382019
1619376419.64207,80.0912,37.54984998703003
1619376419.6577,77.74731,37.56547999382019
1619376419.67332,74.16156,37.58109998703003
1619376419.68895,70.15115,37.59672999382019
1619376419.70458,66.14548,37.61236000061035
1619376419.7202,62.19189,37.62797999382019
1619376419.73583,58.11601,37.64361000061035
1619376419.75145,53.71886,37.65922999382019
1619376419.76708,48.98225,37.67486000061035
1619376419.7827,44.09511,37.69047999382019
1619376419.79833,39.36287,37.70611000061035
1619376419.81396,35.02856,37.72174000740051
1619376419.82958,31.1602,37.73736000061035
1619376419.84521,27.59872,37.75299000740051
1619376419.86083,24.00974,37.76861000061035
1619376419.87646,20.0147,37.78424000740051
1619376419.89208,15.28252,37.79986000061035
1619376419.90771,9.598251,37.81549000740051
1619376419.92334,2.912552,37.831120014190674
1619376419.93896,-4.659897,37.84674000740051
1619376419.95459,-12.8787,37.862370014190674
1619376419.97021,-21.44712,37.87799000740051
1619376419.98584,-30.10867,37.893620014190674
1619376420.00146,-38.71249,37.90924000740051
1619376420.01709,-47.24025,37.924870014190674
1619376420.03272,-55.82478,37.940500020980835
1619376420.04834,-64.68109,37.956120014190674
1619376420.06397,-74.09837,37.971750020980835
1619376420.07959,-84.27946,37.987370014190674
1619376420.09522,-95.1845,38.003000020980835
1619376420.11084,-106.3334,38.018620014190674
1619376420.12647,-116.6278,38.034250020980835
1619376420.1421,-124.4078,38.049880027770996
1619376420.15772,-127.765,38.065500020980835
1619376420.17335,-125.008,38.081130027770996
1619376420.18897,-115.2462,38.096750020980835
1619376420.2046,-98.73808,38.112380027770996
1619376420.22022,-76.89219,38.128000020980835
1619376420.23585,-51.95822,38.143630027770996
1619376420.25148,-26.44794,38.15926003456116
1619376420.2671,-2.628746,38.174880027770996
1619376420.28273,17.88371,38.19051003456116
1619376420.29835,34.18382,38.206130027770996
1619376420.31398,45.98642,38.22176003456116
1619376420.3296,53.44628,38.237380027770996
1619376420.34523,56.98335,38.25301003456116
1619376420.36086,57.23753,38.26864004135132
1619376420.37648,54.99312,38.28426003456116
1619376420.39211,51.1814,38.29989004135132
1619376420.40773,46.7328,38.31551003456116
1619376420.42336,42.40119,38.33114004135132
1619376420.43898,38.62407,38.34676003456116
1619376420.45461,35.42566,38.36239004135132
1619376420.47024,32.54559,38.37802004814148
1619376420.48586,29.61835,38.39364004135132
1619376420.50149,26.44164,38.40927004814148
1619376420.51711,23.07439,38.42489004135132
1619376420.53274,19.81227,38.44052004814148
1619376420.54836,16.9823,38.45614004135132
1619376420.56399,14.69998,38.47177004814148
1619376420.57962,12.77226,38.48739981651306
1619376420.59524,10.69521,38.50302004814148
1619376420.61087,7.886917,38.51864981651306
1619376420.62649,3.903984,38.53427004814148
1619376420.64212,-1.378578,38.54989981651306
1619376420.65774,-7.803749,38.56552004814148
1619376420.67337,-14.97571,38.58114981651306
1619376420.689,-22.47626,38.59677982330322
1619376420.70462,-29.99574,38.61239981651306
1619376420.72025,-37.38207,38.62802982330322
1619376420.73587,-44.67583,38.64364981651306
1619376420.7515,-52.05239,38.65927982330322
1619376420.76712,-59.85,38.67489981651306
1619376420.78275,-68.50658,38.69052982330322
1619376420.79838,-78.43941,38.706159830093384
1619376420.814,-89.77582,38.72177982330322
1619376420.82963,-102.0818,38.737409830093384
1619376420.84525,-114.141,38.75302982330322
1619376420.86088,-123.9677,38.768659830093384
1619376420.8765,-129.2371,38.78427982330322
1619376420.89213,-127.9203,38.799909830093384
1619376420.90776,-118.9029,38.815539836883545
1619376420.92338,-102.3922,38.831159830093384
1619376420.93901,-79.87164,38.846789836883545
1619376420.95463,-53.63699,38.862409830093384
1619376420.97026,-26.19989,38.878039836883545
1619376420.98588,0.27491,38.893659830093384
1619376421.00151,24.25248,38.909289836883545
1619376421.01714,44.80412,38.924919843673706
1619376421.03276,61.46255,38.940539836883545
1619376421.04839,74.05917,38.956169843673706
1619376421.06401,82.63829,38.971789836883545
1619376421.07964,87.48161,38.987419843673706
1619376421.09526,89.12923,39.003039836883545
1619376421.11089,88.35945,39.018669843673706
1619376421.12652,86.06248,39.03429985046387
1619376421.14214,83.07323,39.049919843673706
1619376421.15777,80.02631,39.06554985046387
1619376421.17339,77.21959,39.081169843673706
1619376421.18902,74.65816,39.09679985046387
1619376421.20464,72.11396,39.112419843673706
1619376421.22027,69.30093,39.12804985046387
1619376421.2359,66.06089,39.14367985725403
1619376421.25152,62.51711,39.15929985046387
1619376421.26715,59.04211,39.17492985725403
1619376421.28277,56.14952,39.19054985046387
1619376421.2984,54.23539,39.20617985725403
1619376421.31403,53.32411,39.22180986404419
1619376421.32965,52.9568,39.23742985725403
1619376421.34528,52.203,39.25305986404419
1619376421.3609,49.98345,39.26867985725403
1619376421.37653,45.42036,39.28430986404419
1619376421.39215,38.20865,39.29992985725403
1619376421.40778,28.70684,39.31555986404419
1619376421.42341,17.79768,39.33118987083435
1619376421.43903,6.470684,39.34680986404419
1619376421.45466,-4.570541,39.36243987083435
1619376421.47028,-15.13495,39.37805986404419
1619376421.48591,-25.55986,39.39368987083435
1619376421.50153,-36.468,39.40930986404419
1619376421.51716,-48.53599,39.42493987083435
1619376421.53279,-62.19909,39.44056987762451
1619376421.54841,-77.46965,39.45618987083435
1619376421.56404,-93.77193,39.47181987762451
1619376421.57966,-109.814,39.48743987083435
1619376421.59529,-123.6041,39.50306987762451
1619376421.61091,-132.7112,39.51868987083435
1619376421.62654,-134.8294,39.53431987762451
1619376421.64217,-128.4375,39.54994988441467
1619376421.65779,-113.39,39.56556987762451
1619376421.67342,-91.02346,39.58119988441467
1619376421.68904,-63.79879,39.59681987762451
1619376421.70467,-34.60152,39.61244988441467
1619376421.72029,-6.011444,39.62806987762451
1619376421.73592,20.09772,39.64369988441467
1619376421.75155,42.65202,39.659329891204834
1619376421.76717,61.09913,39.67494988441467
1619376421.7828,75.21724,39.690579891204834
1619376421.79842,84.97501,39.70619988441467
1619376421.81405,90.55159,39.721829891204834
1619376421.82967,92.47833,39.73744988441467
1619376421.8453,91.6186,39.753079891204834
1619376421.86093,89.02876,39.768709897994995
1619376421.87655,85.72172,39.784329891204834
1619376421.89218,82.42616,39.799959897994995
1619376421.9078,79.48793,39.815579891204834
1619376421.92343,76.89565,39.831209897994995
1619376421.93905,74.44859,39.846829891204834
1619376421.95468,71.8965,39.862459897994995
1619376421.97031,69.0808,39.878089904785156
1619376421.98593,65.98472,39.893709897994995
1619376422.00156,62.70653,39.909339904785156
1619376422.01718,59.37541,39.924959897994995
1619376422.03281,56.07238,39.940589904785156
1619376422.04843,52.77106,39.956209897994995
1619376422.06406,49.25548,39.971839904785156
1619376422.07969,45.17062,39.98746991157532
1619376422.09531,40.10126,40.003089904785156
1619376422.11094,33.73551,40.01871991157532
1619376422.12656,26.01025,40.034339904785156
1619376422.14219,17.2132,40.04996991157532
1619376422.15781,7.901665,40.065589904785156
1619376422.17344,-1.296242,40.08121991157532
1619376422.18907,-9.878059,40.09684991836548
1619376422.20469,-17.67819,40.11246991157532
1619376422.22032,-24.86597,40.12809991836548
1619376422.23594,-31.8721,40.14371991157532
1619376422.25157,-39.24548,40.15934991836548
1619376422.26719,-47.50039,40.17496991157532
1619376422.28282,-57.03462,40.19059991836548
1619376422.29845,-67.94894,40.20622992515564
1619376422.31407,-79.88941,40.22184991836548
1619376422.3297,-91.82129,40.23747992515564
1619376422.34532,-102.0205,40.25309991836548
1619376422.36095,-108.2708,40.26872992515564
1619376422.37657,-108.4213,40.28434991836548
1619376422.3922,-101.0567,40.29997992515564
1619376422.40783,-86.05272,40.3156099319458
1619376422.42345,-64.706,40.33122992515564
1619376422.43908,-39.36375,40.3468599319458
1619376422.4547,-12.80047,40.36247992515564
1619376422.47033,12.55145,40.3781099319458
1619376422.48595,35.03634,40.39372992515564
1619376422.50158,53.87182,40.4093599319458
1619376422.51721,68.85237,40.42498993873596
1619376422.53283,80.00382,40.4406099319458
1619376422.54846,87.36285,40.45623993873596
1619376422.56408,90.97903,40.4718599319458
1619376422.57971,91.10531,40.48748993873596
1619376422.59533,88.38958,40.5031099319458
1619376422.61096,83.90462,40.51873993873596
1619376422.62659,78.90396,40.53436994552612
1619376422.64221,74.46102,40.54998993873596
1619376422.65784,71.11245,40.56561994552612
1619376422.67346,68.7226,40.58123993873596
1619376422.68909,66.70072,40.59686994552612
1619376422.70471,64.35364,40.61248993873596
1619376422.72034,61.27994,40.62811994552612
1619376422.73597,57.56894,40.643749952316284
1619376422.75159,53.73388,40.65936994552612
1619376422.76722,50.40404,40.674999952316284
1619376422.78284,47.96798,40.69061994552612
1619376422.79847,46.37022,40.706249952316284
1619376422.81409,45.09737,40.72186994552612
1619376422.82972,43.41973,40.737499952316284
1619376422.84535,40.69394,40.753129959106445
1619376422.86097,36.61665,40.768749952316284
1619376422.8766,31.26093,40.784379959106445
1619376422.89222,24.95852,40.799999952316284
1619376422.90785,18.05977,40.815629959106445
1619376422.92347,10.80794,40.831249952316284
1619376422.9391,3.304941,40.846879959106445
1619376422.95473,-4.458174,40.862509965896606
1619376422.97035,-12.51026,40.878129959106445
1619376422.98598,-20.93083,40.893759965896606
1619376423.0016,-29.99378,40.909379959106445
1619376423.01723,-40.18199,40.925009965896606
1619376423.03285,-52.05723,40.940629959106445
1619376423.04848,-65.87273,40.956259965896606
1619376423.06411,-81.05538,40.97188997268677
1619376423.07973,-95.91739,40.987509965896606
1619376423.09536,-107.8066,41.00313997268677
1619376423.11098,-113.7585,41.018759965896606
1619376423.12661,-111.4677,41.03438997268677
1619376423.14223,-100.1965,41.050009965896606
1619376423.15786,-81.19222,41.06563997268677
1619376423.17349,-57.47181,41.08126997947693
1619376423.18911,-33.01151,41.09688997268677
1619376423.20474,-11.65093,41.11251997947693
1619376423.22036,3.900269,41.12813997268677
1619376423.23599,12.69228,41.14376997947693
1619376423.25161,15.58503,41.15938997268677
1619376423.26724,14.76623,41.17501997947693
1619376423.28287,12.95396,41.19064998626709
1619376423.29849,12.52827,41.20626997947693
1619376423.31412,14.91381,41.22189998626709
1619376423.32974,20.29838,41.23751997947693
1619376423.34537,27.75071,41.25314998626709
1619376423.36099,35.59371,41.26876997947693
1619376423.37662,41.93059,41.28439998626709
1619376423.39225,45.2225,41.30002999305725
1619376423.40787,44.82143,41.31564998626709
1619376423.4235,41.35951,41.33127999305725
1619376423.43912,36.78929,41.34689998626709
1619376423.45475,33.92987,41.36252999305725
1619376423.47037,35.59114,41.37814998626709
1619376423.486,43.46596,41.39377999305725
1619376423.50163,57.30339,41.40940999984741
1619376423.51725,74.62227,41.42502999305725
1619376423.53288,91.22832,41.44065999984741
1619376423.5485,102.3792,41.45627999305725
1619376423.56413,104.2843,41.47190999984741
1619376423.57976,95.4545,41.48754000663757
1619376423.59538,77.41528,41.50315999984741
1619376423.61101,54.61467,41.51879000663757
1619376423.62663,33.29741,41.53440999984741
1619376423.64226,19.68846,41.55004000663757
1619376423.65788,17.99818,41.56565999984741
1619376423.67351,28.9762,41.58129000663757
1619376423.68914,49.80109,41.596920013427734
1619376423.70476,75.28903,41.61254000663757
1619376423.72039,99.9467,41.628170013427734
1619376423.73601,119.8672,41.64379000663757
1619376423.75164,133.4517,41.659420013427734
1619376423.76726,140.8172,41.67504000663757
1619376423.78289,142.5287,41.690670013427734
1619376423.79852,138.5976,41.706300020217896
1619376423.81414,128.4675,41.721920013427734
1619376423.82977,111.9715,41.737550020217896
1619376423.84539,90.40329,41.753170013427734
1619376423.86102,66.79034,41.768800020217896
1619376423.87664,44.98798,41.784420013427734
1619376423.89227,28.11777,41.800050020217896
1619376423.9079,17.04956,41.81568002700806
1619376423.92352,10.05267,41.831300020217896
1619376423.93915,3.529236,41.84693002700806
1619376423.95477,-6.498962,41.862550020217896
1619376423.9704,-23.21466,41.87818002700806
1619376423.98602,-48.43085,41.893800020217896
1619376424.00165,-82.63474,41.90943002700806
1619376424.01728,-125.0957,41.92506003379822
1619376424.0329,-173.595,41.94068002700806
1619376424.04853,-224.2442,41.95631003379822
1619376424.06415,-271.558,41.97193002700806
1619376424.07978,-309.3457,41.98756003379822
1619376424.0954,-332.2646,42.00318002700806
1619376424.11103,-337.3787,42.01881003379822
1619376424.12666,-325.0313,42.03444004058838
1619376424.14228,-298.6126,42.05006003379822
1619376424.15791,-263.3549,42.06569004058838
1619376424.17353,-224.7436,42.08131003379822
1619376424.18916,-187.3563,42.09694004058838
1619376424.20478,-154.2818,42.11256003379822
1619376424.22041,-127.1931,42.12819004058838
1619376424.23604,-106.6464,42.14382004737854
1619376424.25166,-92.3511,42.15944004058838
1619376424.26729,-83.3479,42.17507004737854
1619376424.28291,-78.14386,42.19069004058838
1619376424.29854,-75.03085,42.20632004737854
1619376424.31416,-72.4968,42.22194004058838
1619376424.32979,-69.60651,42.23757004737854
1619376424.34542,-66.1452,42.25319981575012
1619376424.36104,-62.55338,42.26882004737854
1619376424.37667,-59.71915,42.28444981575012
1619376424.39229,-58.53006,42.30007004737854
1619376424.40792,-59.64423,42.31569981575012
1619376424.42354,-63.26025,42.33132004737854
1619376424.43917,-69.17181,42.34694981575012
1619376424.4548,-76.98099,42.36257982254028
1619376424.47042,-86.31622,42.37819981575012
1619376424.48605,-96.94522,42.39382982254028
1619376424.50167,-108.6313,42.40944981575012
1619376424.5173,-120.8012,42.42507982254028
1619376424.53292,-132.2353,42.44069981575012
1619376424.54855,-141.0227,42.45632982254028
1619376424.56418,-144.9072,42.471959829330444
1619376424.5798,-141.9325,42.48757982254028
1619376424.59543,-131.1066,42.503209829330444
1619376424.61105,-112.7901,42.51882982254028
1619376424.62668,-88.61426,42.534459829330444
1619376424.6423,-60.94556,42.55007982254028
1619376424.65793,-32.22311,42.565709829330444
1619376424.67356,-4.347351,42.581339836120605
1619376424.68918,21.5108,42.596959829330444
1619376424.70481,44.75914,42.612589836120605
1619376424.72043,65.10379,42.628209829330444
1619376424.73606,82.30644,42.643839836120605
1619376424.75168,96.14468,42.659459829330444
1619376424.76731,106.5665,42.675089836120605
1619376424.78294,113.8566,42.69071984291077
1619376424.79856,118.6997,42.706339836120605
1619376424.81419,121.9681,42.72196984291077
1619376424.82981,124.4619,42.737589836120605
1619376424.84544,126.6334,42.75321984291077
1619376424.86106,128.461,42.768839836120605
1619376424.87669,129.554,42.78446984291077
1619376424.89232,129.496,42.80009984970093
1619376424.90794,128.125,42.81571984291077
1619376424.92357,125.6433,42.83134984970093
1619376424.93919,122.5691,42.84696984291077
1619376424.95482,119.4274,42.86259984970093
1619376424.97044,116.5597,42.87821984291077
1619376424.98607,113.9676,42.89384984970093
1619376425.0017,111.3448,42.90947985649109
1619376425.01732,108.1936,42.92509984970093
1619376425.03295,104.0186,42.94072985649109
1619376425.04857,98.42833,42.95634984970093
1619376425.0642,91.20574,42.97197985649109
1619376425.07982,82.32967,42.98759984970093
1619376425.09545,71.98936,43.00322985649109
1619376425.11108,60.55001,43.01885986328125
1619376425.1267,48.43047,43.03447985649109
1619376425.14233,35.99433,43.05010986328125
1619376425.15795,23.45249,43.06572985649109
1619376425.17358,10.81233,43.08135986328125
1619376425.1892,-2.061964,43.09697985649109
1619376425.20483,-15.40232,43.11260986328125
1619376425.22046,-29.39764,43.12823987007141
1619376425.23608,-44.06488,43.14385986328125
1619376425.25171,-59.08107,43.15948987007141
1619376425.26733,-73.60471,43.17510986328125
1619376425.28296,-86.21042,43.19073987007141
1619376425.29858,-94.97053,43.20635986328125
1619376425.31421,-97.90199,43.22198987007141
1619376425.32984,-93.54263,43.23761987686157
1619376425.34546,-81.52913,43.25323987007141
1619376425.36109,-62.79845,43.26886987686157
1619376425.37671,-39.41681,43.28448987007141
1619376425.39234,-13.98739,43.30011987686157
1619376425.40796,11.04083,43.31573987007141
1619376425.42359,33.82467,43.33136987686157
1619376425.43922,53.28658,43.34699988365173
1619376425.45484,68.88466,43.36261987686157
1619376425.47047,80.40724,43.37824988365173
1619376425.48609,87.80257,43.39386987686157
1619376425.50172,91.22198,43.40949988365173
1619376425.51734,91.13044,43.42511987686157
1619376425.53297,88.33659,43.44074988365173
1619376425.5486,83.8787,43.456379890441895
1619376425.56422,78.80588,43.47199988365173
1619376425.57985,73.85316,43.487629890441895
1619376425.59547,69.34155,43.50324988365173
1619376425.6111,65.17384,43.518879890441895
1619376425.62672,61.02694,43.53449988365173
1619376425.64235,56.56268,43.550129890441895
1619376425.65798,51.6073,43.565759897232056
1619376425.6736,46.25314,43.581379890441895
1619376425.68923,40.79563,43.597009897232056
1619376425.70485,35.60035,43.612629890441895
1619376425.72048,30.93906,43.628259897232056
1619376425.7361,26.8348,43.643879890441895
1619376425.75173,23.01548,43.659509897232056
1619376425.76736,19.04369,43.67513990402222
1619376425.78298,14.48571,43.690759897232056
1619376425.79861,9.190407,43.70638990402222
1619376425.81423,3.339359,43.722009897232056
1619376425.82986,-2.600471,43.73763990402222
1619376425.84548,-8.181221,43.753259897232056
1619376425.86111,-13.23928,43.76888990402222
1619376425.87674,-18.11766,43.78451991081238
1619376425.89236,-23.57336,43.80013990402222
1619376425.90799,-30.55899,43.81576991081238
1619376425.92361,-39.83241,43.83138990402222
1619376425.93924,-51.63741,43.84701991081238
1619376425.95486,-65.55965,43.86263990402222
1619376425.97049,-80.49133,43.87826991081238
1619376425.98612,-94.76202,43.89389991760254
1619376426.00174,-106.3401,43.90951991081238
1619376426.01737,-113.1565,43.92514991760254
1619376426.03299,-113.5139,43.94076991081238
1619376426.04862,-106.5252,43.95639991760254
1619376426.06424,-92.34375,43.97201991081238
1619376426.07987,-72.19638,43.98764991760254
1619376426.0955,-48.02937,44.0032799243927
1619376426.11112,-22.0221,44.01889991760254
1619376426.12675,3.921558,44.0345299243927
1619376426.14237,28.42365,44.05014991760254
1619376426.158,50.56903,44.0657799243927
1619376426.17363,69.66659,44.08140993118286
1619376426.18925,85.03679,44.0970299243927
1619376426.20488,95.97702,44.11265993118286
1619376426.2205,101.9176,44.1282799243927
1619376426.23613,102.7057,44.14390993118286
1619376426.25175,98.84631,44.1595299243927
1619376426.26738,91.45963,44.17515993118286
1619376426.28301,82.0451,44.19078993797302
1619376426.29863,72.12889,44.20640993118286
1619376426.31426,62.87709,44.22203993797302
1619376426.32988,54.91465,44.23765993118286
1619376426.34551,48.35373,44.25328993797302
1619376426.36113,42.93792,44.26890993118286
1619376426.37676,38.32963,44.28453993797302
1619376426.39239,34.2762,44.300169944763184
1619376426.40801,30.63003,44.31578993797302
1619376426.42364,27.30412,44.331419944763184
1619376426.43926,24.12646,44.34703993797302
1619376426.45489,20.74268,44.362669944763184
1619376426.47051,16.67141,44.37828993797302
1619376426.48614,11.48582,44.393919944763184
