timestamp,value,norm_ts
1617990611.46048,8.854218,0.5694799423217773
1617990611.4761,5.300354,0.5850999355316162
1617990611.49173,2.142212,0.6007299423217773
1617990611.50736,-0.7550964,0.6163599491119385
1617990611.52298,-3.601135,0.6319799423217773
1617990611.53861,-6.843079,0.6476099491119385
1617990611.55423,-10.95496,0.6632299423217773
1617990611.56986,-16.35635,0.6788599491119385
1617990611.58548,-23.2106,0.6944799423217773
1617990611.60111,-31.17853,0.7101099491119385
1617990611.61674,-39.40622,0.7257399559020996
1617990611.63236,-46.70276,0.7413599491119385
1617990611.64799,-51.77203,0.7569899559020996
1617990611.66361,-53.55566,0.7726099491119385
1617990611.67924,-51.52148,0.7882399559020996
1617990611.69486,-45.87201,0.8038599491119385
1617990611.71049,-37.45331,0.8194899559020996
1617990611.72612,-27.72638,0.8351199626922607
1617990611.74174,-18.35846,0.8507399559020996
1617990611.75737,-10.9621,0.8663699626922607
1617990611.77299,-6.668579,0.8819899559020996
1617990611.78862,-5.921204,0.8976199626922607
1617990611.80424,-8.399353,0.9132399559020996
1617990611.81987,-13.33606,0.9288699626922607
1617990611.8355,-19.70746,0.9444999694824219
1617990611.85112,-26.66779,0.9601199626922607
1617990611.86675,-33.55005,0.9757499694824219
1617990611.88237,-39.76099,0.9913699626922607
1617990611.898,-44.771,1.0069999694824219
1617990611.91362,-48.06726,1.0226199626922607
1617990611.92925,-49.20911,1.0382499694824219
1617990611.94488,-48.11469,1.053879976272583
1617990611.9605,-45.12378,1.0694999694824219
1617990611.97613,-40.84875,1.085129976272583
1617990611.99175,-35.98871,1.1007499694824219
1617990612.00738,-30.96912,1.116379976272583
1617990612.023,-25.79639,1.1319999694824219
1617990612.03863,-20.25977,1.147629976272583
1617990612.05426,-14.24384,1.1632599830627441
1617990612.06988,-7.896851,1.178879976272583
1617990612.08551,-1.824585,1.1945099830627441
1617990612.10113,3.096252,1.210129976272583
1617990612.11676,5.886353,1.2257599830627441
1617990612.13238,5.815002,1.241379976272583
1617990612.14801,2.497559,1.2570099830627441
1617990612.16364,-3.966553,1.2726399898529053
1617990612.17926,-12.89459,1.2882599830627441
1617990612.19489,-23.31696,1.3038899898529053
1617990612.21051,-34.11652,1.3195099830627441
1617990612.22614,-44.49927,1.3351399898529053
1617990612.24176,-54.21674,1.3507599830627441
1617990612.25739,-63.66492,1.3663899898529053
1617990612.27302,-73.61047,1.3820199966430664
1617990612.28864,-84.65967,1.3976399898529053
1617990612.30427,-96.72205,1.4132699966430664
1617990612.31989,-108.7161,1.4288899898529053
1617990612.33552,-118.8442,1.4445199966430664
1617990612.35114,-125.2639,1.4601399898529053
1617990612.36677,-126.7686,1.4757699966430664
1617990612.3824,-123.3036,1.4914000034332275
1617990612.39802,-115.8903,1.5070199966430664
1617990612.41365,-106.383,1.5226500034332275
1617990612.42927,-96.61017,1.5382699966430664
1617990612.4449,-88.01129,1.5539000034332275
1617990612.46052,-80.89648,1.5695199966430664
1617990612.47615,-74.36865,1.5851500034332275
1617990612.49178,-66.89459,1.6007800102233887
1617990612.5074,-57.11682,1.6164000034332275
1617990612.52303,-44.453,1.6320300102233887
1617990612.53865,-29.47675,1.6476500034332275
1617990612.55428,-13.50708,1.6632800102233887
1617990612.5699,1.891724,1.6789000034332275
1617990612.58553,15.21704,1.6945300102233887
1617990612.60116,25.50562,1.7101600170135498
1617990612.61678,32.44183,1.7257800102233887
1617990612.63241,36.04242,1.7414100170135498
1617990612.64803,36.42529,1.7570300102233887
1617990612.66366,33.80457,1.7726600170135498
1617990612.67929,28.61755,1.788290023803711
1617990612.69491,21.82434,1.8039100170135498
1617990612.71054,14.76373,1.819540023803711
1617990612.72616,8.242493,1.8351600170135498
1617990612.74179,2.800903,1.850790023803711
1617990612.75741,-1.269531,1.8664100170135498
1617990612.77304,-3.951172,1.882040023803711
1617990612.78867,-5.494751,1.897670030593872
1617990612.80429,-5.98114,1.913290023803711
1617990612.81992,-5.62085,1.928920030593872
1617990612.83554,-4.311218,1.944540023803711
1617990612.85117,-1.844543,1.960170030593872
1617990612.86679,0.1516724,1.975790023803711
1617990612.88242,0.2873535,1.991420030593872
1617990612.89805,-1.699036,2.007050037384033
1617990612.91367,-4.978516,2.022670030593872
1617990612.9293,-8.537598,2.038300037384033
1617990612.94492,-11.12366,2.053920030593872
1617990612.96055,-12.80164,2.069550037384033
1617990612.97617,-13.68848,2.085170030593872
1617990612.9918,-13.7063,2.100800037384033
1617990613.00743,-16.09363,2.1164300441741943
1617990613.02305,-23.06616,2.132050037384033
1617990613.03868,-34.31073,2.1476800441741943
1617990613.0543,-47.59448,2.163300037384033
1617990613.06993,-60.92188,2.1789300441741943
1617990613.08555,-72.28516,2.194550037384033
1617990613.10118,-82.60535,2.2101800441741943
1617990613.11681,-92.52881,2.2258100509643555
1617990613.13243,-101.8961,2.2414300441741943
1617990613.14806,-115.4667,2.2570600509643555
1617990613.16368,-136.6064,2.2726800441741943
1617990613.17931,-164.52,2.2883100509643555
1617990613.19493,-195.1362,2.3039300441741943
1617990613.21056,-224.4856,2.3195600509643555
1617990613.22619,-248.4017,2.3351900577545166
1617990613.24181,-267.6328,2.3508100509643555
1617990613.25744,-283.2869,2.3664400577545166
1617990613.27306,-296.0305,2.3820600509643555
1617990613.28869,-313.3286,2.3976900577545166
1617990613.30431,-340.6168,2.4133100509643555
1617990613.31994,-376.9556,2.4289400577545166
1617990613.33557,-416.2983,2.4445700645446777
1617990613.35119,-452.3265,2.4601900577545166
1617990613.36682,-479.2767,2.4758200645446777
1617990613.38244,-499.1925,2.4914400577545166
1617990613.39807,-516.1855,2.5070700645446777
1617990613.41369,-490.2077,2.5226900577545166
1617990613.42932,-404.6738,2.5383200645446777
1617990613.44495,-275.0089,2.553950071334839
1617990613.46057,-136.9633,2.5695700645446777
1617990613.4762,-19.52972,2.585200071334839
1617990613.49182,50.46329,2.6008200645446777
1617990613.50745,89.19595,2.616450071334839
1617990613.52307,109.9901,2.6320700645446777
1617990613.5387,120.5992,2.647700071334839
1617990613.55433,124.7298,2.663330078125
1617990613.56995,123.1459,2.678950071334839
1617990613.58558,113.8585,2.694580078125
1617990613.6012,99.43097,2.710200071334839
1617990613.61683,86.24837,2.725830078125
1617990613.63245,80.27724,2.741450071334839
1617990613.64808,86.85164,2.757080078125
1617990613.66371,103.7353,2.772710084915161
1617990613.67933,126.9952,2.788330078125
1617990613.69496,152.5134,2.803960084915161
1617990613.71058,170.9425,2.819580078125
1617990613.72621,174.7794,2.835210084915161
1617990613.74183,163.0194,2.850830078125
1617990613.75746,140.5437,2.866460084915161
1617990613.77309,114.5623,2.882089853286743
1617990613.78871,93.55585,2.897710084915161
1617990613.80434,80.65634,2.913339853286743
1617990613.81996,76.97957,2.928960084915161
1617990613.83559,82.03101,2.944589853286743
1617990613.85121,90.5195,2.960210084915161
1617990613.86684,96.89738,2.975839853286743
1617990613.88247,99.28284,2.9914698600769043
1617990613.89809,98.92583,3.007089853286743
1617990613.91372,98.14302,3.0227198600769043
1617990613.92934,99.86697,3.038339853286743
1617990613.94497,104.0339,3.0539698600769043
1617990613.96059,110.608,3.069589853286743
1617990613.97622,120.2865,3.0852198600769043
1617990613.99185,132.6071,3.1008498668670654
1617990614.00747,146.6979,3.1164698600769043
1617990614.0231,161.5147,3.1320998668670654
1617990614.03872,174.77,3.1477198600769043
1617990614.05435,182.5273,3.1633498668670654
1617990614.06997,181.1578,3.1789698600769043
1617990614.0856,167.9295,3.1945998668670654
1617990614.10123,143.8372,3.2102298736572266
1617990614.11685,113.3816,3.2258498668670654
1617990614.13248,81.81744,3.2414798736572266
1617990614.1481,52.85114,3.2570998668670654
1617990614.16373,27.4696,3.2727298736572266
1617990614.17935,3.692261,3.2883498668670654
1617990614.19498,-21.76593,3.3039798736572266
1617990614.21061,-50.98926,3.3196098804473877
1617990614.22623,-83.75031,3.3352298736572266
1617990614.24186,-116.9396,3.3508598804473877
1617990614.25748,-146.18,3.3664798736572266
1617990614.27311,-167.9929,3.3821098804473877
1617990614.28873,-181.3707,3.3977298736572266
1617990614.30436,-187.7713,3.4133598804473877
1617990614.31999,-189.8295,3.428989887237549
1617990614.33561,-189.7819,3.4446098804473877
1617990614.35124,-188.3293,3.460239887237549
1617990614.36686,-184.897,3.4758598804473877
1617990614.38249,-178.3107,3.491489887237549
1617990614.39811,-168.0208,3.5071098804473877
1617990614.41374,-154.5791,3.522739887237549
1617990614.42937,-139.3208,3.53836989402771
1617990614.44499,-123.45,3.553989887237549
1617990614.46062,-107.4174,3.56961989402771
1617990614.47624,-90.88086,3.585239887237549
1617990614.49187,-73.24902,3.60086989402771
1617990614.50749,-54.35181,3.616489887237549
1617990614.52312,-34.74915,3.63211989402771
1617990614.53875,-15.57861,3.647749900817871
1617990614.55437,1.900024,3.66336989402771
1617990614.57,16.84778,3.678999900817871
1617990614.58562,29.09106,3.69461989402771
1617990614.60125,39.01746,3.710249900817871
1617990614.61687,47.32971,3.72586989402771
1617990614.6325,54.75769,3.741499900817871
1617990614.64813,61.92981,3.7571299076080322
1617990614.66375,69.2865,3.772749900817871
1617990614.67938,76.91174,3.7883799076080322
1617990614.695,84.52368,3.803999900817871
1617990614.71063,91.51257,3.8196299076080322
1617990614.72625,97.20337,3.835249900817871
1617990614.74188,101.1791,3.8508799076080322
1617990614.75751,103.5979,3.8665099143981934
1617990614.77313,105.2848,3.8821299076080322
1617990614.78876,107.6333,3.8977599143981934
1617990614.80438,112.1694,3.9133799076080322
1617990614.82001,120.1538,3.9290099143981934
1617990614.83563,132.2931,3.9446299076080322
1617990614.85126,148.6169,3.9602599143981934
1617990614.86689,168.5045,3.9758899211883545
1617990614.88251,190.6909,3.9915099143981934
1617990614.89814,213.316,4.0071399211883545
1617990614.91376,233.9207,4.022759914398193
1617990614.92939,249.6945,4.0383899211883545
1617990614.94501,257.8987,4.054009914398193
1617990614.96064,256.5524,4.0696399211883545
1617990614.97627,244.9897,4.085269927978516
1617990614.99189,223.996,4.1008899211883545
1617990615.00752,195.4949,4.116519927978516
1617990615.02314,162.1367,4.1321399211883545
1617990615.03877,126.9998,4.147769927978516
1617990615.05439,93.25085,4.1633899211883545
1617990615.07002,63.45361,4.179019927978516
1617990615.08565,39.02527,4.194649934768677
1617990615.10127,19.49524,4.210269927978516
1617990615.1169,2.416016,4.225899934768677
1617990615.13252,-15.49475,4.241519927978516
1617990615.14815,-36.46094,4.257149934768677
1617990615.16377,-59.56409,4.272769927978516
1617990615.1794,-80.26636,4.288399934768677
1617990615.19503,-92.1925,4.304029941558838
1617990615.21065,-90.57275,4.319649934768677
1617990615.22628,-75.24683,4.335279941558838
1617990615.2419,-51.25256,4.350899934768677
1617990615.25753,-26.328,4.366529941558838
1617990615.27316,-6.552612,4.382159948348999
1617990615.28878,6.922852,4.397779941558838
1617990615.30441,18.18762,4.413409948348999
1617990615.32003,33.38,4.429029941558838
1617990615.33566,56.44775,4.444659948348999
1617990615.35128,86.40991,4.460279941558838
1617990615.36691,117.9326,4.475909948348999
1617990615.38254,144.6395,4.49153995513916
1617990615.39816,162.8691,4.507159948348999
1617990615.41379,173.3812,4.52278995513916
1617990615.42941,180.2654,4.538409948348999
1617990615.44504,187.9905,4.55403995513916
1617990615.46066,198.376,4.569659948348999
1617990615.47629,209.733,4.58528995513916
1617990615.49192,218.1085,4.600919961929321
1617990615.50754,219.8636,4.61653995513916
1617990615.52317,213.7639,4.632169961929321
1617990615.53879,201.8508,4.64778995513916
1617990615.55442,188.6995,4.663419961929321
1617990615.57004,179.3394,4.67903995513916
1617990615.58567,177.252,4.694669961929321
1617990615.6013,182.7456,4.710299968719482
1617990615.61692,192.4932,4.725919961929321
1617990615.63255,200.6345,4.741549968719482
1617990615.64817,200.9539,4.757169961929321
1617990615.6638,189.3799,4.772799968719482
1617990615.67942,165.6069,4.788419961929321
1617990615.69505,133.0859,4.804049968719482
1617990615.71068,97.35596,4.8196799755096436
1617990615.7263,63.52002,4.835299968719482
1617990615.74193,34.23303,4.8509299755096436
1617990615.75755,9.144287,4.866549968719482
1617990615.77318,-14.08362,4.8821799755096436
1617990615.7888,-37.84424,4.897799968719482
1617990615.80443,-62.99573,4.9134299755096436
1617990615.82006,-88.5708,4.929059982299805
1617990615.83568,-112.5197,4.9446799755096436
1617990615.85131,-133.1633,4.960309982299805
1617990615.86693,-150.0637,4.9759299755096436
1617990615.88256,-163.9886,4.991559982299805
1617990615.89818,-175.8645,5.0071799755096436
1617990615.91381,-185.7267,5.022809982299805
1617990615.92944,-192.3221,5.038439989089966
1617990615.94506,-193.3849,5.054059982299805
1617990615.96069,-186.7914,5.069689989089966
1617990615.97631,-171.5398,5.085309982299805
1617990615.99194,-148.4362,5.100939989089966
1617990616.00756,-119.927,5.116559982299805
1617990616.02319,-89.36841,5.132189989089966
1617990616.03882,-59.91565,5.147819995880127
1617990616.05444,-33.74939,5.163439989089966
1617990616.07007,-11.72473,5.179069995880127
1617990616.08569,6.164551,5.194689989089966
1617990616.10132,20.17163,5.210319995880127
1617990616.11694,30.53662,5.225939989089966
1617990616.13257,37.28088,5.241569995880127
1617990616.1482,40.70605,5.257200002670288
1617990616.16382,41.53271,5.272819995880127
1617990616.17945,41.1322,5.288450002670288
1617990616.19507,41.20496,5.304069995880127
1617990616.2107,43.56763,5.319700002670288
1617990616.22632,49.26245,5.335319995880127
1617990616.24195,57.96777,5.350950002670288
1617990616.25758,68.24939,5.366580009460449
1617990616.2732,78.31177,5.382200002670288
1617990616.28883,87.46008,5.397830009460449
1617990616.30445,96.78296,5.413450002670288
1617990616.32008,109.4412,5.429080009460449
1617990616.3357,129.6115,5.444700002670288
1617990616.35133,161.2123,5.460330009460449
1617990616.36696,205.2081,5.47596001625061
1617990616.38258,258.2386,5.491580009460449
1617990616.39821,313.2869,5.50721001625061
1617990616.41383,361.6494,5.522830009460449
1617990616.42946,396.0021,5.53846001625061
1617990616.44508,411.9318,5.554080009460449
1617990616.46071,409.0811,5.56971001625061
1617990616.47634,391.259,5.5853400230407715
1617990616.49196,366.947,5.60096001625061
1617990616.50759,345.5941,5.6165900230407715
1617990616.52321,334.3641,5.63221001625061
1617990616.53884,335.7625,5.6478400230407715
1617990616.55446,346.0015,5.66346001625061
1617990616.57009,357.5566,5.6790900230407715
1617990616.58572,360.7748,5.694720029830933
1617990616.60134,347.1941,5.7103400230407715
1617990616.61697,312.3936,5.725970029830933
1617990616.63259,259.2621,5.7415900230407715
1617990616.64822,193.5416,5.757220029830933
1617990616.66384,121.1594,5.7728400230407715
1617990616.67947,47.85608,5.788470029830933
1617990616.6951,-21.01221,5.804100036621094
1617990616.71072,-76.87256,5.819720029830933
1617990616.72635,-111.8553,5.835350036621094
1617990616.74197,-122.4811,5.850970029830933
1617990616.7576,-111.7018,5.866600036621094
1617990616.77322,-84.97229,5.882220029830933
1617990616.78885,-52.20361,5.897850036621094
1617990616.80448,-24.0929,5.913480043411255
1617990616.8201,-7.127075,5.929100036621094
1617990616.83573,-2.937988,5.944730043411255
1617990616.85135,-4.711182,5.960350036621094
1617990616.86698,-5.067993,5.975980043411255
1617990616.8826,-0.4093018,5.991600036621094
1617990616.89823,9.485596,6.007230043411255
1617990616.91386,28.1275,6.022860050201416
1617990616.92948,57.12518,6.038480043411255
1617990616.94511,94.56006,6.054110050201416
1617990616.96073,134.7755,6.069730043411255
1617990616.97636,167.6471,6.085360050201416
1617990616.99198,187.7212,6.100980043411255
1617990617.00761,192.0235,6.116610050201416
1617990617.02324,180.8905,6.132240056991577
1617990617.03886,127.2769,6.147860050201416
1617990617.05449,27.71344,6.163490056991577
1617990617.07011,-97.60687,6.179110050201416
1617990617.08574,-217.1124,6.194740056991577
1617990617.10136,-293.4089,6.210360050201416
1617990617.11699,-335.9496,6.225990056991577
1617990617.13262,-360.0173,6.241620063781738
1617990617.14824,-376.6833,6.257240056991577
1617990617.16387,-395.0679,6.272870063781738
1617990617.17949,-416.4408,6.288490056991577
1617990617.19512,-433.6472,6.304120063781738
1617990617.21074,-440.3694,6.319740056991577
1617990617.22637,-434.3265,6.335370063781738
1617990617.242,-417.3941,6.351000070571899
1617990617.25762,-395.3874,6.366620063781738
1617990617.27325,-369.6517,6.382250070571899
1617990617.28887,-341.1244,6.397870063781738
1617990617.3045,-311.4239,6.413500070571899
1617990617.32012,-281.5765,6.429120063781738
1617990617.33575,-248.6275,6.444750070571899
1617990617.35138,-211.0857,6.4603800773620605
1617990617.367,-170.6815,6.476000070571899
1617990617.38263,-131.838,6.4916300773620605
1617990617.39825,-100.8779,6.507250070571899
1617990617.41388,-78.89653,6.5228800773620605
1617990617.4295,-64.87403,6.538500070571899
1617990617.44513,-56.99541,6.5541300773620605
1617990617.46076,-52.73346,6.569760084152222
1617990617.47638,-47.73564,6.5853800773620605
1617990617.49201,-39.74762,6.601010084152222
1617990617.50763,-29.5207,6.6166300773620605
1617990617.52326,-19.97738,6.632260084152222
1617990617.53889,-15.15084,6.647889852523804
1617990617.55451,-15.48404,6.663510084152222
1617990617.57014,-19.80344,6.679139852523804
1617990617.58576,-26.4544,6.694760084152222
1617990617.60139,-33.71948,6.710389852523804
1617990617.61701,-39.5202,6.726010084152222
1617990617.63264,-43.29993,6.741639852523804
1617990617.64827,-46.28012,6.757269859313965
1617990617.66389,-50.77636,6.772889852523804
1617990617.67952,-59.36214,6.788519859313965
1617990617.69514,-72.36232,6.804139852523804
1617990617.71077,-88.67161,6.819769859313965
1617990617.72639,-106.1864,6.835389852523804
1617990617.74202,-122.1721,6.851019859313965
1617990617.75765,-133.6218,6.866649866104126
1617990617.77327,-138.3876,6.882269859313965
1617990617.7889,-135.7948,6.897899866104126
1617990617.80452,-126.72,6.913519859313965
1617990617.82015,-113.3597,6.929149866104126
1617990617.83577,-98.10194,6.944769859313965
1617990617.8514,-83.47209,6.960399866104126
1617990617.86703,-71.87202,6.976029872894287
1617990617.88265,-65.24051,6.991649866104126
1617990617.89828,-64.682,7.007279872894287
1617990617.9139,-69.86012,7.022899866104126
1617990617.92953,-78.68097,7.038529872894287
1617990617.94515,-87.31211,7.054149866104126
1617990617.96078,-91.10706,7.069779872894287
1617990617.97641,-85.94843,7.085409879684448
1617990617.99203,-69.77158,7.101029872894287
1617990618.00766,-43.30658,7.116659879684448
1617990618.02328,-9.7808,7.132279872894287
1617990618.03891,26.17059,7.147909879684448
1617990618.05453,60.1366,7.163529872894287
1617990618.07016,89.06377,7.179159879684448
1617990618.08579,111.6068,7.194789886474609
1617990618.10141,127.7084,7.210409879684448
1617990618.11704,137.867,7.226039886474609
1617990618.13266,142.635,7.241659879684448
1617990618.14829,142.5787,7.257289886474609
1617990618.16391,138.499,7.272909879684448
1617990618.17954,131.5864,7.288539886474609
1617990618.19517,123.3116,7.3041698932647705
1617990618.21079,115.0508,7.319789886474609
1617990618.22642,107.7317,7.3354198932647705
1617990618.24204,101.676,7.351039886474609
1617990618.25767,96.68153,7.3666698932647705
1617990618.27329,92.40997,7.382289886474609
1617990618.28892,88.56819,7.3979198932647705
1617990618.30455,85.11211,7.413549900054932
1617990618.32017,82.08075,7.4291698932647705
1617990618.3358,79.51666,7.444799900054932
1617990618.35142,77.26831,7.4604198932647705
1617990618.36705,75.13583,7.476049900054932
1617990618.38267,72.88431,7.4916698932647705
1617990618.3983,70.3029,7.507299900054932
1617990618.41393,67.27724,7.522929906845093
1617990618.42955,63.54936,7.538549900054932
1617990618.44518,58.74506,7.554179906845093
1617990618.4608,52.4931,7.569799900054932
1617990618.47643,44.59319,7.585429906845093
1617990618.49205,35.14034,7.601049900054932
1617990618.50768,24.46587,7.616679906845093
1617990618.52331,12.98442,7.632309913635254
1617990618.53893,1.01413,7.647929906845093
1617990618.55456,-11.12265,7.663559913635254
1617990618.57018,-22.99777,7.679179906845093
1617990618.58581,-33.84279,7.694809913635254
1617990618.60143,-42.58005,7.710429906845093
1617990618.61706,-48.18454,7.726059913635254
1617990618.63269,-50.08585,7.741689920425415
1617990618.64831,-48.50214,7.757309913635254
1617990618.66394,-44.40448,7.772939920425415
1617990618.67956,-39.0303,7.788559913635254
1617990618.69519,-33.40698,7.804189920425415
1617990618.71081,-28.17496,7.819809913635254
1617990618.72644,-23.46408,7.835439920425415
1617990618.74207,-19.28397,7.851069927215576
1617990618.75769,-15.75629,7.866689920425415
1617990618.77332,-13.1257,7.882319927215576
1617990618.78894,-11.58893,7.897939920425415
1617990618.80457,-10.95291,7.913569927215576
1617990618.82019,-10.67261,7.929189920425415
1617990618.83582,-10.02618,7.944819927215576
1617990618.85145,-8.627594,7.960449934005737
1617990618.86707,-6.615753,7.976069927215576
1617990618.8827,-4.697937,7.991699934005737
1617990618.89832,-3.893738,8.007319927215576
1617990618.91395,-5.041412,8.022949934005737
1617990618.92957,-8.477905,8.038569927215576
1617990618.9452,-13.85284,8.054199934005737
1617990618.96083,-20.18073,8.069829940795898
1617990618.97645,-26.1467,8.085449934005737
1617990618.99208,-30.49539,8.101079940795898
1617990619.0077,-32.33163,8.116699934005737
1617990619.02333,-31.46945,8.132329940795898
1617990619.03895,-28.57141,8.147949934005737
1617990619.05458,-24.92236,8.163579940795898
1617990619.07021,-22.15311,8.17920994758606
1617990619.08583,-21.77734,8.194829940795898
1617990619.10146,-24.8064,8.21045994758606
1617990619.11708,-31.59213,8.226079940795898
1617990619.13271,-41.97696,8.24170994758606
1617990619.14833,-55.3746,8.257329940795898
1617990619.16396,-71.11118,8.27295994758606
1617990619.17959,-88.54266,8.28858995437622
1617990619.19521,-107.0688,8.30420994758606
1617990619.21084,-126.422,8.31983995437622
1617990619.22646,-146.7493,8.33545994758606
1617990619.24209,-168.6565,8.35108995437622
1617990619.25771,-192.8671,8.36670994758606
1617990619.27334,-219.7464,8.38233995437622
1617990619.28897,-248.579,8.397969961166382
1617990619.30459,-277.2115,8.41358995437622
1617990619.32022,-302.291,8.429219961166382
1617990619.33584,-319.782,8.44483995437622
1617990619.35147,-326.0991,8.460469961166382
1617990619.36709,-318.9984,8.47608995437622
1617990619.38272,-297.7603,8.491719961166382
1617990619.39835,-262.9602,8.507349967956543
1617990619.41397,-216.0062,8.522969961166382
1617990619.4296,-158.7777,8.538599967956543
1617990619.44522,-93.70157,8.554219961166382
1617990619.46085,-23.98633,8.569849967956543
1617990619.47647,46.30673,8.585469961166382
1617990619.4921,112.478,8.601099967956543
1617990619.50773,170.075,8.616729974746704
1617990619.52335,215.9287,8.632349967956543
1617990619.53898,248.8157,8.647979974746704
1617990619.5546,269.5699,8.663599967956543
1617990619.57023,280.5875,8.679229974746704
1617990619.58585,285.1086,8.694849967956543
1617990619.60148,286.5957,8.710479974746704
1617990619.61711,288.1425,8.726109981536865
1617990619.63273,292.0399,8.741729974746704
1617990619.64836,299.3352,8.757359981536865
1617990619.66398,309.5761,8.772979974746704
1617990619.67961,321.1278,8.788609981536865
1617990619.69524,331.8638,8.804239988327026
1617990619.71086,340.3216,8.819859981536865
1617990619.72649,346.3622,8.835489988327026
1617990619.74211,351.2437,8.851109981536865
1617990619.75774,356.8703,8.866739988327026
1617990619.77336,364.9319,8.882359981536865
1617990619.78899,376.2769,8.897989988327026
1617990619.80462,390.79,8.913619995117188
1617990619.82024,407.5317,8.929239988327026
1617990619.83587,425.0461,8.944869995117188
1617990619.85149,441.4047,8.960489988327026
1617990619.86712,453.9978,8.976119995117188
1617990619.88274,460.0237,8.991739988327026
1617990619.89837,457.0975,9.007369995117188
1617990619.914,444.1265,9.023000001907349
1617990619.92962,421.7897,9.038619995117188
1617990619.94525,392.1891,9.054250001907349
1617990619.96087,357.9131,9.069869995117188
1617990619.9765,320.8841,9.085500001907349
1617990619.99212,281.8286,9.101119995117188
1617990620.00775,240.2648,9.116750001907349
1617990620.02338,195.2714,9.13238000869751
1617990620.039,146.2599,9.148000001907349
1617990620.05463,93.44086,9.16363000869751
1617990620.07025,37.90131,9.179250001907349
1617990620.08588,-18.7475,9.19488000869751
1617990620.1015,-74.62219,9.210500001907349
1617990620.11713,-127.9851,9.22613000869751
1617990620.13276,-177.5237,9.241760015487671
1617990620.14838,-222.5458,9.25738000869751
1617990620.16401,-263.1425,9.273010015487671
1617990620.17963,-299.9319,9.28863000869751
1617990620.19526,-333.83,9.304260015487671
1617990620.21088,-365.4751,9.31988000869751
1617990620.22651,-394.9335,9.335510015487671
1617990620.24214,-421.6591,9.351140022277832
1617990620.25776,-444.7601,9.366760015487671
1617990620.27339,-463.5367,9.382390022277832
1617990620.28901,-477.8113,9.398010015487671
1617990620.30464,-488.21,9.413640022277832
1617990620.32026,-495.9609,9.429260015487671
1617990620.33589,-502.407,9.444890022277832
1617990620.35152,-508.4539,9.460520029067993
1617990620.36714,-514.2473,9.476140022277832
1617990620.38277,-519.4133,9.491770029067993
1617990620.39839,-523.3071,9.507390022277832
1617990620.41402,-525.6173,9.523020029067993
1617990620.42964,-526.6864,9.538640022277832
1617990620.44527,-527.5292,9.554270029067993
1617990620.4609,-529.5957,9.569900035858154
1617990620.47652,-534.6351,9.585520029067993
1617990620.49215,-544.589,9.601150035858154
1617990620.50777,-561.1901,9.616770029067993
1617990620.5234,-584.8882,9.632400035858154
1617990620.53902,-613.5414,9.648020029067993
1617990620.55465,-641.6154,9.663650035858154
1617990620.57028,-660.7533,9.679280042648315
1617990620.5859,-662.1805,9.694900035858154
1617990620.60153,-639.9135,9.710530042648315
1617990620.61715,-593.3177,9.726150035858154
1617990620.63278,-527.6653,9.741780042648315
1617990620.6484,-452.2036,9.757400035858154
1617990620.66403,-376.8193,9.773030042648315
1617990620.67966,-308.9572,9.788660049438477
1617990620.69528,-252.3987,9.804280042648315
1617990620.71091,-207.7626,9.819910049438477
1617990620.72653,-174.3248,9.835530042648315
1617990620.74216,-151.5234,9.851160049438477
1617990620.75778,-139.1235,9.866780042648315
1617990620.77341,-136.5677,9.882410049438477
1617990620.78904,-142.1271,9.898040056228638
1617990620.80466,-152.6588,9.913660049438477
1617990620.82029,-164.3336,9.929290056228638
1617990620.83591,-173.8824,9.944910049438477
1617990620.85154,-179.3744,9.960540056228638
1617990620.86716,-180.4111,9.976160049438477
1617990620.88279,-177.8268,9.991790056228638
1617990620.89842,-172.6268,10.007420063018799
1617990620.91404,-165.2731,10.023040056228638
1617990620.92967,-155.3574,10.038670063018799
1617990620.94529,-141.8636,10.054290056228638
1617990620.96092,-123.7168,10.069920063018799
1617990620.97654,-100.5618,10.085540056228638
1617990620.99217,-72.96906,10.101170063018799
1617990621.0078,-42.47513,10.11680006980896
1617990621.02342,-11.08923,10.132420063018799
1617990621.03905,19.36307,10.14805006980896
1617990621.05467,47.64969,10.163670063018799
1617990621.0703,73.38666,10.17930006980896
1617990621.08592,96.7997,10.194920063018799
1617990621.10155,118.3797,10.21055006980896
1617990621.11718,138.3987,10.226180076599121
1617990621.1328,156.7614,10.24180006980896
1617990621.14843,172.9891,10.257430076599121
1617990621.16405,186.4931,10.27305006980896
1617990621.17968,196.9609,10.288680076599121
1617990621.1953,204.3927,10.30430006980896
1617990621.21093,209.1773,10.319930076599121
1617990621.22656,211.9161,10.335560083389282
1617990621.24218,213.07,10.351180076599121
1617990621.25781,212.6775,10.366810083389282
1617990621.27343,210.3599,10.382430076599121
1617990621.28906,205.3535,10.398060083389282
1617990621.30468,196.7785,10.413680076599121
1617990621.32031,184.0735,10.429310083389282
1617990621.33594,167.0757,10.444939851760864
1617990621.35156,146.1509,10.460560083389282
1617990621.36719,122.1653,10.476189851760864
1617990621.38281,96.18579,10.491810083389282
1617990621.39844,69.25281,10.507439851760864
1617990621.41406,42.35089,10.523060083389282
1617990621.42969,16.32941,10.538689851760864
1617990621.44532,-7.928955,10.554319858551025
1617990621.46094,-29.32928,10.569939851760864
1617990621.47657,-46.62854,10.585569858551025
1617990621.49219,-58.53687,10.601189851760864
1617990621.50782,-63.9447,10.616819858551025
1617990621.52344,-62.27759,10.632439851760864
1617990621.53907,-53.74561,10.648069858551025
1617990621.5547,-39.26379,10.663699865341187
1617990621.57032,-20.28589,10.679319858551025
1617990621.58595,1.655029,10.694949865341187
1617990621.60157,25.34058,10.710569858551025
1617990621.6172,50.14343,10.726199865341187
1617990621.63282,75.96619,10.741819858551025
1617990621.64845,102.9607,10.757449865341187
1617990621.66408,131.093,10.773079872131348
1617990621.6797,159.7921,10.788699865341187
1617990621.69533,188.058,10.804329872131348
1617990621.71095,214.6624,10.819949865341187
1617990621.72658,238.6611,10.835579872131348
1617990621.7422,259.7476,10.851199865341187
1617990621.75783,278.3931,10.866829872131348
1617990621.77346,295.678,10.882459878921509
1617990621.78908,313.0847,10.898079872131348
1617990621.80471,332.156,10.913709878921509
1617990621.82033,354.2804,10.929329872131348
1617990621.83596,380.2952,10.944959878921509
1617990621.85158,409.7253,10.960579872131348
1617990621.86721,440.2129,10.976209878921509
1617990621.88284,467.3989,10.99183988571167
1617990621.89846,485.7637,11.007459878921509
1617990621.91409,490.3741,11.02308988571167
1617990621.92971,478.9067,11.038709878921509
1617990621.94534,452.707,11.05433988571167
1617990621.96096,416.4071,11.069959878921509
1617990621.97659,376.1951,11.08558988571167
1617990621.99222,337.4138,11.101219892501831
1617990622.00784,303.004,11.11683988571167
1617990622.02347,273.2798,11.132469892501831
1617990622.03909,247.0505,11.14808988571167
1617990622.05472,223.0381,11.163719892501831
1617990622.07034,200.8403,11.17933988571167
1617990622.08597,180.9629,11.194969892501831
1617990622.1016,164.0278,11.210599899291992
1617990622.11722,150.1169,11.226219892501831
1617990622.13285,138.4397,11.241849899291992
1617990622.14847,127.7781,11.257469892501831
1617990622.1641,117.1025,11.273099899291992
1617990622.17972,106.0085,11.288719892501831
1617990622.19535,94.77588,11.304349899291992
1617990622.21098,84.03784,11.319979906082153
1617990622.2266,74.28613,11.335599899291992
1617990622.24223,65.58032,11.351229906082153
1617990622.25785,57.50879,11.366849899291992
1617990622.27348,49.3335,11.382479906082153
1617990622.2891,40.4939,11.398099899291992
1617990622.30473,30.75806,11.413729906082153
1617990622.32036,20.37109,11.429359912872314
1617990622.33598,10.00195,11.444979906082153
1617990622.35161,0.4152832,11.460609912872314
1617990622.36723,-7.851074,11.476229906082153
1617990622.38286,-14.58472,11.491859912872314
1617990622.39849,-19.76733,11.507489919662476
1617990622.41411,-23.5083,11.523109912872314
1617990622.42974,-25.62231,11.538739919662476
1617990622.44536,-25.67944,11.554359912872314
1617990622.46099,-23.21167,11.569989919662476
1617990622.47661,-17.99561,11.585609912872314
1617990622.49224,-10.27393,11.601239919662476
1617990622.50787,-0.8508301,11.616869926452637
1617990622.52349,9.040771,11.632489919662476
1617990622.53912,18.24072,11.648119926452637
1617990622.55474,25.87036,11.663739919662476
1617990622.57037,31.43188,11.679369926452637
1617990622.58599,34.81763,11.694989919662476
1617990622.60162,36.11914,11.710619926452637
1617990622.61725,35.54419,11.726249933242798
1617990622.63287,33.38745,11.741869926452637
1617990622.6485,30.1748,11.757499933242798
1617990622.66412,26.50208,11.773119926452637
1617990622.67975,23.03271,11.788749933242798
1617990622.69537,20.35742,11.804369926452637
1617990622.711,18.81592,11.819999933242798
1617990622.72663,18.41821,11.835629940032959
1617990622.74225,18.8689,11.851249933242798
1617990622.75788,19.72595,11.866879940032959
1617990622.7735,20.55115,11.882499933242798
1617990622.78913,21.14661,11.898129940032959
1617990622.80475,21.5686,11.913749933242798
1617990622.82038,22.04395,11.929379940032959
1617990622.83601,22.84143,11.94500994682312
1617990622.85163,24.06409,11.960629940032959
1617990622.86726,25.45996,11.97625994682312
1617990622.88288,26.38599,11.991879940032959
1617990622.89851,26.06458,12.00750994682312
1617990622.91413,23.70264,12.023129940032959
1617990622.92976,18.76038,12.03875994682312
1617990622.94539,11.13257,12.054389953613281
1617990622.96101,1.131958,12.07000994682312
1617990622.97664,-10.64648,12.085639953613281
1617990622.99226,-23.44629,12.10125994682312
1617990623.00789,-36.49695,12.116889953613281
1617990623.02351,-49.13904,12.13250994682312
1617990623.03914,-60.79468,12.148139953613281
1617990623.05477,-70.86646,12.163769960403442
1617990623.07039,-78.63782,12.179389953613281
1617990623.08602,-83.37183,12.195019960403442
1617990623.10164,-84.39319,12.210639953613281
1617990623.11727,-81.39526,12.226269960403442
1617990623.13289,-74.66174,12.241889953613281
1617990623.14852,-65.14001,12.257519960403442
1617990623.16415,-54.27966,12.273149967193604
1617990623.17977,-43.70557,12.288769960403442
1617990623.1954,-34.71924,12.304399967193604
1617990623.21102,-27.94849,12.320019960403442
1617990623.22665,-23.21875,12.335649967193604
1617990623.24227,-19.85608,12.351269960403442
1617990623.2579,-17.09375,12.366899967193604
1617990623.27353,-14.41357,12.382529973983765
1617990623.28915,-11.81665,12.398149967193604
1617990623.30478,-9.589966,12.413779973983765
1617990623.3204,-8.156982,12.429399967193604
1617990623.33603,-7.785645,12.445029973983765
1617990623.35165,-8.493286,12.460649967193604
1617990623.36728,-9.95166,12.476279973983765
1617990623.38291,-11.51318,12.491909980773926
1617990623.39853,-11.86987,12.507529973983765
1617990623.41416,-9.042236,12.523159980773926
1617990623.42978,-0.6685791,12.538779973983765
1617990623.44541,15.17456,12.554409980773926
1617990623.46103,38.88635,12.570029973983765
1617990623.47666,68.69885,12.585659980773926
1617990623.49229,100.776,12.601289987564087
1617990623.50791,130.3795,12.616909980773926
1617990623.52354,153.2748,12.632539987564087
1617990623.53916,167.0027,12.648159980773926
1617990623.55479,171.043,12.663789987564087
1617990623.57041,166.3387,12.679409980773926
1617990623.58604,154.3529,12.695039987564087
1617990623.60167,136.4634,12.710669994354248
1617990623.61729,113.7667,12.726289987564087
1617990623.63292,87.40906,12.741919994354248
1617990623.64854,58.79468,12.757539987564087
1617990623.66417,29.53442,12.773169994354248
1617990623.67979,1.105103,12.788789987564087
1617990623.69542,-25.34839,12.804419994354248
1617990623.71105,-49.49841,12.82005000114441
1617990623.72667,-71.78357,12.835669994354248
1617990623.7423,-93.07556,12.85130000114441
1617990623.75792,-114.0496,12.866919994354248
1617990623.77355,-134.6815,12.88255000114441
1617990623.78917,-154.1085,12.898169994354248
1617990623.8048,-170.5469,12.91380000114441
1617990623.82043,-181.9138,12.92943000793457
1617990623.83605,-186.2648,12.94505000114441
1617990623.85168,-182.7563,12.96068000793457
1617990623.8673,-171.882,12.97630000114441
1617990623.88293,-155.3812,12.99193000793457
1617990623.89855,-135.4165,13.00755000114441
1617990623.91418,-113.8998,13.02318000793457
1617990623.92981,-92.0426,13.038810014724731
1617990623.94543,-70.34082,13.05443000793457
1617990623.96106,-49.08252,13.070060014724731
1617990623.97668,-28.13989,13.08568000793457
1617990623.99231,-7.96106,13.101310014724731
1617990624.00793,10.44226,13.11693000793457
1617990624.02356,25.81409,13.132560014724731
1617990624.03919,37.31067,13.148190021514893
1617990624.05481,44.84131,13.163810014724731
1617990624.07044,48.86975,13.179440021514893
1617990624.08606,50.52356,13.195060014724731
1617990624.10169,50.90771,13.210690021514893
1617990624.11731,52.48401,13.226310014724731
1617990624.13294,56.89929,13.241940021514893
1617990624.14857,64.28662,13.257570028305054
1617990624.16419,73.3147,13.273190021514893
1617990624.17982,82.10352,13.288820028305054
1617990624.19544,89.21777,13.304440021514893
1617990624.21107,93.4552,13.320070028305054
1617990624.22669,95.07739,13.335690021514893
1617990624.24232,94.62146,13.351320028305054
1617990624.25795,96.0509,13.366950035095215
1617990624.27357,102.3066,13.382570028305054
1617990624.2892,113.6458,13.398200035095215
1617990624.30482,127.6146,13.413820028305054
1617990624.32045,140.614,13.429450035095215
1617990624.33607,149.9365,13.445070028305054
1617990624.3517,153.3424,13.460700035095215
1617990624.36733,151.6827,13.476330041885376
1617990624.38295,146.402,13.491950035095215
1617990624.39858,144.4266,13.507580041885376
1617990624.4142,150.9156,13.523200035095215
1617990624.42983,166.5388,13.538830041885376
1617990624.44545,187.6947,13.554450035095215
1617990624.46108,209.2231,13.570080041885376
1617990624.47671,227.3228,13.585710048675537
1617990624.49233,238.7397,13.601330041885376
1617990624.50796,244.9094,13.616960048675537
1617990624.52358,248.1788,13.632580041885376
1617990624.53921,258.2827,13.648210048675537
1617990624.55484,282.9837,13.663840055465698
1617990624.57046,324.0596,13.679460048675537
1617990624.58609,377.3843,13.695090055465698
1617990624.60171,436.0186,13.710710048675537
1617990624.61734,493.8191,13.726340055465698
1617990624.63296,544.746,13.741960048675537
1617990624.64859,588.7648,13.757590055465698
1617990624.66422,581.9568,13.77322006225586
1617990624.67984,499.7533,13.788840055465698
1617990624.69547,346.7023,13.80447006225586
1617990624.71109,154.9938,13.820090055465698
1617990624.72672,-36.94208,13.83572006225586
1617990624.74234,-204.4529,13.851340055465698
1617990624.75797,-326.4513,13.86697006225586
1617990624.7736,-416.3127,13.88260006904602
1617990624.78922,-483.4384,13.89822006225586
1617990624.80485,-532.4464,13.91385006904602
1617990624.82047,-557.8611,13.92947006225586
1617990624.8361,-554.718,13.94510006904602
1617990624.85172,-522.9988,13.96072006225586
1617990624.86735,-466.0765,13.97635006904602
1617990624.88298,-389.3689,13.991980075836182
1617990624.8986,-298.8807,14.00760006904602
1617990624.91423,-206.5443,14.023230075836182
1617990624.92985,-124.1339,14.03885006904602
1617990624.94548,-64.25949,14.054480075836182
1617990624.9611,-29.29956,14.07010006904602
1617990624.97673,-6.969147,14.085730075836182
1617990624.99236,9.875824,14.101360082626343
1617990625.00798,24.70119,14.116980075836182
1617990625.02361,38.8071,14.132610082626343
1617990625.03923,52.73335,14.148230075836182
1617990625.05486,60.62893,14.163860082626343
1617990625.07048,61.90656,14.179480075836182
1617990625.08611,56.34232,14.195110082626343
1617990625.10174,47.57857,14.210739850997925
1617990625.11736,39.12101,14.226360082626343
1617990625.13299,31.23991,14.241989850997925
1617990625.14861,22.62512,14.257610082626343
1617990625.16424,11.51274,14.273239850997925
1617990625.17986,-2.60994,14.288860082626343
1617990625.19549,-19.02307,14.304489850997925
1617990625.21112,-32.56436,14.320119857788086
1617990625.22674,-38.35233,14.335739850997925
1617990625.24237,-32.50696,14.351369857788086
1617990625.25799,-16.10037,14.366989850997925
1617990625.27362,3.475311,14.382619857788086
1617990625.28924,17.32721,14.398239850997925
1617990625.30487,19.61838,14.413869857788086
1617990625.3205,10.94122,14.429499864578247
1617990625.33612,-2.822449,14.445119857788086
1617990625.35175,-12.93393,14.460749864578247
1617990625.36737,-15.01389,14.476369857788086
1617990625.383,-11.58978,14.491999864578247
1617990625.39862,-11.6987,14.507619857788086
1617990625.41425,-26.88229,14.523249864578247
1617990625.42988,-63.8949,14.538879871368408
1617990625.4455,-121.4747,14.554499864578247
1617990625.46113,-191.0383,14.570129871368408
1617990625.47675,-261.3519,14.585749864578247
1617990625.49238,-322.9138,14.601379871368408
1617990625.508,-371.581,14.616999864578247
1617990625.52363,-408.3768,14.632629871368408
1617990625.53926,-437.1387,14.64825987815857
1617990625.55488,-462.3301,14.663879871368408
1617990625.57051,-486.8918,14.67950987815857
1617990625.58613,-511.6837,14.695129871368408
1617990625.60176,-535.474,14.71075987815857
1617990625.61738,-554.8771,14.726379871368408
1617990625.63301,-564.5852,14.74200987815857
1617990625.64864,-558.6607,14.75763988494873
1617990625.66426,-532.3721,14.77325987815857
1617990625.67989,-484.2314,14.78888988494873
1617990625.69551,-417.199,14.80450987815857
1617990625.71114,-337.7366,14.82013988494873
1617990625.72676,-254.0085,14.83575987815857
1617990625.74239,-173.6287,14.85138988494873
1617990625.75802,-102.1205,14.867019891738892
1617990625.77364,-42.58435,14.88263988494873
1617990625.78927,4.021912,14.898269891738892
1617990625.80489,38.42322,14.91388988494873
1617990625.82052,62.81311,14.929519891738892
1617990625.83614,80.80048,14.94513988494873
1617990625.85177,96.87408,14.960769891738892
1617990625.8674,115.1541,14.976399898529053
1617990625.88302,137.9526,14.992019891738892
1617990625.89865,164.9563,15.007649898529053
1617990625.91427,193.2497,15.023269891738892
1617990625.9299,218.6328,15.038899898529053
1617990625.94552,236.9973,15.054519891738892
1617990625.96115,245.7772,15.070149898529053
1617990625.97678,244.5213,15.085779905319214
1617990625.9924,234.5615,15.101399898529053
1617990626.00803,218.2159,15.117029905319214
1617990626.02365,197.8508,15.132649898529053
1617990626.03928,175.3004,15.148279905319214
1617990626.0549,151.6338,15.163899898529053
1617990626.07053,127.3479,15.179529905319214
1617990626.08616,102.6848,15.195159912109375
1617990626.10178,77.99875,15.210779905319214
1617990626.11741,53.89313,15.226409912109375
1617990626.13303,31.02109,15.242029905319214
1617990626.14866,9.95401,15.257659912109375
1617990626.16428,-9.016907,15.273279905319214
1617990626.17991,-25.92569,15.288909912109375
1617990626.19554,-41.08267,15.304539918899536
1617990626.21116,-54.888,15.320159912109375
1617990626.22679,-67.72559,15.335789918899536
1617990626.24241,-79.80182,15.351409912109375
1617990626.25804,-91.07254,15.367039918899536
1617990626.27366,-101.4639,15.382659912109375
1617990626.28929,-110.8729,15.398289918899536
1617990626.30492,-119.2704,15.413919925689697
1617990626.32054,-126.8647,15.429539918899536
1617990626.33617,-134.1388,15.445169925689697
1617990626.35179,-141.7521,15.460789918899536
1617990626.36742,-150.402,15.476419925689697
1617990626.38304,-160.5704,15.492039918899536
1617990626.39867,-172.2968,15.507669925689697
1617990626.4143,-185.2939,15.523299932479858
1617990626.42992,-199.1082,15.538919925689697
1617990626.44555,-213.3333,15.554549932479858
1617990626.46117,-227.5451,15.570169925689697
1617990626.4768,-240.8701,15.585799932479858
1617990626.49242,-251.3275,15.601419925689697
1617990626.50805,-255.6213,15.617049932479858
1617990626.52368,-249.5974,15.63267993927002
1617990626.5393,-229.4588,15.648299932479858
1617990626.55493,-193.3378,15.66392993927002
1617990626.57055,-142.3721,15.679549932479858
1617990626.58618,-80.84946,15.69517993927002
1617990626.6018,-15.13498,15.710799932479858
1617990626.61743,48.03955,15.72642993927002
1617990626.63306,103.2966,15.74205994606018
1617990626.64868,147.4243,15.75767993927002
1617990626.66431,179.4661,15.77330994606018
1617990626.67993,200.1767,15.78892993927002
1617990626.69556,211.3236,15.80455994606018
1617990626.71118,215.1982,15.82017993927002
1617990626.72681,214.2019,15.83580994606018
1617990626.74244,210.3136,15.851439952850342
1617990626.75806,204.6015,15.86705994606018
1617990626.77369,196.8214,15.882689952850342
1617990626.78931,185.5176,15.89830994606018
1617990626.80494,168.688,15.913939952850342
1617990626.82056,144.936,15.92955994606018
1617990626.83619,114.397,15.945189952850342
1617990626.85182,79.17801,15.960819959640503
1617990626.86744,43.06625,15.976439952850342
1617990626.88307,10.55831,15.992069959640503
1617990626.89869,-14.17168,16.007689952850342
1617990626.91432,-28.18478,16.023319959640503
1617990626.92994,-30.22524,16.038939952850342
1617990626.94557,-20.72437,16.054569959640503
1617990626.9612,-1.572889,16.070199966430664
1617990626.97682,24.20323,16.085819959640503
1617990626.99245,52.91518,16.101449966430664
1617990627.00807,80.77357,16.117069959640503
1617990627.0237,104.6293,16.132699966430664
1617990627.03933,122.4949,16.148329973220825
1617990627.05495,133.8704,16.163949966430664
1617990627.07058,139.58,16.179579973220825
1617990627.0862,141.2746,16.195199966430664
1617990627.10183,140.6826,16.210829973220825
1617990627.11745,138.9746,16.226449966430664
1617990627.13308,136.6028,16.242079973220825
1617990627.14871,133.4052,16.257709980010986
1617990627.16433,129.1095,16.273329973220825
1617990627.17996,123.7004,16.288959980010986
1617990627.19558,117.6592,16.304579973220825
1617990627.21121,111.769,16.320209980010986
1617990627.22683,106.819,16.335829973220825
1617990627.24246,103.3014,16.351459980010986
1617990627.25809,101.2413,16.367089986801147
1617990627.27371,100.2298,16.382709980010986
1617990627.28934,99.60664,16.398339986801147
1617990627.30496,98.64597,16.413959980010986
1617990627.32059,96.66975,16.429589986801147
1617990627.33621,93.17477,16.445209980010986
1617990627.35184,87.88464,16.460839986801147
1617990627.36747,80.65401,16.47646999359131
1617990627.38309,71.51445,16.492089986801147
1617990627.39872,60.63945,16.50771999359131
1617990627.41434,48.22348,16.523339986801147
1617990627.42997,34.50433,16.53896999359131
1617990627.44559,19.81285,16.554589986801147
1617990627.46122,4.528954,16.57021999359131
1617990627.47685,-10.89977,16.58585000038147
1617990627.49247,-25.95803,16.60146999359131
1617990627.5081,-40.27594,16.61710000038147
1617990627.52372,-53.53816,16.63271999359131
1617990627.53935,-65.44297,16.64835000038147
1617990627.55497,-75.64843,16.66396999359131
1617990627.5706,-83.78589,16.67960000038147
1617990627.58623,-89.52254,16.69523000717163
1617990627.60185,-92.82745,16.71085000038147
1617990627.61748,-94.14767,16.72648000717163
1617990627.6331,-94.36868,16.74210000038147
1617990627.64873,-94.68801,16.75773000717163
1617990627.66435,-96.12405,16.77335000038147
1617990627.67998,-99.14771,16.78898000717163
1617990627.69561,-103.3785,16.804610013961792
1617990627.71123,-107.6939,16.82023000717163
1617990627.72686,-110.593,16.835860013961792
1617990627.74248,-110.6671,16.85148000717163
1617990627.75811,-107.3759,16.867110013961792
1617990627.77373,-101.4026,16.88273000717163
1617990627.78936,-94.52641,16.898360013961792
1617990627.80499,-88.96771,16.913990020751953
1617990627.82061,-86.57745,16.929610013961792
1617990627.83624,-88.04924,16.945240020751953
1617990627.85186,-92.74286,16.960860013961792
1617990627.86749,-99.04573,16.976490020751953
1617990627.88311,-104.981,16.992110013961792
1617990627.89874,-109.226,17.007740020751953
1617990627.91437,-111.8012,17.023370027542114
1617990627.92999,-114.0044,17.038990020751953
1617990627.94562,-117.743,17.054620027542114
1617990627.96124,-124.628,17.070240020751953
1617990627.97687,-135.2004,17.085870027542114
1617990627.99249,-148.6928,17.101490020751953
1617990628.00812,-163.2318,17.117120027542114
1617990628.02375,-175.9826,17.132750034332275
1617990628.03937,-184.1977,17.148370027542114
1617990628.055,-186.0934,17.164000034332275
1617990628.07062,-181.4542,17.179620027542114
1617990628.08625,-171.9456,17.195250034332275
1617990628.10187,-160.9972,17.210870027542114
1617990628.1175,-152.6439,17.226500034332275
1617990628.13313,-150.2782,17.242130041122437
1617990628.14875,-154.9815,17.257750034332275
1617990628.16438,-163.3793,17.273380041122437
1617990628.18,-169.1124,17.289000034332275
1617990628.19563,-165.1014,17.304630041122437
1617990628.21125,-146.3292,17.320250034332275
1617990628.22688,-111.8378,17.335880041122437
1617990628.24251,-65.39523,17.351510047912598
1617990628.25813,-13.66785,17.367130041122437
1617990628.27376,35.46497,17.382760047912598
1617990628.28938,75.77966,17.398380041122437
1617990628.30501,106.9209,17.414010047912598
1617990628.32063,131.9715,17.429630041122437
1617990628.33626,154.9913,17.445260047912598
1617990628.35189,178.7278,17.46089005470276
1617990628.36751,203.9581,17.476510047912598
1617990628.38314,229.6399,17.49214005470276
1617990628.39876,255.2729,17.507760047912598
1617990628.41439,280.0085,17.52339005470276
1617990628.43001,303.0061,17.539010047912598
1617990628.44564,326.9307,17.55464005470276
1617990628.46127,353.2579,17.57027006149292
1617990628.47689,380.2035,17.58589005470276
1617990628.49252,402.9819,17.60152006149292
1617990628.50814,416.6342,17.61714005470276
1617990628.52377,418.1359,17.63277006149292
1617990628.53939,409.9126,17.64839005470276
1617990628.55502,396.4936,17.66402006149292
1617990628.57065,382.3278,17.67965006828308
1617990628.58627,375.2217,17.69527006149292
1617990628.6019,379.8843,17.71090006828308
1617990628.61752,396.014,17.72652006149292
1617990628.63315,418.8481,17.74215006828308
1617990628.64877,442.2308,17.75777006149292
1617990628.6644,460.1335,17.77340006828308
1617990628.68003,470.1902,17.789030075073242
1617990628.69565,469.7366,17.80465006828308
1617990628.71128,428.6516,17.820280075073242
1617990628.7269,332.2921,17.83590006828308
1617990628.74253,190.3051,17.851530075073242
1617990628.75815,34.31723,17.86715006828308
1617990628.77378,-102.3484,17.882780075073242
1617990628.78941,-194.8394,17.898410081863403
1617990628.80503,-252.1349,17.914030075073242
1617990628.82066,-286.9613,17.929660081863403
1617990628.83628,-310.0143,17.945280075073242
1617990628.85191,-328.0562,17.960910081863403
1617990628.86753,-338.5425,17.976530075073242
1617990628.88316,-337.4959,17.992160081863403
1617990628.89879,-323.9105,18.007789850234985
1617990628.91441,-301.4647,18.023410081863403
1617990628.93004,-276.4315,18.039039850234985
1617990628.94566,-255.3582,18.054660081863403
1617990628.96129,-239.7376,18.070289850234985
1617990628.97691,-229.0479,18.085910081863403
1617990628.99254,-221.7404,18.101539850234985
1617990629.00817,-212.6388,18.117169857025146
1617990629.02379,-198.2559,18.132789850234985
1617990629.03942,-178.7237,18.148419857025146
1617990629.05504,-157.3593,18.164039850234985
1617990629.07067,-138.4029,18.179669857025146
1617990629.08629,-125.3154,18.195289850234985
1617990629.10192,-117.5319,18.210919857025146
1617990629.11755,-113.5452,18.226549863815308
1617990629.13317,-111.875,18.242169857025146
1617990629.1488,-109.2307,18.257799863815308
1617990629.16442,-103.4276,18.273419857025146
1617990629.18005,-94.50202,18.289049863815308
1617990629.19567,-84.56173,18.304669857025146
1617990629.2113,-76.25919,18.320299863815308
1617990629.22693,-71.68224,18.33592987060547
1617990629.24255,-70.09168,18.351549863815308
1617990629.25818,-69.84332,18.36717987060547
1617990629.2738,-69.15941,18.382799863815308
1617990629.28943,-65.68683,18.39842987060547
1617990629.30505,-58.20953,18.414049863815308
1617990629.32068,-47.23896,18.42967987060547
1617990629.33631,-34.78146,18.44530987739563
1617990629.35193,-23.20094,18.46092987060547
1617990629.36756,-14.40703,18.47655987739563
1617990629.38318,-8.559464,18.49217987060547
1617990629.39881,-5.039063,18.50780987739563
1617990629.41444,-2.961449,18.52343988418579
1617990629.43006,-1.088799,18.53905987739563
1617990629.44569,1.382446,18.55468988418579
1617990629.46131,4.648582,18.57030987739563
1617990629.47694,8.30352,18.58593988418579
1617990629.49256,11.74952,18.60155987739563
1617990629.50819,14.45171,18.61718988418579
1617990629.52382,16.40952,18.632819890975952
1617990629.53944,17.82735,18.64843988418579
1617990629.55507,18.95673,18.664069890975952
1617990629.57069,20.08707,18.67968988418579
1617990629.58632,21.39525,18.695319890975952
1617990629.60194,22.95909,18.71093988418579
1617990629.61757,24.71008,18.726569890975952
1617990629.6332,26.43433,18.742199897766113
1617990629.64882,27.81651,18.757819890975952
1617990629.66445,28.63556,18.773449897766113
1617990629.68007,28.7655,18.789069890975952
1617990629.6957,28.30823,18.804699897766113
1617990629.71132,27.45782,18.820319890975952
1617990629.72695,26.45116,18.835949897766113
1617990629.74258,25.45004,18.851579904556274
1617990629.7582,24.49692,18.867199897766113
1617990629.77383,23.52832,18.882829904556274
1617990629.78945,22.48521,18.898449897766113
1617990629.80508,21.33749,18.914079904556274
1617990629.8207,20.05577,18.929699897766113
1617990629.83633,18.63023,18.945329904556274
1617990629.85196,16.94931,18.960959911346436
1617990629.86758,14.83514,18.976579904556274
1617990629.88321,12.10861,18.992209911346436
1617990629.89883,8.71727,19.007829904556274
1617990629.91446,4.799835,19.023459911346436
1617990629.93008,0.7357483,19.039079904556274
1617990629.94571,-2.978653,19.054709911346436
1617990629.96134,-5.949814,19.070339918136597
1617990629.97696,-7.990189,19.085959911346436
1617990629.99259,-9.263977,19.101589918136597
1617990630.00821,-10.13298,19.117209911346436
1617990630.02384,-11.07056,19.132839918136597
1617990630.03946,-12.44742,19.148459911346436
1617990630.05509,-14.47543,19.164089918136597
1617990630.07072,-17.14539,19.179719924926758
1617990630.08634,-20.23921,19.195339918136597
1617990630.10197,-23.37871,19.210969924926758
1617990630.11759,-25.99294,19.226589918136597
1617990630.13322,-27.37282,19.242219924926758
1617990630.14884,-26.89154,19.257839918136597
1617990630.16447,-24.12845,19.273469924926758
1617990630.1801,-19.17281,19.28909993171692
1617990630.19572,-12.6783,19.304719924926758
1617990630.21135,-5.616699,19.32034993171692
1617990630.22697,1.001968,19.335969924926758
1617990630.2426,6.471359,19.35159993171692
1617990630.25822,10.58475,19.367219924926758
1617990630.27385,13.57945,19.38284993171692
1617990630.28948,15.82716,19.39847993850708
1617990630.3051,17.61043,19.41409993171692
1617990630.32073,18.94601,19.42972993850708
1617990630.33635,19.61209,19.44534993171692
1617990630.35198,19.48019,19.46097993850708
1617990630.3676,18.60994,19.47659993171692
1617990630.38323,17.31148,19.49222993850708
1617990630.39886,16.0558,19.50785994529724
1617990630.41448,15.30472,19.52347993850708
1617990630.43011,15.28426,19.53910994529724
1617990630.44573,15.96967,19.55472993850708
1617990630.46136,17.11731,19.57035994529724
1617990630.47698,18.42313,19.58597993850708
1617990630.49261,19.67897,19.60160994529724
1617990630.50824,20.82542,19.617239952087402
1617990630.52386,21.90808,19.63285994529724
1617990630.53949,22.99869,19.648489952087402
1617990630.55511,24.10077,19.66410994529724
1617990630.57074,25.08368,19.679739952087402
1617990630.58636,25.77229,19.69535994529724
1617990630.60199,25.9998,19.710989952087402
1617990630.61762,25.69215,19.726619958877563
1617990630.63324,24.94193,19.742239952087402
1617990630.64887,23.89491,19.757869958877563
1617990630.66449,22.77063,19.773489952087402
1617990630.68012,21.74002,19.789119958877563
1617990630.69574,20.9043,19.804739952087402
1617990630.71137,20.26712,19.820369958877563
1617990630.727,19.76773,19.835999965667725
1617990630.74262,19.32657,19.851619958877563
1617990630.75825,18.80542,19.867249965667725
1617990630.77387,18.10684,19.882869958877563
1617990630.7895,17.10809,19.898499965667725
1617990630.80512,15.74689,19.914119958877563
1617990630.82075,14.01801,19.929749965667725
1617990630.83638,11.93591,19.945379972457886
1617990630.852,9.538116,19.960999965667725
1617990630.86763,6.883728,19.976629972457886
1617990630.88325,4.091095,19.992249965667725
1617990630.89888,1.263245,20.007879972457886
1617990630.9145,-1.439514,20.023499965667725
1617990630.93013,-3.91452,20.039129972457886
1617990630.94576,-6.105621,20.054759979248047
1617990630.96138,-8.019684,20.070379972457886
1617990630.97701,-9.786743,20.086009979248047
1617990630.99263,-11.59601,20.101629972457886
1617990631.00826,-13.63272,20.117259979248047
1617990631.02388,-15.92972,20.132879972457886
1617990631.03951,-18.27657,20.148509979248047
1617990631.05514,-20.13943,20.164139986038208
1617990631.07076,-20.87505,20.179759979248047
1617990631.08639,-19.85997,20.195389986038208
1617990631.10201,-16.75482,20.211009979248047
1617990631.11764,-11.70787,20.226639986038208
1617990631.13326,-5.256149,20.242259979248047
1617990631.14889,1.771912,20.257889986038208
1617990631.16452,8.590668,20.27351999282837
1617990631.18014,14.6519,20.289139986038208
1617990631.19577,19.688,20.30476999282837
1617990631.21139,23.69333,20.320389986038208
1617990631.22702,26.769,20.33601999282837
1617990631.24264,29.05103,20.351639986038208
1617990631.25827,30.65233,20.36726999282837
1617990631.2739,31.72536,20.38289999961853
1617990631.28952,32.41393,20.39851999282837
1617990631.30515,32.88805,20.41414999961853
1617990631.32077,33.27013,20.42976999282837
1617990631.3364,33.6395,20.44539999961853
1617990631.35202,33.99702,20.46101999282837
1617990631.36765,34.31325,20.47664999961853
1617990631.38328,34.51883,20.49228000640869
1617990631.3989,34.53909,20.50789999961853
1617990631.41453,34.29532,20.52353000640869
1617990631.43015,33.71623,20.53914999961853
1617990631.44578,32.75723,20.55478000640869
1617990631.4614,31.3709,20.57039999961853
1617990631.47703,29.57613,20.58603000640869
1617990631.49266,27.40421,20.601660013198853
1617990631.50828,24.90749,20.61728000640869
1617990631.52391,22.14668,20.632910013198853
1617990631.53953,19.17014,20.64853000640869
1617990631.55516,16.00919,20.664160013198853
1617990631.57078,12.66451,20.67978000640869
1617990631.58641,9.110565,20.695410013198853
1617990631.60204,5.276993,20.711040019989014
1617990631.61766,1.065582,20.726660013198853
1617990631.63329,-3.574158,20.742290019989014
1617990631.64891,-8.613174,20.757910013198853
1617990631.66454,-13.88275,20.773540019989014
1617990631.68017,-19.10503,20.789170026779175
1617990631.69579,-23.96323,20.804790019989014
1617990631.71142,-28.26074,20.820420026779175
1617990631.72704,-31.91498,20.836040019989014
1617990631.74267,-35.02945,20.851670026779175
1617990631.75829,-37.74109,20.867290019989014
1617990631.77392,-40.19203,20.882920026779175
1617990631.78955,-42.4814,20.898550033569336
1617990631.80517,-44.66016,20.914170026779175
1617990631.8208,-46.75995,20.929800033569336
1617990631.83642,-48.7751,20.945420026779175
1617990631.85205,-50.63521,20.961050033569336
1617990631.86767,-52.13051,20.976670026779175
1617990631.8833,-52.93732,20.992300033569336
1617990631.89893,-52.64204,21.007930040359497
1617990631.91455,-50.9548,21.023550033569336
1617990631.93018,-47.81625,21.039180040359497
1617990631.9458,-43.41788,21.054800033569336
1617990631.96143,-38.21349,21.070430040359497
1617990631.97705,-32.6971,21.086050033569336
1617990631.99268,-27.31078,21.101680040359497
1617990632.00831,-22.39336,21.117310047149658
1617990632.02393,-18.09785,21.132930040359497
1617990632.03956,-14.46741,21.148560047149658
1617990632.05518,-11.52763,21.164180040359497
1617990632.07081,-9.330994,21.179810047149658
1617990632.08643,-7.929871,21.195430040359497
1617990632.10206,-7.422562,21.211060047149658
1617990632.11769,-7.85553,21.22669005393982
1617990632.13331,-9.175415,21.242310047149658
1617990632.14894,-11.23572,21.25794005393982
1617990632.16456,-13.72189,21.273560047149658
1617990632.18019,-16.20392,21.28919005393982
1617990632.19581,-18.30974,21.304810047149658
1617990632.21144,-19.87331,21.32044005393982
1617990632.22707,-20.82953,21.33607006072998
1617990632.24269,-21.27191,21.35169005393982
1617990632.25832,-21.2334,21.36732006072998
1617990632.27394,-20.6494,21.38294005393982
1617990632.28957,-19.43507,21.39857006072998
1617990632.30519,-17.59674,21.41419005393982
1617990632.32082,-15.37141,21.42982006072998
1617990632.33645,-13.23183,21.44545006752014
1617990632.35207,-11.7585,21.46107006072998
1617990632.3677,-11.30643,21.47670006752014
1617990632.38332,-11.96107,21.49232006072998
1617990632.39895,-13.46654,21.50795006752014
1617990632.41457,-15.4232,21.52357006072998
1617990632.4302,-17.49432,21.53920006752014
1617990632.44583,-19.51985,21.554830074310303
1617990632.46145,-21.51883,21.57045006752014
1617990632.47708,-23.57092,21.586080074310303
1617990632.4927,-25.71156,21.60170006752014
1617990632.50833,-27.88953,21.617330074310303
1617990632.52395,-30.01982,21.63295006752014
1617990632.53958,-32.007,21.648580074310303
1617990632.55521,-33.72948,21.664210081100464
1617990632.57083,-35.01912,21.679830074310303
1617990632.58646,-35.56999,21.695460081100464
1617990632.60208,-34.94383,21.711080074310303
1617990632.61771,-32.76178,21.726710081100464
1617990632.63333,-28.82314,21.742330074310303
1617990632.64896,-23.29732,21.757960081100464
1617990632.66459,-16.76898,21.773589849472046
1617990632.68021,-10.08028,21.789210081100464
1617990632.69584,-4.067032,21.804839849472046
1617990632.71146,0.599472,21.820460081100464
1617990632.72709,3.610672,21.836089849472046
1617990632.74271,5.052826,21.851710081100464
1617990632.75834,5.271332,21.867339849472046
1617990632.77397,4.769165,21.882969856262207
1617990632.78959,4.063721,21.898589849472046
1617990632.80522,3.586914,21.914219856262207
1617990632.82084,3.650787,21.929839849472046
1617990632.83647,4.502655,21.945469856262207
1617990632.85209,6.237366,21.961089849472046
1617990632.86772,8.822968,21.976719856262207
1617990632.88335,12.01996,21.992349863052368
1617990632.89897,15.47906,22.007969856262207
1617990632.9146,18.82834,22.023599863052368
1617990632.93022,21.84055,22.039219856262207
1617990632.94585,24.39334,22.054849863052368
1617990632.96147,26.48917,22.070469856262207
1617990632.9771,28.3176,22.086099863052368
1617990632.99273,30.03299,22.10172986984253
1617990633.00835,31.71893,22.117349863052368
1617990633.02398,33.30319,22.13297986984253
1617990633.0396,34.63309,22.148599863052368
1617990633.05523,35.50781,22.16422986984253
1617990633.07085,35.85495,22.179849863052368
1617990633.08648,35.62274,22.19547986984253
1617990633.10211,34.78049,22.21110987663269
1617990633.11773,33.38141,22.22672986984253
1617990633.13336,31.51282,22.24235987663269
1617990633.14898,29.27798,22.25797986984253
1617990633.16461,26.73618,22.27360987663269
1617990633.18023,23.95389,22.28922986984253
1617990633.19586,20.97174,22.30485987663269
1617990633.21149,17.86447,22.32048988342285
1617990633.22711,14.6861,22.33610987663269
1617990633.24274,11.52997,22.35173988342285
1617990633.25836,8.678925,22.36735987663269
1617990633.27399,6.918884,22.38298988342285
1617990633.28961,7.06662,22.39860987663269
1617990633.30524,9.553589,22.41423988342285
1617990633.32087,14.38547,22.429869890213013
1617990633.33649,21.09964,22.44548988342285
1617990633.35212,29.02725,22.461119890213013
1617990633.36774,37.39987,22.47673988342285
1617990633.38337,45.59186,22.492369890213013
1617990633.39899,53.14297,22.50798988342285
1617990633.41462,60.40701,22.523619890213013
1617990633.43025,67.57333,22.539249897003174
1617990633.44587,74.32465,22.554869890213013
1617990633.4615,80.06839,22.570499897003174
1617990633.47712,84.40421,22.586119890213013
1617990633.49275,87.45547,22.601749897003174
1617990633.50837,89.72507,22.617369890213013
1617990633.524,91.8638,22.632999897003174
1617990633.53963,94.30847,22.648629903793335
1617990633.55525,98.13181,22.664249897003174
1617990633.57088,103.541,22.679879903793335
1617990633.5865,109.6379,22.695499897003174
1617990633.60213,114.9851,22.711129903793335
1617990633.61775,118.5355,22.726749897003174
1617990633.63338,120.1409,22.742379903793335
1617990633.64901,120.3647,22.758009910583496
1617990633.66463,120.1379,22.773629903793335
1617990633.68026,120.0911,22.789259910583496
1617990633.69588,121.7398,22.804879903793335
1617990633.71151,125.2977,22.820509910583496
1617990633.72713,129.2975,22.836129903793335
1617990633.74276,131.2218,22.851759910583496
1617990633.75839,128.5885,22.867389917373657
1617990633.77401,119.7344,22.883009910583496
1617990633.78964,104.1817,22.898639917373657
1617990633.80526,82.85201,22.914259910583496
1617990633.82089,48.20683,22.929889917373657
1617990633.83651,-0.04774475,22.945509910583496
1617990633.85214,-55.00439,22.961139917373657
1617990633.86777,-105.7281,22.97676992416382
1617990633.88339,-143.4893,22.992389917373657
1617990633.89902,-165.4707,23.00801992416382
1617990633.91464,-172.7024,23.023639917373657
1617990633.93027,-169.8136,23.03926992416382
1617990633.94589,-160.3136,23.054889917373657
1617990633.96152,-146.8336,23.07051992416382
1617990633.97715,-130.3732,23.08614993095398
1617990633.99277,-112.7298,23.10176992416382
1617990634.0084,-97.60521,23.11739993095398
1617990634.02402,-88.18535,23.13301992416382
1617990634.03965,-85.6012,23.14864993095398
1617990634.05527,-88.4848,23.16426992416382
1617990634.0709,-93.77503,23.17989993095398
1617990634.08653,-97.89223,23.19552993774414
1617990634.10215,-98.34819,23.21114993095398
1617990634.11778,-93.26362,23.22677993774414
1617990634.1334,-83.00544,23.24239993095398
1617990634.14903,-69.77773,23.25802993774414
1617990634.16465,-55.99039,23.27364993095398
1617990634.18028,-42.90411,23.28927993774414
1617990634.19591,-30.51405,23.3049099445343
1617990634.21153,-18.11015,23.32052993774414
1617990634.22716,-4.569962,23.3361599445343
1617990634.24278,11.02356,23.35177993774414
1617990634.25841,30.11338,23.3674099445343
1617990634.27403,53.42863,23.38302993774414
1617990634.28966,77.44022,23.3986599445343
1617990634.30529,97.36484,23.414289951324463
1617990634.32091,108.6717,23.4299099445343
1617990634.33654,108.1546,23.445539951324463
1617990634.35216,94.4583,23.4611599445343
1617990634.36779,68.41286,23.476789951324463
1617990634.38342,32.87155,23.492419958114624
1617990634.39904,-6.96413,23.508039951324463
1617990634.41467,-45.21333,23.523669958114624
1617990634.43029,-77.20059,23.539289951324463
1617990634.44592,-101.6173,23.554919958114624
1617990634.46154,-117.9875,23.570539951324463
1617990634.47717,-126.7326,23.586169958114624
1617990634.4928,-128.9368,23.601799964904785
1617990634.50842,-125.8209,23.617419958114624
1617990634.52405,-118.5228,23.633049964904785
1617990634.53967,-108.0808,23.648669958114624
1617990634.5553,-95.98725,23.664299964904785
1617990634.57092,-82.44218,23.679919958114624
1617990634.58655,-68.67175,23.695549964904785
1617990634.60218,-55.51177,23.711179971694946
1617990634.6178,-43.32072,23.726799964904785
1617990634.63343,-31.97151,23.742429971694946
1617990634.64905,-21.07609,23.758049964904785
1617990634.66468,-10.41393,23.773679971694946
1617990634.6803,-0.09526825,23.789299964904785
1617990634.69593,9.295683,23.804929971694946
1617990634.71156,16.86455,23.820559978485107
1617990634.72718,21.85383,23.836179971694946
1617990634.74281,24.30482,23.851809978485107
1617990634.75843,24.83064,23.867429971694946
1617990634.77406,24.31135,23.883059978485107
1617990634.78968,23.68785,23.898679971694946
1617990634.80531,23.63391,23.914309978485107
1617990634.82094,24.39203,23.92993998527527
1617990634.83656,25.72959,23.945559978485107
1617990634.85219,27.07282,23.96118998527527
1617990634.86781,27.73287,23.976809978485107
1617990634.88344,27.46706,23.99243998527527
1617990634.89906,26.36995,24.008059978485107
1617990634.91469,24.68614,24.02368998527527
1617990634.93032,22.81479,24.03931999206543
1617990634.94594,21.16996,24.05493998527527
1617990634.96157,20.13918,24.07056999206543
1617990634.97719,19.97193,24.08618998527527
1617990634.99282,20.78469,24.10181999206543
1617990635.00844,22.36558,24.11743998527527
1617990635.02407,24.44332,24.13306999206543
1617990635.0397,26.55898,24.14869999885559
1617990635.05532,28.16009,24.16431999206543
1617990635.07095,28.8667,24.17994999885559
1617990635.08657,28.4959,24.19556999206543
1617990635.1022,27.16356,24.21119999885559
1617990635.11782,25.13001,24.22681999206543
1617990635.13345,22.75348,24.24244999885559
1617990635.14908,20.24582,24.258080005645752
1617990635.1647,17.78481,24.27369999885559
1617990635.18033,15.40582,24.289330005645752
1617990635.19595,13.12846,24.30494999885559
1617990635.21158,10.94615,24.320580005645752
1617990635.2272,8.911926,24.33619999885559
1617990635.24283,7.107018,24.351830005645752
1617990635.25846,5.632502,24.367460012435913
1617990635.27408,4.590586,24.383080005645752
1617990635.28971,3.941135,24.398710012435913
1617990635.30533,3.607847,24.414330005645752
1617990635.32096,3.46138,24.429960012435913
1617990635.33658,3.429996,24.445580005645752
1617990635.35221,3.465591,24.461210012435913
1617990635.36784,3.656185,24.476840019226074
1617990635.38346,4.041798,24.492460012435913
1617990635.39909,4.652515,24.508090019226074
1617990635.41471,5.397442,24.523710012435913
1617990635.43034,6.015247,24.539340019226074
1617990635.44596,6.191799,24.554960012435913
1617990635.46159,5.714775,24.570590019226074
1617990635.47722,4.516228,24.586220026016235
1617990635.49284,2.727646,24.601840019226074
1617990635.50847,0.5524864,24.617470026016235
1617990635.52409,-1.798584,24.633090019226074
1617990635.53972,-4.186848,24.648720026016235
1617990635.55534,-6.645031,24.664340019226074
1617990635.57097,-9.238876,24.679970026016235
1617990635.5866,-12.00758,24.695600032806396
1617990635.60222,-14.85277,24.711220026016235
1617990635.61785,-17.62276,24.726850032806396
1617990635.63347,-20.11405,24.742470026016235
1617990635.6491,-22.25376,24.758100032806396
1617990635.66472,-24.07013,24.773720026016235
1617990635.68035,-25.6758,24.789350032806396
1617990635.69598,-27.19609,24.804980039596558
1617990635.7116,-28.70176,24.820600032806396
1617990635.72723,-30.18975,24.836230039596558
1617990635.74285,-31.62157,24.851850032806396
1617990635.75848,-32.89122,24.867480039596558
1617990635.7741,-33.89649,24.883100032806396
1617990635.78973,-34.50316,24.898730039596558
1617990635.80536,-34.49773,24.91436004638672
1617990635.82098,-33.70864,24.929980039596558
1617990635.83661,-31.95735,24.94561004638672
1617990635.85223,-29.19776,24.961230039596558
1617990635.86786,-25.51125,24.97686004638672
1617990635.88348,-21.11185,24.992480039596558
1617990635.89911,-16.19649,25.00811004638672
1617990635.91474,-10.89378,25.02374005317688
1617990635.93036,-5.225815,25.03936004638672
1617990635.94599,0.8369904,25.05499005317688
1617990635.96161,7.172684,25.07061004638672
1617990635.97724,13.41837,25.08624005317688
1617990635.99286,18.9612,25.10186004638672
1617990636.00849,23.08895,25.11749005317688
1617990636.02412,25.31083,25.13312005996704
1617990636.03974,25.58594,25.14874005317688
1617990636.05537,24.43983,25.16437005996704
1617990636.07099,22.63147,25.17999005317688
1617990636.08662,20.93914,25.19562005996704
1617990636.10224,19.68349,25.21124005317688
1617990636.11787,18.60056,25.22687005996704
1617990636.1335,16.99132,25.242500066757202
1617990636.14912,14.04384,25.25812005996704
1617990636.16475,9.261284,25.273750066757202
1617990636.18037,2.598824,25.28937005996704
1617990636.196,-5.450996,25.305000066757202
1617990636.21162,-14.08938,25.32062005996704
1617990636.22725,-22.32411,25.336250066757202
1617990636.24288,-29.21434,25.351880073547363
1617990636.2585,-34.08215,25.367500066757202
1617990636.27413,-36.80846,25.383130073547363
1617990636.28975,-38.03714,25.398750066757202
1617990636.30538,-39.15503,25.414380073547363
1617990636.321,-42.04391,25.430000066757202
1617990636.33663,-48.4008,25.445630073547363
1617990636.35226,-59.01425,25.461260080337524
1617990636.36788,-73.1968,25.476880073547363
1617990636.38351,-88.84149,25.492510080337524
1617990636.39913,-102.9293,25.508130073547363
1617990636.41476,-112.5238,25.523760080337524
1617990636.43038,-115.6841,25.539380073547363
1617990636.44601,-111.9078,25.555010080337524
1617990636.46164,-102.1408,25.570639848709106
1617990636.47726,-88.23692,25.586260080337524
1617990636.49289,-72.31923,25.601889848709106
1617990636.50851,-56.28072,25.617510080337524
1617990636.52414,-41.53925,25.633139848709106
1617990636.53977,-29.08084,25.648769855499268
1617990636.55539,-19.51089,25.664389848709106
1617990636.57102,-13.14851,25.680019855499268
1617990636.58664,-9.841759,25.695639848709106
1617990636.60227,-8.839603,25.711269855499268
1617990636.61789,-8.822857,25.726889848709106
1617990636.63352,-8.1259,25.742519855499268
1617990636.64915,-5.300747,25.75814986228943
1617990636.66477,0.4148712,25.773769855499268
1617990636.6804,8.724937,25.78939986228943
1617990636.69602,18.47398,25.805019855499268
1617990636.71165,27.98009,25.82064986228943
1617990636.72727,35.69948,25.836269855499268
1617990636.7429,40.78386,25.85189986228943
1617990636.75853,43.26394,25.86752986907959
1617990636.77415,43.94927,25.88314986228943
1617990636.78978,43.94219,25.89877986907959
1617990636.8054,44.28614,25.91439986228943
1617990636.82103,45.52888,25.93002986907959
1617990636.83665,47.78807,25.94564986228943
1617990636.85228,50.7348,25.96127986907959
1617990636.86791,53.8984,25.97690987586975
1617990636.88353,56.83171,25.99252986907959
1617990636.89916,59.19999,26.00815987586975
1617990636.91478,60.80292,26.02377986907959
1617990636.93041,61.41477,26.03940987586975
1617990636.94603,60.8139,26.05502986907959
1617990636.96166,58.80982,26.07065987586975
1617990636.97729,55.36893,26.086289882659912
1617990636.99291,50.65321,26.10190987586975
1617990637.00854,45.01924,26.117539882659912
1617990637.02416,38.89116,26.13315987586975
1617990637.03979,32.60014,26.148789882659912
1617990637.05541,26.41135,26.16440987586975
1617990637.07104,20.50896,26.180039882659912
1617990637.08667,15.04981,26.195669889450073
1617990637.10229,10.24458,26.211289882659912
1617990637.11792,6.281998,26.226919889450073
1617990637.13354,3.294353,26.242539882659912
1617990637.14917,1.305832,26.258169889450073
1617990637.16479,0.2388611,26.273789882659912
1617990637.18042,-0.07673264,26.289419889450073
1617990637.19605,0.2138405,26.305049896240234
1617990637.21167,0.9722099,26.320669889450073
1617990637.2273,2.004059,26.336299896240234
1617990637.24292,3.102104,26.351919889450073
1617990637.25855,3.958118,26.367549896240234
1617990637.27417,4.32032,26.383169889450073
1617990637.2898,4.039303,26.398799896240234
1617990637.30543,3.039783,26.414429903030396
1617990637.32105,1.305325,26.430049896240234
1617990637.33668,-1.098591,26.445679903030396
1617990637.3523,-4.013371,26.461299896240234
1617990637.36793,-7.156853,26.476929903030396
1617990637.38355,-9.982044,26.492549896240234
1617990637.39918,-11.91296,26.508179903030396
1617990637.41481,-12.36946,26.523809909820557
1617990637.43043,-11.04138,26.539429903030396
1617990637.44606,-8.065907,26.555059909820557
1617990637.46168,-3.967052,26.570679903030396
1617990637.47731,0.468483,26.586309909820557
1617990637.49293,4.502205,26.601929903030396
1617990637.50856,7.576767,26.617559909820557
1617990637.52419,9.586296,26.633189916610718
1617990637.53981,10.58938,26.648809909820557
1617990637.55544,10.81963,26.664439916610718
1617990637.57106,10.47134,26.680059909820557
1617990637.58669,9.661011,26.695689916610718
1617990637.60231,8.49472,26.711309909820557
1617990637.61794,7.083908,26.726939916610718
1617990637.63357,5.615173,26.74256992340088
1617990637.64919,4.190575,26.758189916610718
1617990637.66482,2.950905,26.77381992340088
1617990637.68044,1.918991,26.789439916610718
1617990637.69607,1.156784,26.80506992340088
1617990637.71169,0.6982956,26.820689916610718
1617990637.72732,0.5921173,26.83631992340088
1617990637.74295,0.8435364,26.85194993019104
1617990637.75857,1.314697,26.86756992340088
1617990637.7742,1.655731,26.88319993019104
1617990637.78982,1.400475,26.89881992340088
1617990637.80545,0.1191254,26.91444993019104
1617990637.82107,-2.47052,26.93006992340088
1617990637.8367,-6.303162,26.94569993019104
1617990637.85233,-11.03478,26.9613299369812
1617990637.86795,-16.15842,26.97694993019104
1617990637.88358,-21.16379,26.9925799369812
1617990637.8992,-25.7141,27.00819993019104
1617990637.91483,-29.69481,27.0238299369812
1617990637.93045,-33.1897,27.03944993019104
1617990637.94608,-36.42444,27.0550799369812
1617990637.96171,-39.60536,27.070709943771362
1617990637.97733,-42.84703,27.0863299369812
1617990637.99296,-46.11331,27.101959943771362
1617990638.00858,-49.19073,27.1175799369812
1617990638.02421,-51.77998,27.133209943771362
1617990638.03983,-53.74287,27.1488299369812
1617990638.05546,-55.11413,27.164459943771362
1617990638.07109,-56.18546,27.180089950561523
1617990638.08671,-57.37244,27.195709943771362
1617990638.10234,-59.00896,27.211339950561523
1617990638.11796,-61.12595,27.226959943771362
1617990638.13359,-63.37902,27.242589950561523
1617990638.14921,-65.08704,27.258209943771362
1617990638.16484,-65.32018,27.273839950561523
1617990638.18047,-63.18464,27.289469957351685
1617990638.19609,-57.92869,27.305089950561523
1617990638.21172,-49.15121,27.320719957351685
1617990638.22734,-36.87743,27.336339950561523
1617990638.24297,-21.73405,27.351969957351685
1617990638.25859,-4.801407,27.367589950561523
1617990638.27422,12.50595,27.383219957351685
1617990638.28985,28.85205,27.398849964141846
1617990638.30547,43.38467,27.414469957351685
1617990638.3211,55.85515,27.430099964141846
1617990638.33672,66.56905,27.445719957351685
1617990638.35235,76.01964,27.461349964141846
1617990638.36797,84.55092,27.476969957351685
1617990638.3836,92.15184,27.492599964141846
1617990638.39923,98.56351,27.508229970932007
1617990638.41485,103.4317,27.523849964141846
1617990638.43048,106.5713,27.539479970932007
1617990638.4461,108.0367,27.555099964141846
1617990638.46173,107.9697,27.570729970932007
1617990638.47735,106.57,27.586349964141846
1617990638.49298,103.9233,27.601979970932007
1617990638.50861,100.086,27.617609977722168
1617990638.52423,95.13678,27.633229970932007
1617990638.53986,89.2421,27.648859977722168
1617990638.55548,82.61098,27.664479970932007
1617990638.57111,75.44313,27.680109977722168
1617990638.58673,67.87306,27.695729970932007
1617990638.60236,59.88704,27.711359977722168
1617990638.61799,51.47267,27.72698998451233
1617990638.63361,42.64192,27.742609977722168
1617990638.64924,33.41052,27.75823998451233
1617990638.66486,23.82597,27.773859977722168
1617990638.68049,13.97948,27.78948998451233
1617990638.69611,3.900406,27.805109977722168
1617990638.71174,-6.34169,27.82073998451233
1617990638.72737,-16.63948,27.83636999130249
1617990638.74299,-26.90501,27.85198998451233
1617990638.75862,-37.00259,27.86761999130249
1617990638.77424,-46.71716,27.88323998451233
1617990638.78987,-55.83708,27.89886999130249
1617990638.8055,-64.12053,27.91449999809265
1617990638.82112,-71.24504,27.93011999130249
1617990638.83675,-76.94891,27.94574999809265
1617990638.85237,-80.98952,27.96136999130249
1617990638.868,-83.15469,27.97699999809265
1617990638.88362,-83.33859,27.99261999130249
1617990638.89925,-81.53145,28.00824999809265
1617990638.91488,-77.75626,28.023880004882812
1617990638.9305,-72.19682,28.03949999809265
1617990638.94613,-65.08006,28.055130004882812
1617990638.96175,-56.73677,28.07074999809265
1617990638.97738,-47.60121,28.086380004882812
1617990638.993,-38.14348,28.10199999809265
1617990639.00863,-28.77202,28.117630004882812
1617990639.02426,-19.79674,28.133260011672974
1617990639.03988,-11.38199,28.148880004882812
1617990639.05551,-3.509659,28.164510011672974
1617990639.07113,3.82695,28.180130004882812
1617990639.08676,10.60228,28.195760011672974
1617990639.10238,16.65575,28.211380004882812
1617990639.11801,21.70363,28.227010011672974
1617990639.13364,25.4657,28.242640018463135
1617990639.14926,27.78389,28.258260011672974
1617990639.16489,28.69145,28.273890018463135
1617990639.18051,28.39551,28.289510011672974
1617990639.19614,27.26471,28.305140018463135
1617990639.21176,25.68867,28.320760011672974
1617990639.22739,24.01816,28.336390018463135
1617990639.24302,22.5233,28.352020025253296
1617990639.25864,21.32245,28.367640018463135
1617990639.27427,20.38222,28.383270025253296
1617990639.28989,19.54559,28.398890018463135
1617990639.30552,18.5251,28.414520025253296
1617990639.32114,17.13136,28.430140018463135
1617990639.33677,15.34956,28.445770025253296
1617990639.3524,13.37349,28.461400032043457
1617990639.36802,11.54851,28.477020025253296
1617990639.38365,10.2067,28.492650032043457
1617990639.39927,9.455139,28.508270025253296
1617990639.4149,9.147217,28.523900032043457
1617990639.43052,8.92305,28.539520025253296
1617990639.44615,8.363602,28.555150032043457
1617990639.46178,7.258942,28.570780038833618
1617990639.4774,5.617371,28.586400032043457
1617990639.49303,3.637131,28.602030038833618
1617990639.50865,1.560394,28.617650032043457
1617990639.52428,-0.4242401,28.633280038833618
1617990639.5399,-2.398056,28.648900032043457
1617990639.55553,-4.509369,28.664530038833618
1617990639.57116,-6.980865,28.68016004562378
1617990639.58678,-9.939484,28.695780038833618
1617990639.60241,-13.31363,28.71141004562378
1617990639.61803,-16.89246,28.727030038833618
1617990639.63366,-20.34387,28.74266004562378
1617990639.64928,-23.31679,28.758280038833618
1617990639.66491,-25.38275,28.77391004562378
1617990639.68054,-26.13774,28.78954005241394
1617990639.69616,-25.19052,28.80516004562378
1617990639.71179,-22.28659,28.82079005241394
1617990639.72741,-17.35881,28.83641004562378
1617990639.74304,-10.67981,28.85204005241394
1617990639.75866,-2.786591,28.86766004562378
1617990639.77429,5.618332,28.88329005241394
1617990639.78992,13.83691,28.8989200592041
1617990639.80554,21.3055,28.91454005241394
1617990639.82117,27.66486,28.9301700592041
1617990639.83679,32.7605,28.94579005241394
1617990639.85242,36.51817,28.9614200592041
1617990639.86804,38.93692,28.97704005241394
1617990639.88367,40.05011,28.9926700592041
1617990639.8993,39.86775,29.008300065994263
1617990639.91492,38.44724,29.0239200592041
1617990639.93055,35.97441,29.039550065994263
1617990639.94617,32.72369,29.0551700592041
1617990639.9618,29.10686,29.070800065994263
1617990639.97742,25.59715,29.0864200592041
1617990639.99305,22.63684,29.102050065994263
1617990640.00868,20.50836,29.117680072784424
1617990640.0243,19.30005,29.133300065994263
1617990640.03993,18.85246,29.148930072784424
1617990640.05555,18.84108,29.164550065994263
1617990640.07118,18.85913,29.180180072784424
1617990640.0868,18.56052,29.195800065994263
1617990640.10243,17.73964,29.211430072784424
1617990640.11806,16.36055,29.227060079574585
1617990640.13368,14.57069,29.242680072784424
1617990640.14931,12.55962,29.258310079574585
1617990640.16493,10.54552,29.273930072784424
1617990640.18056,8.68898,29.289560079574585
1617990640.19618,7.120575,29.305180072784424
1617990640.21181,5.811432,29.320810079574585
1617990640.22744,4.717957,29.336440086364746
1617990640.24306,3.747192,29.352060079574585
1617990640.25869,2.785706,29.367690086364746
1617990640.27431,1.787567,29.383310079574585
1617990640.28994,0.6778717,29.398940086364746
1617990640.30556,-0.5225372,29.414560079574585
1617990640.32119,-1.714676,29.430190086364746
1617990640.33682,-2.751587,29.445819854736328
1617990640.35244,-3.491364,29.461440086364746
1617990640.36807,-3.903351,29.477069854736328
1617990640.38369,-4.058807,29.492690086364746
1617990640.39932,-4.171814,29.508319854736328
1617990640.41494,-4.521194,29.523940086364746
1617990640.43057,-5.372986,29.539569854736328
1617990640.4462,-6.866806,29.55519986152649
1617990640.46182,-8.930786,29.570819854736328
1617990640.47745,-11.34375,29.58644986152649
1617990640.49307,-13.73511,29.602069854736328
1617990640.5087,-15.69447,29.61769986152649
1617990640.52432,-16.80946,29.633319854736328
1617990640.53995,-16.811,29.64894986152649
1617990640.55558,-15.53299,29.66457986831665
1617990640.5712,-13.07794,29.68019986152649
1617990640.58683,-9.752335,29.69582986831665
1617990640.60245,-6.028214,29.71144986152649
1617990640.61808,-2.470863,29.72707986831665
1617990640.6337,0.4973831,29.74269986152649
1617990640.64933,2.623131,29.75832986831665
1617990640.66496,3.870796,29.77395987510681
1617990640.68058,4.313515,29.78957986831665
1617990640.69621,4.241455,29.80520987510681
1617990640.71183,3.858437,29.82082986831665
1617990640.72746,3.437248,29.83645987510681
1617990640.74308,3.152229,29.85207986831665
1617990640.75871,3.070267,29.86770987510681
1617990640.77434,3.179382,29.883339881896973
1617990640.78996,3.34668,29.89895987510681
1617990640.80559,3.410133,29.914589881896973
1617990640.82121,3.29332,29.93020987510681
1617990640.83684,3.108734,29.945839881896973
1617990640.85246,3.038559,29.96145987510681
1617990640.86809,3.331863,29.977089881896973
1617990640.88372,4.091141,29.992719888687134
1617990640.89934,5.225708,30.008339881896973
1617990640.91497,6.482086,30.023969888687134
1617990640.93059,7.52253,30.039589881896973
1617990640.94622,8.080902,30.055219888687134
1617990640.96184,8.033279,30.070839881896973
1617990640.97747,7.408386,30.086469888687134
1617990640.9931,6.311882,30.102099895477295
1617990641.00872,4.894653,30.117719888687134
1617990641.02435,3.304436,30.133349895477295
1617990641.03997,1.641731,30.148969888687134
1617990641.0556,-0.003616333,30.164599895477295
1617990641.07122,-1.553711,30.180219888687134
1617990641.08685,-2.92923,30.195849895477295
1617990641.10248,-4.047264,30.211479902267456
1617990641.1181,-4.84684,30.227099895477295
1617990641.13373,-5.328896,30.242729902267456
1617990641.14935,-5.598549,30.258349895477295
1617990641.16498,-5.804512,30.273979902267456
1617990641.1806,-6.226372,30.289599895477295
1617990641.19623,-7.033192,30.305229902267456
1617990641.21186,-8.294998,30.320859909057617
1617990641.22748,-9.799412,30.336479902267456
1617990641.24311,-11.24057,30.352109909057617
1617990641.25873,-12.26491,30.367729902267456
1617990641.27436,-12.66957,30.383359909057617
1617990641.28998,-12.5382,30.398979902267456
1617990641.30561,-12.2431,30.414609909057617
1617990641.32124,-12.31626,30.43023991584778
1617990641.33686,-13.10757,30.445859909057617
1617990641.35249,-14.78988,30.46148991584778
1617990641.36811,-17.15369,30.477109909057617
1617990641.38374,-19.80646,30.49273991584778
1617990641.39937,-22.29209,30.50836992263794
1617990641.41499,-24.22554,30.52398991584778
1617990641.43062,-25.35223,30.53961992263794
1617990641.44624,-25.5421,30.55523991584778
1617990641.46187,-24.78114,30.57086992263794
1617990641.47749,-23.11695,30.58648991584778
1617990641.49312,-20.77693,30.60211992263794
1617990641.50875,-18.12247,30.6177499294281
1617990641.52437,-15.56778,30.63336992263794
1617990641.54,-13.35434,30.6489999294281
1617990641.55562,-11.45476,30.66461992263794
1617990641.57125,-9.463284,30.6802499294281
1617990641.58687,-6.814598,30.69586992263794
1617990641.6025,-3.137917,30.7114999294281
1617990641.61813,1.476254,30.72712993621826
1617990641.63375,6.341734,30.7427499294281
1617990641.64938,10.44596,30.75837993621826
1617990641.665,12.84528,30.7739999294281
1617990641.68063,13.15325,30.78962993621826
1617990641.69625,11.68861,30.8052499294281
1617990641.71188,9.31255,30.82087993621826
1617990641.72751,7.116638,30.836509943008423
1617990641.74313,6.00606,30.85212993621826
1617990641.75876,6.399315,30.867759943008423
1617990641.77438,8.231401,30.88337993621826
1617990641.79001,11.09422,30.899009943008423
1617990641.80563,14.41577,30.91462993621826
1617990641.82126,17.61844,30.930259943008423
1617990641.83689,20.27484,30.945889949798584
1617990641.85251,22.08356,30.961509943008423
1617990641.86814,22.93638,30.977139949798584
1617990641.88376,22.98286,30.992759943008423
1617990641.89939,22.55024,31.008389949798584
1617990641.91501,22.09088,31.024009943008423
1617990641.93064,22.05988,31.039639949798584
1617990641.94627,22.72832,31.055269956588745
1617990641.96189,24.10044,31.070889949798584
1617990641.97752,25.87324,31.086519956588745
1617990641.99314,27.50185,31.102139949798584
1617990642.00877,28.34354,31.117769956588745
1617990642.02439,27.86293,31.133389949798584
1617990642.04002,25.87624,31.149019956588745
1617990642.05565,22.57165,31.164649963378906
1617990642.07127,18.52184,31.180269956588745
1617990642.0869,14.42686,31.195899963378906
1617990642.10252,10.8358,31.211519956588745
1617990642.11815,8.005554,31.227149963378906
1617990642.13377,5.801199,31.242769956588745
1617990642.1494,3.911097,31.258399963378906
1617990642.16503,1.986483,31.274029970169067
1617990642.18065,-0.1258144,31.289649963378906
1617990642.19628,-2.334713,31.305279970169067
1617990642.2119,-4.318409,31.320899963378906
1617990642.22753,-5.752714,31.336529970169067
1617990642.24315,-6.427561,31.352149963378906
1617990642.25878,-6.356516,31.367779970169067
1617990642.27441,-5.821487,31.38340997695923
1617990642.29003,-5.327248,31.399029970169067
1617990642.30566,-5.471424,31.41465997695923
1617990642.32128,-6.727463,31.430279970169067
1617990642.33691,-9.261551,31.44590997695923
1617990642.35253,-12.77034,31.461529970169067
1617990642.36816,-16.57412,31.47715997695923
1617990642.38379,-19.7393,31.49278998374939
1617990642.39941,-21.4199,31.50840997695923
1617990642.41504,-21.1848,31.52403998374939
1617990642.43066,-19.17357,31.53965997695923
1617990642.44629,-16.21503,31.55528998374939
1617990642.46191,-13.49494,31.57090997695923
1617990642.47754,-12.21144,31.58653998374939
1617990642.49317,-13.12692,31.60216999053955
1617990642.50879,-16.3134,31.61778998374939
1617990642.52442,-21.09828,31.63341999053955
1617990642.54004,-26.32076,31.64903998374939
1617990642.55567,-30.76555,31.66466999053955
1617990642.57129,-33.46383,31.68028998374939
1617990642.58692,-33.92121,31.69591999053955
1617990642.60255,-32.1192,31.711549997329712
1617990642.61817,-28.31197,31.72716999053955
1617990642.6338,-22.92162,31.742799997329712
1617990642.64942,-16.48539,31.75841999053955
1617990642.66505,-9.646034,31.774049997329712
1617990642.68067,-3.182335,31.78966999053955
1617990642.6963,2.041702,31.805299997329712
1617990642.71193,5.359375,31.820930004119873
1617990642.72755,6.490982,31.836549997329712
1617990642.74318,5.6576,31.852180004119873
1617990642.7588,3.584541,31.867799997329712
1617990642.77443,1.279129,31.883430004119873
1617990642.79005,-0.2090836,31.899049997329712
1617990642.80568,-0.03897095,31.914680004119873
1617990642.82131,2.196632,31.930310010910034
1617990642.83693,6.382835,31.945930004119873
1617990642.85256,11.81518,31.961560010910034
1617990642.86818,17.23711,31.977180004119873
1617990642.88381,21.09876,31.992810010910034
1617990642.89943,21.97755,32.00843000411987
1617990642.91506,19.0538,32.024060010910034
1617990642.93069,12.48429,32.039690017700195
1617990642.94631,3.422348,32.055310010910034
1617990642.96194,-6.250999,32.070940017700195
1617990642.97756,-14.55209,32.086560010910034
1617990642.99319,-19.97404,32.102190017700195
1617990643.00881,-21.94292,32.117810010910034
1617990643.02444,-20.86092,32.133440017700195
1617990643.04007,-17.92529,32.149070024490356
1617990643.05569,-14.70731,32.164690017700195
1617990643.07132,-12.70775,32.180320024490356
1617990643.08694,-12.95692,32.195940017700195
1617990643.10257,-15.75145,32.211570024490356
1617990643.11819,-20.62093,32.227190017700195
1617990643.13382,-26.42233,32.242820024490356
1617990643.14945,-31.71613,32.25845003128052
1617990643.16507,-35.12991,32.274070024490356
1617990643.1807,-35.87467,32.28970003128052
1617990643.19632,-33.92502,32.305320024490356
1617990643.21195,-30.08665,32.32095003128052
1617990643.22757,-25.65165,32.336570024490356
1617990643.2432,-22.03794,32.35220003128052
1617990643.25883,-20.34708,32.36783003807068
1617990643.27445,-21.03168,32.38345003128052
1617990643.29008,-23.93856,32.39908003807068
1617990643.3057,-28.35736,32.41470003128052
1617990643.32133,-33.38602,32.43033003807068
1617990643.33695,-38.13673,32.44595003128052
1617990643.35258,-41.97813,32.46158003807068
1617990643.36821,-44.48174,32.47721004486084
1617990643.38383,-45.32531,32.49283003807068
1617990643.39946,-44.15331,32.50846004486084
1617990643.41508,-40.6032,32.52408003807068
1617990643.43071,-34.43069,32.53971004486084
1617990643.44633,-25.64005,32.55533003807068
1617990643.46196,-14.59759,32.57096004486084
1617990643.47759,-1.922493,32.586590051651
1617990643.49321,11.59383,32.60221004486084
1617990643.50884,25.09589,32.617840051651
1617990643.52446,37.83771,32.63346004486084
1617990643.54009,49.13103,32.649090051651
1617990643.55571,58.35002,32.66471004486084
1617990643.57134,64.92587,32.680340051651
1617990643.58697,68.34011,32.69597005844116
1617990643.60259,68.19314,32.711590051651
1617990643.61822,64.30105,32.72722005844116
1617990643.63384,56.79364,32.742840051651
1617990643.64947,46.16692,32.75847005844116
1617990643.6651,33.50652,32.77410006523132
1617990643.68072,20.30511,32.78972005844116
1617990643.69635,8.331646,32.80535006523132
1617990643.71197,-0.8356438,32.82097005844116
1617990643.7276,-6.138725,32.83660006523132
1617990643.74322,-7.225426,32.85222005844116
1617990643.75885,-4.391216,32.86785006523132
1617990643.77448,1.659824,32.883480072021484
1617990643.7901,9.896133,32.89910006523132
1617990643.80573,19.06257,32.914730072021484
1617990643.82135,27.65993,32.93035006523132
1617990643.83698,34.15052,32.945980072021484
1617990643.8526,37.26634,32.96160006523132
1617990643.86823,36.46595,32.977230072021484
1617990643.88386,32.2383,32.992860078811646
1617990643.89948,26.01402,33.008480072021484
1617990643.91511,19.66303,33.024110078811646
1617990643.93073,14.83321,33.039730072021484
1617990643.94636,12.4355,33.055360078811646
1617990643.96198,12.56815,33.070980072021484
1617990643.97761,14.7849,33.086610078811646
1617990643.99324,18.49279,33.10224008560181
1617990644.00886,23.13401,33.117860078811646
1617990644.02449,28.15892,33.13349008560181
1617990644.04011,32.86981,33.149110078811646
1617990644.05574,36.33151,33.16474008560181
1617990644.07136,37.40708,33.180360078811646
1617990644.08699,35.14892,33.19599008560181
1617990644.10262,29.13474,33.21161985397339
1617990644.11824,19.65031,33.22724008560181
1617990644.13387,7.674866,33.24286985397339
1617990644.14949,-5.39122,33.25849008560181
1617990644.16512,-17.98668,33.27411985397339
1617990644.18074,-28.77755,33.28974008560181
1617990644.19637,-36.6823,33.30536985397339
1617990644.212,-40.99885,33.32099986076355
1617990644.22762,-41.42679,33.33661985397339
1617990644.24325,-38.14043,33.35224986076355
1617990644.25887,-31.9295,33.36786985397339
1617990644.2745,-24.14237,33.38349986076355
1617990644.29012,-16.54585,33.39911985397339
1617990644.30575,-10.81604,33.41474986076355
1617990644.32138,-8.205772,33.43037986755371
1617990644.337,-9.046974,33.44599986076355
1617990644.35263,-12.76169,33.46162986755371
1617990644.36825,-18.17776,33.47724986076355
1617990644.38388,-23.94373,33.49287986755371
1617990644.3995,-29.03123,33.50849986076355
1617990644.41513,-32.95599,33.52412986755371
1617990644.43076,-35.69981,33.53975987434387
1617990644.44638,-37.41021,33.55537986755371
1617990644.46201,-38.17338,33.57100987434387
1617990644.47763,-37.7598,33.58662986755371
1617990644.49326,-35.71556,33.60225987434387
1617990644.50888,-31.6755,33.61787986755371
1617990644.52451,-25.51057,33.63350987434387
1617990644.54014,-17.69949,33.64913988113403
1617990644.55576,-9.153114,33.66475987434387
1617990644.57139,-1.025696,33.68038988113403
1617990644.58701,5.625046,33.69600987434387
1617990644.60264,10.22813,33.71163988113403
1617990644.61826,12.92194,33.72725987434387
1617990644.63389,14.48877,33.74288988113403
1617990644.64952,15.94335,33.758519887924194
1617990644.66514,18.27374,33.77413988113403
1617990644.68077,21.73284,33.789769887924194
1617990644.69639,25.89505,33.80538988113403
1617990644.71202,29.7952,33.821019887924194
1617990644.72764,32.48341,33.83663988113403
1617990644.74327,33.54854,33.852269887924194
1617990644.7589,33.29057,33.867899894714355
1617990644.77452,32.80285,33.883519887924194
1617990644.79015,33.18674,33.899149894714355
1617990644.80577,35.36301,33.914769887924194
1617990644.8214,39.10406,33.930399894714355
1617990644.83702,43.2059,33.946019887924194
1617990644.85265,45.89685,33.961649894714355
1617990644.86828,45.83317,33.97727990150452
1617990644.8839,42.75061,33.992899894714355
1617990644.89953,37.40266,34.00852990150452
1617990644.91515,31.19969,34.024149894714355
1617990644.93078,24.68342,34.03977990150452
1617990644.9464,17.67973,34.055399894714355
1617990644.96203,8.836739,34.07102990150452
1617990644.97766,-2.922905,34.08665990829468
1617990644.99328,-17.55054,34.10227990150452
1617990645.00891,-33.30615,34.11790990829468
1617990645.02453,-47.50311,34.13352990150452
1617990645.04016,-58.05038,34.14915990829468
1617990645.05578,-63.91748,34.16477990150452
1617990645.07141,-66.03313,34.18040990829468
1617990645.08704,-65.46412,34.19603991508484
1617990645.10266,-63.44949,34.21165990829468
1617990645.11829,-60.32041,34.22728991508484
1617990645.13391,-56.35685,34.24290990829468
1617990645.14954,-52.15436,34.25853991508484
1617990645.16516,-49.32356,34.27415990829468
1617990645.18079,-50.74722,34.28978991508484
1617990645.19642,-59.07891,34.305419921875
1617990645.21204,-76.80594,34.32103991508484
1617990645.22767,-98.77547,34.336669921875
1617990645.24329,-116.6538,34.35228991508484
1617990645.25892,-121.079,34.367919921875
1617990645.27454,-107.8698,34.38353991508484
1617990645.29017,-79.31947,34.399169921875
1617990645.3058,-40.92008,34.41479992866516
1617990645.32142,-2.048584,34.430419921875
1617990645.33705,36.04017,34.44604992866516
1617990645.35267,71.72551,34.461669921875
1617990645.3683,102.2337,34.47729992866516
1617990645.38392,122.8138,34.492919921875
1617990645.39955,129.7327,34.50854992866516
1617990645.41518,120.1811,34.52417993545532
1617990645.4308,95.02504,34.53979992866516
1617990645.44643,59.77346,34.55542993545532
1617990645.46205,23.8201,34.57104992866516
1617990645.47768,-1.235466,34.58667993545532
1617990645.4933,-6.468452,34.60229992866516
1617990645.50893,13.54221,34.61792993545532
1617990645.52456,53.12524,34.63355994224548
1617990645.54018,95.13449,34.64917993545532
1617990645.55581,116.2048,34.66480994224548
1617990645.57143,99.86743,34.68042993545532
1617990645.58706,44.7109,34.69605994224548
1617990645.60268,-36.52977,34.71167993545532
1617990645.61831,-123.3264,34.72730994224548
1617990645.63394,-196.4971,34.742939949035645
1617990645.64956,-243.0849,34.75855994224548
1617990645.66519,-265.2582,34.774189949035645
1617990645.68081,-265.0103,34.78980994224548
1617990645.69644,-245.0473,34.805439949035645
1617990645.71206,-208.4092,34.82105994224548
1617990645.72769,-159.0576,34.836689949035645
1617990645.74332,-102.5118,34.852319955825806
1617990645.75894,-44.88854,34.867939949035645
1617990645.77457,7.758345,34.883569955825806
1617990645.79019,50.9913,34.899189949035645
1617990645.80582,82.47169,34.914819955825806
1617990645.82144,102.587,34.930439949035645
1617990645.83707,112.4367,34.946069955825806
1617990645.8527,114.3036,34.96169996261597
1617990645.86832,111.134,34.977319955825806
1617990645.88395,105.7549,34.99294996261597
1617990645.89957,100.507,35.008569955825806
1617990645.9152,96.28538,35.02419996261597
1617990645.93083,92.44365,35.03982996940613
1617990645.94645,86.71333,35.05544996261597
1617990645.96208,77.15492,35.07107996940613
1617990645.9777,62.0582,35.08669996261597
1617990645.99333,41.53104,35.10232996940613
1617990646.00895,17.58708,35.11794996261597
1617990646.02458,-6.716698,35.13357996940613
1617990646.04021,-28.67915,35.14920997619629
1617990646.05583,-47.45085,35.16482996940613
1617990646.07146,-64.21181,35.18045997619629
1617990646.08708,-81.44519,35.19607996940613
1617990646.10271,-100.8086,35.21170997619629
1617990646.11833,-122.5354,35.22732996940613
1617990646.13396,-144.9649,35.24295997619629
1617990646.14959,-165.5962,35.25858998298645
1617990646.16521,-182.412,35.27420997619629
1617990646.18084,-194.8987,35.28983998298645
1617990646.19646,-203.9632,35.30545997619629
1617990646.21209,-210.8767,35.32108998298645
1617990646.22771,-216.1676,35.33670997619629
1617990646.24334,-218.808,35.35233998298645
1617990646.25897,-216.9239,35.36796998977661
1617990646.27459,-208.7487,35.38358998298645
1617990646.29022,-193.7027,35.39921998977661
1617990646.30584,-172.7616,35.41483998298645
1617990646.32147,-147.9179,35.43046998977661
1617990646.33709,-121.2752,35.44608998298645
1617990646.35272,-94.26926,35.46171998977661
1617990646.36835,-67.4702,35.47734999656677
1617990646.38397,-40.89299,35.49296998977661
1617990646.3996,-14.73608,35.50859999656677
1617990646.41522,10.29254,35.52421998977661
1617990646.43085,33.03256,35.53984999656677
1617990646.44647,52.27866,35.55546998977661
1617990646.4621,67.34464,35.57109999656677
1617990646.47773,78.18552,35.586730003356934
1617990646.49335,85.40948,35.60234999656677
1617990646.50898,89.87033,35.617980003356934
1617990646.5246,92.40359,35.63359999656677
1617990646.54023,93.72885,35.649230003356934
1617990646.55585,94.57278,35.66484999656677
1617990646.57148,95.69559,35.680480003356934
1617990646.58711,97.85034,35.696110010147095
1617990646.60273,101.4508,35.711730003356934
1617990646.61836,106.3006,35.727360010147095
1617990646.63398,111.5916,35.742980003356934
1617990646.64961,116.1861,35.758610010147095
1617990646.66523,119.2458,35.774230003356934
1617990646.68086,120.6635,35.789860010147095
1617990646.69649,121.1187,35.805490016937256
1617990646.71211,121.6129,35.821110010147095
1617990646.72774,122.872,35.836740016937256
1617990646.74336,124.8628,35.852360010147095
1617990646.75899,126.8425,35.867990016937256
1617990646.77461,127.8495,35.883610010147095
1617990646.79024,127.2526,35.899240016937256
1617990646.80587,125.0337,35.91487002372742
1617990646.82149,121.7123,35.930490016937256
1617990646.83712,117.8598,35.94612002372742
1617990646.85274,113.8085,35.961740016937256
1617990646.86837,109.5538,35.97737002372742
1617990646.88399,104.9376,35.992990016937256
1617990646.89962,99.92719,36.00862002372742
1617990646.91525,94.80188,36.02425003051758
1617990646.93087,89.99408,36.03987002372742
1617990646.9465,85.80231,36.05550003051758
1617990646.96212,82.18945,36.07112002372742
1617990646.97775,78.63574,36.08675003051758
1617990646.99337,74.39081,36.10237002372742
1617990647.009,68.72583,36.11800003051758
1617990647.02463,61.18854,36.13363003730774
1617990647.04025,51.7691,36.14925003051758
1617990647.05588,41.00714,36.16488003730774
1617990647.0715,29.89166,36.18050003051758
1617990647.08713,19.66687,36.19613003730774
1617990647.10275,11.52484,36.21175003051758
1617990647.11838,6.10321,36.22738003730774
1617990647.13401,3.333252,36.2430100440979
1617990647.14963,2.307068,36.25863003730774
1617990647.16526,1.473572,36.2742600440979
1617990647.18088,-0.9550781,36.28988003730774
1617990647.19651,-6.473389,36.3055100440979
1617990647.21213,-15.81531,36.32113003730774
1617990647.22776,-28.84973,36.3367600440979
1617990647.24339,-44.48389,36.35239005088806
1617990647.25901,-61.08606,36.3680100440979
1617990647.27464,-76.76056,36.38364005088806
1617990647.29026,-89.83893,36.3992600440979
1617990647.30589,-99.16907,36.41489005088806
1617990647.32151,-104.269,36.4305100440979
1617990647.33714,-105.2581,36.44614005088806
1617990647.35277,-102.5434,36.46177005767822
1617990647.36839,-96.59302,36.47739005088806
1617990647.38402,-87.70282,36.49302005767822
1617990647.39964,-76.16766,36.50864005088806
1617990647.41527,-62.34912,36.52427005767822
1617990647.43089,-46.89655,36.53989005088806
1617990647.44652,-30.7049,36.55552005767822
1617990647.46215,-14.69568,36.571150064468384
1617990647.47777,0.4254761,36.58677005767822
1617990647.4934,14.3866,36.602400064468384
1617990647.50902,27.29388,36.61802005767822
1617990647.52465,39.39117,36.633650064468384
1617990647.54027,50.66534,36.64927005767822
1617990647.5559,60.75189,36.664900064468384
1617990647.57153,68.90112,36.680530071258545
1617990647.58715,74.35693,36.696150064468384
1617990647.60278,76.70496,36.711780071258545
1617990647.6184,76.10052,36.727400064468384
1617990647.63403,73.27838,36.743030071258545
1617990647.64965,69.28284,36.758650064468384
1617990647.66528,65.0575,36.774280071258545
1617990647.68091,61.1178,36.789910078048706
1617990647.69653,57.534,36.805530071258545
1617990647.71216,54.07544,36.821160078048706
1617990647.72778,50.5108,36.836780071258545
1617990647.74341,46.8241,36.852410078048706
1617990647.75903,43.20807,36.868030071258545
1617990647.77466,39.95386,36.883660078048706
1617990647.79029,37.18835,36.89929008483887
1617990647.80591,34.89874,36.914910078048706
1617990647.82154,32.9187,36.93054008483887
1617990647.83716,31.12665,36.946160078048706
1617990647.85279,29.56763,36.96179008483887
1617990647.86841,28.47278,36.977410078048706
1617990647.88404,28.12793,36.99304008483887
1617990647.89967,28.66711,37.00866985321045
1617990647.91529,29.92493,37.02429008483887
1617990647.93092,31.41632,37.03991985321045
1617990647.94654,32.51825,37.05554008483887
1617990647.96217,32.69415,37.07116985321045
1617990647.97779,31.62671,37.08679008483887
1617990647.99342,29.3078,37.10241985321045
1617990648.00905,26.00171,37.11804986000061
1617990648.02467,22.05066,37.13366985321045
1617990648.0403,17.81409,37.14929986000061
1617990648.05592,13.56653,37.16491985321045
1617990648.07155,9.50415,37.18054986000061
1617990648.08717,5.82843,37.19616985321045
1617990648.1028,2.66333,37.21179986000061
1617990648.11843,0.05834961,37.22742986679077
1617990648.13405,-2.042542,37.24304986000061
1617990648.14968,-3.759766,37.25867986679077
1617990648.1653,-5.224426,37.27429986000061
1617990648.18093,-6.54126,37.28992986679077
1617990648.19655,-7.660828,37.30554986000061
1617990648.21218,-8.437988,37.32117986679077
1617990648.22781,-8.634216,37.33680987358093
1617990648.24343,-8.123047,37.35242986679077
1617990648.25906,-6.960815,37.36805987358093
1617990648.27468,-5.445679,37.38367986679077
1617990648.29031,-4.034058,37.39930987358093
1617990648.30593,-3.198608,37.41492986679077
1617990648.32156,-3.265869,37.43055987358093
1617990648.33719,-4.239502,37.446189880371094
1617990648.35281,-5.760986,37.46180987358093
1617990648.36844,-7.170044,37.477439880371094
1617990648.38406,-7.76416,37.49305987358093
1617990648.39969,-6.943787,37.508689880371094
1617990648.41531,-4.420105,37.52430987358093
1617990648.43094,-0.303772,37.539939880371094
1617990648.44657,4.892212,37.555569887161255
1617990648.46219,10.41992,37.571189880371094
1617990648.47782,15.43506,37.586819887161255
1617990648.49344,19.18811,37.602439880371094
1617990648.50907,21.25635,37.618069887161255
1617990648.5247,21.54022,37.633699893951416
1617990648.54032,20.34924,37.649319887161255
1617990648.55595,18.3031,37.664949893951416
1617990648.57157,16.1283,37.680569887161255
1617990648.5872,14.48309,37.696199893951416
1617990648.60282,13.76483,37.711819887161255
1617990648.61845,14.0058,37.727449893951416
1617990648.63408,14.88043,37.74307990074158
1617990648.6497,15.95526,37.758699893951416
1617990648.66533,16.83118,37.77432990074158
1617990648.68095,17.32825,37.789949893951416
1617990648.69658,17.56421,37.80557990074158
1617990648.7122,17.73676,37.821199893951416
1617990648.72783,18.01843,37.83682990074158
1617990648.74346,18.39868,37.85245990753174
1617990648.75908,18.7312,37.86807990074158
1617990648.77471,18.83264,37.88370990753174
1617990648.79033,18.61591,37.89932990074158
1617990648.80596,18.12964,37.91495990753174
1617990648.82158,17.5014,37.93057990074158
1617990648.83721,16.85718,37.94620990753174
1617990648.85284,16.18848,37.9618399143219
1617990648.86846,15.41663,37.97745990753174
1617990648.88409,14.36127,37.9930899143219
1617990648.89971,12.9173,38.00870990753174
1617990648.91534,11.07446,38.0243399143219
1617990648.93096,8.992859,38.03995990753174
1617990648.94659,6.933105,38.0555899143219
1617990648.96222,5.18808,38.07121992111206
1617990648.97784,4.005951,38.0868399143219
1617990648.99347,3.485474,38.10246992111206
1617990649.00909,3.523804,38.1180899143219
1617990649.02472,3.839172,38.13371992111206
1617990649.04034,4.02063,38.1493399143219
1617990649.05597,3.643585,38.16496992111206
1617990649.0716,2.363403,38.18059992790222
1617990649.08722,0.02233887,38.19621992111206
1617990649.10285,-3.394623,38.21184992790222
1617990649.11847,-7.760559,38.22746992111206
1617990649.1341,-12.89944,38.24309992790222
1617990649.14972,-18.50995,38.25871992111206
1617990649.16535,-24.23212,38.27434992790222
1617990649.18098,-29.61407,38.28997993469238
1617990649.1966,-34.19226,38.30559992790222
1617990649.21223,-37.55374,38.32122993469238
1617990649.22785,-39.40198,38.33684992790222
1617990649.24348,-39.6972,38.35247993469238
1617990649.2591,-38.61575,38.36809992790222
1617990649.27473,-36.66949,38.38372993469238
1617990649.29036,-34.53101,38.399359941482544
1617990649.30598,-32.90454,38.41497993469238
1617990649.32161,-32.32068,38.430609941482544
1617990649.33723,-32.98398,38.44622993469238
1617990649.35286,-34.6709,38.461859941482544
1617990649.36848,-36.7782,38.47747993469238
1617990649.38411,-38.64371,38.493109941482544
1617990649.39974,-39.65778,38.508739948272705
1617990649.41536,-39.55109,38.524359941482544
1617990649.43099,-38.36542,38.539989948272705
1617990649.44661,-36.36459,38.555609941482544
1617990649.46224,-33.93112,38.571239948272705
1617990649.47786,-31.3985,38.586859941482544
1617990649.49349,-29.03122,38.602489948272705
1617990649.50912,-26.98557,38.618119955062866
1617990649.52474,-25.42239,38.633739948272705
1617990649.54037,-24.40338,38.649369955062866
1617990649.55599,-23.90698,38.664989948272705
1617990649.57162,-23.82022,38.680619955062866
1617990649.58724,-23.91058,38.696239948272705
1617990649.60287,-23.89059,38.711869955062866
1617990649.6185,-23.50699,38.72749996185303
1617990649.63412,-22.66245,38.743119955062866
1617990649.64975,-21.3486,38.75874996185303
1617990649.66537,-19.73636,38.774369955062866
1617990649.681,-17.98883,38.78999996185303
1617990649.69662,-16.27032,38.805619955062866
1617990649.71225,-14.71121,38.82124996185303
1617990649.72788,-13.3566,38.83687996864319
1617990649.7435,-12.27554,38.85249996185303
1617990649.75913,-11.48682,38.86812996864319
1617990649.77475,-10.99966,38.88374996185303
1617990649.79038,-10.74719,38.89937996864319
1617990649.806,-10.6492,38.91499996185303
1617990649.82163,-10.56793,38.93062996864319
1617990649.83726,-10.38275,38.94625997543335
1617990649.85288,-10.08453,38.96187996864319
1617990649.86851,-9.666138,38.97750997543335
1617990649.88413,-9.304962,38.99312996864319
1617990649.89976,-9.166962,39.00875997543335
1617990649.91538,-9.452972,39.02437996864319
1617990649.93101,-10.16293,39.04000997543335
1617990649.94664,-11.25912,39.05563998222351
1617990649.96226,-12.65729,39.07125997543335
1617990649.97789,-14.30746,39.08688998222351
1617990649.99351,-16.23859,39.10250997543335
1617990650.00914,-18.44412,39.11813998222351
1617990650.02476,-20.90405,39.13375997543335
1617990650.04039,-23.43677,39.14938998222351
1617990650.05602,-25.75803,39.16501998901367
1617990650.07164,-27.33594,39.18063998222351
1617990650.08727,-27.72668,39.19626998901367
1617990650.10289,-26.8172,39.21188998222351
1617990650.11852,-24.86282,39.22751998901367
1617990650.13414,-22.50107,39.24313998222351
1617990650.14977,-20.42221,39.25876998901367
1617990650.1654,-19.07043,39.27439999580383
1617990650.18102,-18.37646,39.29001998901367
1617990650.19665,-17.73691,39.30564999580383
1617990650.21227,-16.04001,39.32126998901367
1617990650.2279,-12.38162,39.33689999580383
1617990650.24352,-6.522888,39.35251998901367
1617990650.25915,0.8777771,39.36814999580383
1617990650.27478,8.464386,39.383780002593994
1617990650.2904,14.78033,39.39939999580383
1617990650.30603,18.85834,39.415030002593994
1617990650.32165,20.55975,39.43064999580383
1617990650.33728,20.57248,39.446280002593994
1617990650.3529,20.58255,39.46189999580383
1617990650.36853,22.02606,39.477530002593994
1617990650.38416,25.22916,39.493160009384155
1617990650.39978,29.30258,39.508780002593994
1617990650.41541,32.48938,39.524410009384155
1617990650.43103,33.27658,39.540030002593994
1617990650.44666,31.11844,39.555660009384155
1617990650.46228,26.71042,39.571280002593994
1617990650.47791,21.66833,39.586910009384155
1617990650.49354,18.95157,39.602540016174316
1617990650.50916,20.69247,39.618160009384155
1617990650.52479,27.17273,39.633790016174316
1617990650.54041,36.81421,39.649410009384155
1617990650.55604,47.0332,39.665040016174316
1617990650.57166,55.69345,39.680660009384155
1617990650.58729,61.85321,39.696290016174316
1617990650.60292,65.72437,39.71192002296448
1617990650.61854,68.0574,39.727540016174316
1617990650.63417,71.51462,39.74317002296448
1617990650.64979,78.17554,39.758790016174316
1617990650.66542,88.65576,39.77442002296448
1617990650.68105,102.007,39.79005002975464
1617990650.69667,116.4974,39.80567002296448
1617990650.7123,130.4286,39.82130002975464
1617990650.72792,142.3826,39.83692002296448
1617990650.74355,151.2769,39.85255002975464
1617990650.75917,156.3063,39.86817002296448
1617990650.7748,159.9761,39.88380002975464
1617990650.79043,165.4116,39.8994300365448
1617990650.80605,174.6465,39.91505002975464
1617990650.82168,187.2247,39.9306800365448
1617990650.8373,200.14,39.94630002975464
1617990650.85293,208.9841,39.9619300365448
1617990650.86855,209.5553,39.97755002975464
1617990650.88418,199.6735,39.9931800365448
1617990650.89981,167.2128,40.00881004333496
1617990650.91543,109.4737,40.0244300365448
1617990650.93106,35.21259,40.04006004333496
1617990650.94668,-38.04483,40.0556800365448
1617990650.96231,-94.33209,40.07131004333496
1617990650.97793,-127.8105,40.0869300365448
1617990650.99356,-142.6553,40.10256004333496
1617990651.00919,-147.2164,40.11819005012512
1617990651.02481,-147.6683,40.13381004333496
1617990651.04044,-147.1684,40.14944005012512
1617990651.05606,-142.6028,40.16506004333496
1617990651.07169,-129.3446,40.18069005012512
1617990651.08731,-104.1595,40.19631004333496
1617990651.10294,-66.67908,40.21194005012512
1617990651.11857,-19.40794,40.22757005691528
1617990651.13419,32.88608,40.24319005012512
1617990651.14982,78.44368,40.25882005691528
1617990651.16544,102.5329,40.27444005012512
1617990651.18107,91.82874,40.29007005691528
1617990651.19669,45.20226,40.30569005012512
1617990651.21232,-24.07216,40.32132005691528
1617990651.22795,-93.94907,40.336950063705444
1617990651.24357,-144.2689,40.35257005691528
1617990651.2592,-165.3358,40.368200063705444
1617990651.27482,-162.7939,40.38382005691528
1617990651.29045,-147.8294,40.399450063705444
1617990651.30607,-129.614,40.41507005691528
1617990651.3217,-112.6295,40.430700063705444
1617990651.33733,-95.4165,40.446330070495605
1617990651.35295,-75.01668,40.461950063705444
1617990651.36858,-51.17632,40.477580070495605
1617990651.3842,-28.03122,40.493200063705444
1617990651.39983,-11.86266,40.508830070495605
1617990651.41545,-8.210991,40.524450063705444
1617990651.43108,-18.09886,40.540080070495605
1617990651.44671,-37.70647,40.55571007728577
1617990651.46233,-60.49061,40.571330070495605
1617990651.47796,-78.92963,40.58696007728577
1617990651.49358,-88.09275,40.602580070495605
1617990651.50921,-87.49329,40.61821007728577
1617990651.52483,-80.72542,40.633830070495605
1617990651.54046,-73.11403,40.64946007728577
1617990651.55609,-69.03776,40.66509008407593
1617990651.57171,-69.84805,40.68071007728577
1617990651.58734,-73.88219,40.69634008407593
1617990651.60296,-78.05023,40.71196007728577
1617990651.61859,-78.94997,40.72759008407593
1617990651.63421,-74.76051,40.74321007728577
1617990651.64984,-66.00075,40.75884008407593
1617990651.66547,-55.16346,40.77446985244751
1617990651.68109,-45.25597,40.79009008407593
1617990651.69672,-38.46578,40.80571985244751
1617990651.71234,-35.1519,40.82134008407593
1617990651.72797,-34.10792,40.83696985244751
1617990651.74359,-33.52218,40.85259008407593
1617990651.75922,-31.55389,40.86821985244751
1617990651.77485,-27.19633,40.88384985923767
1617990651.79047,-20.52347,40.89946985244751
1617990651.8061,-12.50245,40.91509985923767
1617990651.82172,-4.373604,40.93071985244751
1617990651.83735,2.911201,40.94634985923767
1617990651.85297,9.134369,40.96196985244751
1617990651.8686,14.60839,40.97759985923767
1617990651.88423,19.73778,40.99322986602783
1617990651.89985,24.84342,41.00884985923767
1617990651.91548,29.91498,41.02447986602783
1617990651.9311,34.62464,41.04009985923767
1617990651.94673,38.56041,41.05572986602783
1617990651.96235,41.42198,41.07134985923767
1617990651.97798,43.14849,41.08697986602783
1617990651.99361,43.93758,41.10260987281799
1617990652.00923,44.03059,41.11822986602783
1617990652.02486,43.54844,41.13385987281799
1617990652.04048,42.50137,41.14947986602783
1617990652.05611,40.85455,41.16510987281799
1617990652.07173,38.60963,41.18072986602783
1617990652.08736,35.90184,41.19635987281799
1617990652.10299,32.9939,41.211989879608154
1617990652.11861,30.17519,41.22760987281799
1617990652.13424,27.65814,41.243239879608154
1617990652.14986,25.53168,41.25885987281799
1617990652.16549,23.7377,41.274489879608154
1617990652.18111,22.12157,41.29010987281799
1617990652.19674,20.57293,41.305739879608154
1617990652.21237,19.02383,41.321369886398315
1617990652.22799,17.45409,41.336989879608154
1617990652.24362,15.80141,41.352619886398315
1617990652.25924,14.06755,41.368239879608154
1617990652.27487,12.21754,41.383869886398315
1617990652.29049,10.36752,41.399489879608154
1617990652.30612,8.683983,41.415119886398315
1617990652.32175,7.37722,41.43074989318848
1617990652.33737,6.547935,41.446369886398315
1617990652.353,6.127411,41.46199989318848
1617990652.36862,5.918533,41.477619886398315
1617990652.38425,5.617912,41.49324989318848
1617990652.39987,5.079308,41.508869886398315
1617990652.4155,4.244537,41.52449989318848
1617990652.43113,3.215172,41.54012989997864
