timestamp,value,norm_ts
1618935526.20178,11.3237,4.1389000415802
1618935526.21741,10.70209,4.154530048370361
1618935526.23303,9.929276,4.1701500415802
1618935526.24866,8.931778,4.185780048370361
1618935526.26428,7.712997,4.2014000415802
1618935526.27991,6.358643,4.217030048370361
1618935526.29553,4.979752,4.2326500415802
1618935526.31116,3.65773,4.248280048370361
1618935526.32679,2.403488,4.2639100551605225
1618935526.34241,1.150406,4.279530048370361
1618935526.35804,-0.1646423,4.2951600551605225
1618935526.37366,-1.607071,4.310780048370361
1618935526.38929,-3.164017,4.3264100551605225
1618935526.40491,-4.808655,4.342030048370361
1618935526.42054,-6.545761,4.3576600551605225
1618935526.43617,-8.465225,4.373290061950684
1618935526.45179,-10.75052,4.3889100551605225
1618935526.46742,-13.57962,4.404540061950684
1618935526.48304,-16.96899,4.4201600551605225
1618935526.49867,-20.62219,4.435790061950684
1618935526.51429,-23.95226,4.4514100551605225
1618935526.52992,-26.18942,4.467040061950684
1618935526.54555,-26.68205,4.482670068740845
1618935526.56117,-25.10626,4.498290061950684
1618935526.5768,-21.56403,4.513920068740845
1618935526.59242,-16.5563,4.529540061950684
1618935526.60805,-10.73495,4.545170068740845
1618935526.62367,-4.758545,4.560790061950684
1618935526.6393,0.8627319,4.576420068740845
1618935526.65493,5.770187,4.592050075531006
1618935526.67055,9.734222,4.607670068740845
1618935526.68618,12.63174,4.623300075531006
1618935526.7018,14.44603,4.638920068740845
1618935526.71743,15.31416,4.654550075531006
1618935526.73305,15.48918,4.670170068740845
1618935526.74868,15.27644,4.685800075531006
1618935526.76431,14.92403,4.701429843902588
1618935526.77993,14.58972,4.717050075531006
1618935526.79556,14.33246,4.732679843902588
1618935526.81118,14.18245,4.748300075531006
1618935526.82681,14.15524,4.763929843902588
1618935526.84243,14.24255,4.779550075531006
1618935526.85806,14.37811,4.795179843902588
1618935526.87369,14.38634,4.810809850692749
1618935526.88931,14.06339,4.826429843902588
1618935526.90494,13.23077,4.842059850692749
1618935526.92056,11.83856,4.857679843902588
1618935526.93619,9.977524,4.873309850692749
1618935526.95181,7.833008,4.888929843902588
1618935526.96744,5.572067,4.904559850692749
1618935526.98307,3.275482,4.92018985748291
1618935526.99869,0.9414368,4.935809850692749
1618935527.01432,-1.447708,4.95143985748291
1618935527.02994,-3.856354,4.967059850692749
1618935527.04557,-6.206696,4.98268985748291
1618935527.06119,-8.437561,4.998309850692749
1618935527.07682,-10.59933,5.01393985748291
1618935527.09245,-12.89877,5.029569864273071
1618935527.10807,-15.58728,5.04518985748291
1618935527.1237,-18.77081,5.060819864273071
1618935527.13932,-22.22723,5.07643985748291
1618935527.15495,-25.35095,5.092069864273071
1618935527.17057,-27.28857,5.10768985748291
1618935527.1862,-27.259,5.123319864273071
1618935527.20183,-24.88251,5.138949871063232
1618935527.21745,-20.35425,5.154569864273071
1618935527.23308,-14.35464,5.170199871063232
1618935527.2487,-7.798492,5.185819864273071
1618935527.26433,-1.49762,5.201449871063232
1618935527.27995,4.039337,5.217069864273071
1618935527.29558,8.608948,5.232699871063232
1618935527.31121,12.185,5.2483298778533936
1618935527.32683,14.77383,5.263949871063232
1618935527.34246,16.33417,5.2795798778533936
1618935527.35808,16.84772,5.295199871063232
1618935527.37371,16.40315,5.3108298778533936
1618935527.38933,15.26581,5.326449871063232
1618935527.40496,13.85068,5.3420798778533936
1618935527.42059,12.57828,5.357709884643555
1618935527.43621,11.74225,5.3733298778533936
1618935527.45184,11.41763,5.388959884643555
1618935527.46746,11.46634,5.4045798778533936
1618935527.48309,11.62869,5.420209884643555
1618935527.49871,11.664,5.4358298778533936
1618935527.51434,11.45358,5.451459884643555
1618935527.52997,10.97928,5.467089891433716
1618935527.54559,10.29236,5.482709884643555
1618935527.56122,9.408752,5.498339891433716
1618935527.57684,8.270996,5.513959884643555
1618935527.59247,6.775269,5.529589891433716
1618935527.60809,4.844818,5.545209884643555
1618935527.62372,2.518402,5.560839891433716
1618935527.63935,-0.01077271,5.576469898223877
1618935527.65497,-2.472137,5.592089891433716
1618935527.6706,-4.638428,5.607719898223877
1618935527.68622,-6.45697,5.623339891433716
1618935527.70185,-8.096069,5.638969898223877
1618935527.71748,-9.888123,5.654599905014038
1618935527.7331,-12.16919,5.670219898223877
1618935527.74873,-15.08017,5.685849905014038
1618935527.76435,-18.44531,5.701469898223877
1618935527.77998,-21.71368,5.717099905014038
1618935527.7956,-24.13449,5.732719898223877
1618935527.81123,-24.99106,5.748349905014038
1618935527.82686,-23.85168,5.763979911804199
1618935527.84248,-20.72849,5.779599905014038
1618935527.85811,-16.03995,5.795229911804199
1618935527.87373,-10.45282,5.810849905014038
1618935527.88936,-4.643463,5.826479911804199
1618935527.90498,0.8800354,5.842099905014038
1618935527.92061,5.821625,5.857729911804199
1618935527.93624,10.04349,5.87335991859436
1618935527.95186,13.4465,5.888979911804199
1618935527.96749,15.92209,5.90460991859436
1618935527.98311,17.36218,5.920229911804199
1618935527.99874,17.742,5.93585991859436
1618935528.01436,17.18307,5.951479911804199
1618935528.02999,15.95844,5.96710991859436
1618935528.04562,14.41644,5.9827399253845215
1618935528.06124,12.89935,5.99835991859436
1618935528.07687,11.64148,6.0139899253845215
1618935528.09249,10.74072,6.02960991859436
1618935528.10812,10.14645,6.0452399253845215
1618935528.12374,9.694672,6.06085991859436
1618935528.13937,9.178101,6.0764899253845215
1618935528.155,8.422821,6.092119932174683
1618935528.17062,7.348389,6.1077399253845215
1618935528.18625,6.004547,6.123369932174683
1618935528.20187,4.542206,6.1389899253845215
1618935528.2175,3.117096,6.154619932174683
1618935528.23312,1.796875,6.1702399253845215
1618935528.24875,0.5300293,6.185869932174683
1618935528.26438,-0.8574829,6.201499938964844
1618935528.28,-2.538879,6.217119932174683
1618935528.29563,-4.61554,6.232749938964844
1618935528.31125,-7.074341,6.248369932174683
1618935528.32688,-9.831909,6.263999938964844
1618935528.3425,-12.83551,6.279619932174683
1618935528.35813,-16.07825,6.295249938964844
1618935528.37376,-19.5463,6.310879945755005
1618935528.38938,-23.07983,6.326499938964844
1618935528.40501,-26.31046,6.342129945755005
1618935528.42063,-28.67728,6.357749938964844
1618935528.43626,-29.57327,6.373379945755005
1618935528.45188,-28.59341,6.388999938964844
1618935528.46751,-25.70038,6.404629945755005
1618935528.48314,-21.23148,6.420259952545166
1618935528.49876,-15.78531,6.435879945755005
1618935528.51439,-10.01105,6.451509952545166
1618935528.53001,-4.413757,6.467129945755005
1618935528.54564,0.6658325,6.482759952545166
1618935528.56126,5.039673,6.498379945755005
1618935528.57689,8.579498,6.514009952545166
1618935528.59252,11.17685,6.529639959335327
1618935528.60814,12.75574,6.545259952545166
1618935528.62377,13.35144,6.560889959335327
1618935528.63939,13.1543,6.576509952545166
1618935528.65502,12.50253,6.592139959335327
1618935528.67064,11.79977,6.607759952545166
1618935528.68627,11.35281,6.623389959335327
1618935528.7019,11.30331,6.639019966125488
1618935528.71752,11.57538,6.654639959335327
1618935528.73315,11.93338,6.670269966125488
1618935528.74877,12.08221,6.685889959335327
1618935528.7644,11.78857,6.701519966125488
1618935528.78002,10.96954,6.717139959335327
1618935528.79565,9.697083,6.732769966125488
1618935528.81128,8.160187,6.748399972915649
1618935528.8269,6.547211,6.764019966125488
1618935528.84253,4.974213,6.779649972915649
1618935528.85815,3.405334,6.795269966125488
1618935528.87378,1.713196,6.810899972915649
1618935528.8894,-0.252655,6.826519966125488
1618935528.90503,-2.597137,6.842149972915649
1618935528.92066,-5.367554,6.8577799797058105
1618935528.93628,-8.542053,6.873399972915649
1618935528.95191,-12.07748,6.8890299797058105
1618935528.96753,-15.89276,6.904649972915649
1618935528.98316,-19.793,6.9202799797058105
1618935528.99878,-23.43848,6.935899972915649
1618935529.01441,-26.34341,6.9515299797058105
1618935529.03004,-27.99747,6.967159986495972
1618935529.04566,-28.03751,6.9827799797058105
1618935529.06129,-26.39059,6.998409986495972
1618935529.07691,-23.29562,7.0140299797058105
1618935529.09254,-19.22269,7.029659986495972
1618935529.10816,-14.69263,7.0452799797058105
1618935529.12379,-10.1163,7.060909986495972
1618935529.13942,-5.783783,7.076539993286133
1618935529.15504,-1.866211,7.092159986495972
1618935529.17067,1.492615,7.107789993286133
1618935529.18629,4.137756,7.123409986495972
1618935529.20192,5.924377,7.139039993286133
1618935529.21754,6.781006,7.154659986495972
1618935529.23317,6.767151,7.170289993286133
1618935529.2488,6.100891,7.185920000076294
1618935529.26442,5.118988,7.201539993286133
1618935529.28005,4.173248,7.217170000076294
1618935529.29567,3.544983,7.232789993286133
1618935529.3113,3.355316,7.248420000076294
1618935529.32692,3.55423,7.264039993286133
1618935529.34255,3.971954,7.279670000076294
1618935529.35818,4.372894,7.295300006866455
1618935529.3738,4.543091,7.310920000076294
1618935529.38943,4.332642,7.326550006866455
1618935529.40505,3.706055,7.342170000076294
1618935529.42068,2.714264,7.357800006866455
1618935529.4363,1.495239,7.373420000076294
1618935529.45193,0.2028809,7.389050006866455
1618935529.46756,-1.065033,7.404680013656616
1618935529.48318,-2.313324,7.420300006866455
1618935529.49881,-3.668213,7.435930013656616
1618935529.51443,-5.354492,7.451550006866455
1618935529.53006,-7.588379,7.467180013656616
1618935529.54568,-10.45386,7.482800006866455
1618935529.56131,-13.86459,7.498430013656616
1618935529.57694,-17.5134,7.514060020446777
1618935529.59256,-20.94714,7.529680013656616
1618935529.60819,-23.65817,7.545310020446777
1618935529.62381,-25.16394,7.560930013656616
1618935529.63944,-25.12723,7.576560020446777
1618935529.65506,-23.41223,7.592180013656616
1618935529.67069,-20.1347,7.607810020446777
1618935529.68632,-15.64719,7.6234400272369385
1618935529.70194,-10.47296,7.639060020446777
1618935529.71757,-5.185944,7.6546900272369385
1618935529.73319,-0.2507629,7.670310020446777
1618935529.74882,4.006927,7.6859400272369385
1618935529.76444,7.444885,7.701560020446777
1618935529.78007,10.00604,7.7171900272369385
1618935529.7957,11.69244,7.7328200340271
1618935529.81132,12.50327,7.7484400272369385
1618935529.82695,12.47949,7.7640700340271
1618935529.84257,11.73911,7.7796900272369385
1618935529.8582,10.49997,7.7953200340271
1618935529.87382,9.075592,7.8109400272369385
1618935529.88945,7.752472,7.8265700340271
1618935529.90508,6.729034,7.842200040817261
1618935529.9207,6.034332,7.8578200340271
1618935529.93633,5.56192,7.873450040817261
1618935529.95195,5.149445,7.8890700340271
1618935529.96758,4.653961,7.904700040817261
1618935529.98321,4.024139,7.920330047607422
1618935529.99883,3.293762,7.935950040817261
1618935530.01446,2.544403,7.951580047607422
1618935530.03008,1.824524,7.967200040817261
1618935530.04571,1.165039,7.982830047607422
1618935530.06133,0.5411682,7.998450040817261
1618935530.07696,-0.09014893,8.014080047607422
1618935530.09259,-0.7801819,8.029710054397583
1618935530.10821,-1.61145,8.045330047607422
1618935530.12384,-2.689667,8.060960054397583
1618935530.13946,-4.146667,8.076580047607422
1618935530.15509,-6.071198,8.092210054397583
1618935530.17071,-8.444305,8.107830047607422
1618935530.18634,-11.00989,8.123460054397583
1618935530.20197,-13.25708,8.139090061187744
1618935530.21759,-14.54004,8.154710054397583
1618935530.23322,-14.27374,8.170340061187744
1618935530.24884,-12.18021,8.185960054397583
1618935530.26447,-8.396454,8.201590061187744
1618935530.28009,-3.442596,8.217210054397583
1618935530.29572,1.964386,8.232840061187744
1618935530.31135,7.149628,8.248470067977905
1618935530.32697,11.65744,8.264090061187744
1618935530.3426,15.26825,8.279720067977905
1618935530.35822,17.89871,8.295340061187744
1618935530.37385,19.52441,8.310970067977905
1618935530.38947,20.1109,8.326590061187744
1618935530.4051,19.71729,8.342220067977905
1618935530.42073,18.55481,8.357850074768066
1618935530.43635,17.0144,8.373470067977905
1618935530.45198,15.5495,8.389100074768066
1618935530.4676,14.50235,8.404720067977905
1618935530.48323,13.95023,8.420350074768066
1618935530.49885,13.6937,8.435970067977905
1618935530.51448,13.39584,8.451600074768066
1618935530.53011,12.75781,8.467229843139648
1618935530.54573,11.68594,8.482850074768066
1618935530.56136,10.28876,8.498479843139648
1618935530.57698,8.771088,8.514100074768066
1618935530.59261,7.283997,8.529729843139648
1618935530.60823,5.841492,8.545350074768066
1618935530.62386,4.333588,8.560979843139648
1618935530.63949,2.629578,8.57660984992981
1618935530.65511,0.6750793,8.592229843139648
1618935530.67074,-1.478973,8.60785984992981
1618935530.68636,-3.751312,8.623479843139648
1618935530.70199,-6.111511,8.63910984992981
1618935530.71761,-8.617004,8.654729843139648
1618935530.73324,-11.38345,8.67035984992981
1618935530.74887,-14.47421,8.68598985671997
1618935530.76449,-17.80261,8.70160984992981
1618935530.78012,-21.06277,8.71723985671997
1618935530.79574,-23.78946,8.73285984992981
1618935530.81137,-25.45184,8.74848985671997
1618935530.82699,-25.62354,8.76410984992981
1618935530.84262,-24.09879,8.77973985671997
1618935530.85825,-20.96802,8.795369863510132
1618935530.87387,-16.56787,8.81098985671997
1618935530.8895,-11.42453,8.826619863510132
1618935530.90512,-6.088928,8.84223985671997
1618935530.92075,-1.028931,8.857869863510132
1618935530.93637,3.440674,8.87348985671997
1618935530.952,7.128906,8.889119863510132
1618935530.96763,9.939331,8.904749870300293
1618935530.98325,11.79733,8.920369863510132
1618935530.99888,12.64951,8.935999870300293
1618935531.0145,12.51123,8.951619863510132
1618935531.03013,11.51147,8.967249870300293
1618935531.04575,9.926025,8.982869863510132
1618935531.06138,8.118378,8.998499870300293
1618935531.07701,6.443604,9.014129877090454
1618935531.09263,5.146332,9.029749870300293
1618935531.10826,4.290802,9.045379877090454
1618935531.12388,3.803009,9.060999870300293
1618935531.13951,3.5289,9.076629877090454
1618935531.15513,3.297821,9.092249870300293
1618935531.17076,2.95285,9.107879877090454
1618935531.18639,2.351624,9.123509883880615
1618935531.20201,1.378143,9.139129877090454
1618935531.21764,-0.006195068,9.154759883880615
1618935531.23326,-1.734589,9.170379877090454
1618935531.24889,-3.604279,9.186009883880615
1618935531.26451,-5.370728,9.201629877090454
1618935531.28014,-6.872314,9.217259883880615
1618935531.29577,-8.13623,9.232889890670776
1618935531.31139,-9.425385,9.248509883880615
1618935531.32702,-11.11926,9.264139890670776
1618935531.34264,-13.54547,9.279759883880615
1618935531.35827,-16.76859,9.295389890670776
1618935531.37389,-20.50278,9.311009883880615
1618935531.38952,-24.17584,9.326639890670776
1618935531.40515,-27.11221,9.342269897460938
1618935531.42077,-28.74451,9.357889890670776
1618935531.4364,-28.74075,9.373519897460938
1618935531.45202,-27.05692,9.389139890670776
1618935531.46765,-23.8707,9.404769897460938
1618935531.48327,-19.50827,9.420389890670776
1618935531.4989,-14.36011,9.436019897460938
1618935531.51453,-8.837463,9.451649904251099
1618935531.53015,-3.333466,9.467269897460938
1618935531.54578,1.767303,9.482899904251099
1618935531.5614,6.145294,9.498519897460938
1618935531.57703,9.571533,9.514149904251099
1618935531.59265,11.96484,9.529769897460938
1618935531.60828,13.39651,9.545399904251099
1618935531.62391,14.07291,9.56102991104126
1618935531.63953,14.24045,9.576649904251099
1618935531.65516,14.13083,9.59227991104126
1618935531.67078,13.90796,9.607899904251099
1618935531.68641,13.64377,9.62352991104126
1618935531.70203,13.39804,9.639149904251099
1618935531.71766,13.21194,9.65477991104126
1618935531.73329,13.15088,9.670409917831421
1618935531.74891,13.24744,9.68602991104126
1618935531.76454,13.45517,9.701659917831421
1618935531.78016,13.60843,9.71727991104126
1618935531.79579,13.50015,9.732909917831421
1618935531.81141,12.95247,9.74852991104126
1618935531.82704,11.91528,9.764159917831421
1618935531.84267,10.51099,9.779789924621582
1618935531.85829,8.941742,9.795409917831421
1618935531.87392,7.375671,9.811039924621582
1618935531.88954,5.828247,9.826659917831421
1618935531.90517,4.173676,9.842289924621582
1618935531.92079,2.18338,9.857909917831421
1618935531.93642,-0.3710022,9.873539924621582
1618935531.95205,-3.600586,9.889169931411743
1618935531.96767,-7.459106,9.904789924621582
1618935531.9833,-11.68411,9.920419931411743
1618935531.99892,-15.84021,9.936039924621582
1618935532.01455,-19.32361,9.951669931411743
1618935532.03017,-21.51221,9.967289924621582
1618935532.0458,-21.90384,9.982919931411743
1618935532.06143,-20.2924,9.998549938201904
1618935532.07705,-16.87277,10.014169931411743
1618935532.09268,-12.1869,10.029799938201904
1618935532.1083,-6.935318,10.045419931411743
1618935532.12393,-1.740891,10.061049938201904
1618935532.13955,2.999237,10.076669931411743
1618935532.15518,7.099594,10.092299938201904
1618935532.17081,10.47597,10.107929944992065
1618935532.18643,13.02121,10.123549938201904
1618935532.20206,14.60564,10.139179944992065
1618935532.21768,15.17033,10.154799938201904
1618935532.23331,14.87061,10.170429944992065
1618935532.24893,14.09158,10.186049938201904
1618935532.26456,13.35519,10.201679944992065
1618935532.28019,13.08952,10.217309951782227
1618935532.29581,13.47414,10.232929944992065
1618935532.31144,14.37486,10.248559951782227
1618935532.32706,15.42975,10.264179944992065
1618935532.34269,16.25389,10.279809951782227
1618935532.35831,16.57275,10.295429944992065
1618935532.37394,16.33789,10.311059951782227
1618935532.38957,15.6601,10.326689958572388
1618935532.40519,14.71246,10.342309951782227
1618935532.42082,13.65823,10.357939958572388
1618935532.43644,12.55121,10.373559951782227
1618935532.45207,11.39639,10.389189958572388
1618935532.4677,10.10712,10.404819965362549
1618935532.48332,8.616486,10.420439958572388
1618935532.49895,6.864929,10.436069965362549
1618935532.51457,4.825394,10.451689958572388
1618935532.5302,2.518173,10.467319965362549
1618935532.54582,-0.05693054,10.482939958572388
1618935532.56145,-2.904633,10.498569965362549
1618935532.57708,-6.058258,10.51419997215271
1618935532.5927,-9.492966,10.529819965362549
1618935532.60833,-13.08061,10.54544997215271
1618935532.62395,-16.49591,10.561069965362549
1618935532.63958,-19.25011,10.57669997215271
1618935532.6552,-20.81438,10.592319965362549
1618935532.67083,-20.77168,10.60794997215271
1618935532.68646,-19.00127,10.623579978942871
1618935532.70208,-15.69467,10.63919997215271
1618935532.71771,-11.31007,10.654829978942871
1618935532.73333,-6.403076,10.67044997215271
1618935532.74896,-1.504044,10.686079978942871
1618935532.76458,3.019974,10.70169997215271
1618935532.78021,6.890991,10.717329978942871
1618935532.79584,9.922791,10.732959985733032
1618935532.81146,11.97903,10.748579978942871
1618935532.82709,12.9693,10.764209985733032
1618935532.84271,12.94417,10.779829978942871
1618935532.85834,12.1006,10.795459985733032
1618935532.87396,10.79216,10.811079978942871
1618935532.88959,9.392334,10.826709985733032
1618935532.90522,8.198257,10.842339992523193
1618935532.92084,7.355591,10.857959985733032
1618935532.93647,6.815384,10.873589992523193
1618935532.95209,6.449142,10.889209985733032
1618935532.96772,6.090439,10.904839992523193
1618935532.98334,5.672775,10.920459985733032
1618935532.99897,5.204453,10.936089992523193
1618935533.0146,4.766357,10.951719999313354
1618935533.03022,4.409866,10.967339992523193
1618935533.04585,4.117188,10.982969999313354
1618935533.06147,3.767456,10.998589992523193
1618935533.0771,3.188416,11.014219999313354
1618935533.09272,2.255157,11.029839992523193
1618935533.10835,0.9159698,11.045469999313354
1618935533.12398,-0.7418823,11.061100006103516
1618935533.1396,-2.579269,11.076719999313354
1618935533.15523,-4.462753,11.092350006103516
1618935533.17085,-6.32373,11.107969999313354
1618935533.18648,-8.203751,11.123600006103516
1618935533.2021,-10.21715,11.139219999313354
1618935533.21773,-12.44817,11.154850006103516
1618935533.23336,-14.83154,11.170480012893677
1618935533.24898,-17.09779,11.186100006103516
1618935533.26461,-18.77788,11.201730012893677
1618935533.28023,-19.35553,11.217350006103516
1618935533.29586,-18.45419,11.232980012893677
1618935533.31148,-15.99359,11.248600006103516
1618935533.32711,-12.21896,11.264230012893677
1618935533.34274,-7.595993,11.279860019683838
1618935533.35836,-2.638168,11.295480012893677
1618935533.37399,2.266861,11.311110019683838
1618935533.38961,6.865875,11.326730012893677
1618935533.40524,11.00017,11.342360019683838
1618935533.42086,14.50888,11.357980012893677
1618935533.43649,17.20258,11.373610019683838
1618935533.45212,18.95535,11.389240026473999
1618935533.46774,19.7881,11.404860019683838
1618935533.48337,19.92509,11.420490026473999
1618935533.49899,19.72725,11.436110019683838
1618935533.51462,19.55867,11.451740026473999
1618935533.53024,19.59779,11.467360019683838
1618935533.54587,19.84479,11.482990026473999
1618935533.5615,20.13332,11.49862003326416
1618935533.57712,20.27094,11.514240026473999
1618935533.59275,20.17577,11.52987003326416
1618935533.60837,19.85397,11.545490026473999
1618935533.624,19.41443,11.56112003326416
1618935533.63962,18.92841,11.576740026473999
1618935533.65525,18.41249,11.59237003326416
1618935533.67088,17.806,11.608000040054321
1618935533.6865,17.04904,11.62362003326416
1618935533.70213,16.08682,11.639250040054321
1618935533.71775,14.91109,11.65487003326416
1618935533.73338,13.54124,11.670500040054321
1618935533.749,11.97151,11.68612003326416
1618935533.76463,10.15054,11.701750040054321
1618935533.78026,7.984238,11.717380046844482
1618935533.79588,5.370636,11.733000040054321
1618935533.81151,2.207611,11.748630046844482
1618935533.82713,-1.513702,11.764250040054321
1618935533.84276,-5.713608,11.779880046844482
1618935533.85838,-10.14078,11.795500040054321
1618935533.87401,-14.39998,11.811130046844482
1618935533.88964,-17.99213,11.826760053634644
1618935533.90526,-20.37589,11.842380046844482
1618935533.92089,-21.10934,11.858010053634644
1618935533.93651,-19.9599,11.873630046844482
1618935533.95214,-16.97678,11.889260053634644
1618935533.96776,-12.46399,11.904880046844482
1618935533.98339,-6.940247,11.920510053634644
1618935533.99902,-1.019318,11.936140060424805
1618935534.01464,4.653992,11.951760053634644
1618935534.03027,9.430023,11.967390060424805
1618935534.04589,12.78806,11.983010053634644
1618935534.06152,14.43005,11.998640060424805
1618935534.07714,14.37421,12.014260053634644
1618935534.09277,13.00418,12.029890060424805
1618935534.1084,10.9455,12.045520067214966
1618935534.12402,8.843903,12.061140060424805
1618935534.13965,7.142731,12.076770067214966
1618935534.15527,5.966949,12.092390060424805
1618935534.1709,5.15451,12.108020067214966
1618935534.18652,4.454742,12.123640060424805
1618935534.20215,3.693237,12.139270067214966
1618935534.21778,2.838043,12.154900074005127
1618935534.2334,2.014832,12.170520067214966
1618935534.24903,1.348083,12.186150074005127
1618935534.26465,0.8725586,12.201770067214966
1618935534.28028,0.4992371,12.217400074005127
1618935534.2959,0.09475708,12.233020067214966
1618935534.31153,-0.467865,12.248650074005127
1618935534.32716,-1.222168,12.264279842376709
1618935534.34278,-2.153992,12.279900074005127
1618935534.35841,-3.223572,12.295529842376709
1618935534.37403,-4.429535,12.311150074005127
1618935534.38966,-5.820587,12.326779842376709
1618935534.40528,-7.469025,12.342400074005127
1618935534.42091,-9.428467,12.358029842376709
1618935534.43654,-11.68619,12.37365984916687
1618935534.45216,-14.17004,12.389279842376709
1618935534.46779,-16.74112,12.40490984916687
1618935534.48341,-19.23373,12.420529842376709
1618935534.49904,-21.45053,12.43615984916687
1618935534.51466,-23.1666,12.451779842376709
1618935534.53029,-24.16049,12.46740984916687
1618935534.54592,-24.21881,12.483039855957031
1618935534.56154,-23.2164,12.49865984916687
1618935534.57717,-21.15158,12.514289855957031
1618935534.59279,-18.19525,12.52990984916687
1618935534.60842,-14.62909,12.545539855957031
1618935534.62404,-10.81177,12.56115984916687
1618935534.63967,-7.086945,12.576789855957031
1618935534.6553,-3.721405,12.592419862747192
1618935534.67092,-0.914978,12.608039855957031
1618935534.68655,1.196014,12.623669862747192
1618935534.70217,2.501404,12.639289855957031
1618935534.7178,2.929413,12.654919862747192
1618935534.73342,2.491089,12.670539855957031
1618935534.74905,1.311707,12.686169862747192
1618935534.76468,-0.3799744,12.701799869537354
1618935534.7803,-2.279541,12.717419862747192
1618935534.79593,-4.093109,12.733049869537354
1618935534.81155,-5.588226,12.748669862747192
1618935534.82718,-6.630188,12.764299869537354
1618935534.84281,-7.173309,12.779929876327515
1618935534.85843,-7.227142,12.795549869537354
1618935534.87406,-6.835999,12.811179876327515
1618935534.88968,-6.077728,12.826799869537354
1618935534.90531,-5.081543,12.842429876327515
1618935534.92093,-4.020691,12.858049869537354
1618935534.93656,-3.107727,12.873679876327515
1618935534.95219,-2.533051,12.889309883117676
1618935534.96781,-2.412384,12.904929876327515
1618935534.98344,-2.774323,12.920559883117676
1618935534.99906,-3.558289,12.936179876327515
1618935535.01469,-4.670105,12.951809883117676
1618935535.03031,-6.033844,12.967429876327515
1618935535.04594,-7.603302,12.983059883117676
1618935535.06157,-9.397156,12.998689889907837
1618935535.07719,-11.44864,13.014309883117676
1618935535.09282,-13.75156,13.029939889907837
1618935535.10844,-16.15207,13.045559883117676
1618935535.12407,-18.34457,13.061189889907837
1618935535.13969,-19.88385,13.076809883117676
1618935535.15532,-20.3302,13.092439889907837
1618935535.17095,-19.39975,13.108069896697998
1618935535.18657,-17.08215,13.123689889907837
1618935535.2022,-13.6777,13.139319896697998
1618935535.21782,-9.661499,13.154939889907837
1618935535.23345,-5.534515,13.170569896697998
1618935535.24907,-1.633911,13.186189889907837
1618935535.2647,1.889252,13.201819896697998
1618935535.28033,5.038666,13.21744990348816
1618935535.29595,7.818878,13.233069896697998
1618935535.31158,10.17249,13.24869990348816
1618935535.3272,12.01312,13.264319896697998
1618935535.34283,13.28412,13.27994990348816
1618935535.35845,14.04672,13.295569896697998
1618935535.37408,14.50037,13.31119990348816
1618935535.38971,14.92328,13.32682991027832
1618935535.40533,15.56351,13.34244990348816
1618935535.42096,16.54993,13.35807991027832
1618935535.43658,17.84869,13.37369990348816
1618935535.45221,19.23517,13.38932991027832
1618935535.46783,20.40686,13.40494990348816
1618935535.48346,21.03238,13.42057991027832
1618935535.49909,20.89014,13.436209917068481
1618935535.51471,19.93753,13.45182991027832
1618935535.53034,18.30554,13.467459917068481
1618935535.54596,16.25873,13.48307991027832
1618935535.56159,14.08286,13.498709917068481
1618935535.57721,11.98138,13.51432991027832
1618935535.59284,10.00134,13.529959917068481
1618935535.60847,8.082092,13.545589923858643
1618935535.62409,6.063599,13.561209917068481
1618935535.63972,3.794769,13.576839923858643
1618935535.65534,1.142273,13.592459917068481
1618935535.67097,-1.970306,13.608089923858643
1618935535.68659,-5.527893,13.623709917068481
1618935535.70222,-9.388519,13.639339923858643
1618935535.71785,-13.24673,13.654969930648804
1618935535.73347,-16.67087,13.670589923858643
1618935535.7491,-19.15005,13.686219930648804
1618935535.76472,-20.22214,13.701839923858643
1618935535.78035,-19.59961,13.717469930648804
1618935535.79597,-17.2359,13.733089923858643
1618935535.8116,-13.39368,13.748719930648804
1618935535.82723,-8.549561,13.764349937438965
1618935535.84285,-3.304199,13.779969930648804
1618935535.85848,1.742798,13.795599937438965
1618935535.8741,6.107727,13.811219930648804
1618935535.88973,9.52478,13.826849937438965
1618935535.90535,11.89838,13.842469930648804
1618935535.92098,13.25052,13.858099937438965
1618935535.93661,13.67691,13.873729944229126
1618935535.95223,13.26376,13.889349937438965
1618935535.96786,12.15631,13.904979944229126
1618935535.98348,10.59296,13.920599937438965
1618935535.99911,8.944397,13.936229944229126
1618935536.01473,7.590271,13.951849937438965
1618935536.03036,6.806915,13.967479944229126
1618935536.04599,6.560425,13.983109951019287
1618935536.06161,6.545868,13.998729944229126
1618935536.07724,6.321808,14.014359951019287
1618935536.09286,5.540497,14.029979944229126
1618935536.10849,4.116669,14.045609951019287
1618935536.12411,2.243774,14.061229944229126
1618935536.13974,0.2360535,14.076859951019287
1618935536.15537,-1.665436,14.092489957809448
1618935536.17099,-3.389191,14.108109951019287
1618935536.18662,-5.050598,14.123739957809448
1618935536.20224,-6.78772,14.139359951019287
1618935536.21787,-8.674377,14.154989957809448
1618935536.23349,-10.73404,14.170609951019287
1618935536.24912,-12.98965,14.186239957809448
1618935536.26475,-15.52112,14.20186996459961
1618935536.28037,-18.42691,14.217489957809448
1618935536.296,-21.65927,14.23311996459961
1618935536.31162,-24.88278,14.248739957809448
1618935536.32725,-27.46149,14.26436996459961
1618935536.34287,-28.67322,14.279989957809448
1618935536.3585,-27.99881,14.29561996459961
1618935536.37413,-25.37881,14.31124997138977
1618935536.38975,-21.24738,14.32686996459961
1618935536.40538,-16.35193,14.34249997138977
1618935536.421,-11.45871,14.35811996459961
1618935536.43663,-7.103821,14.37374997138977
1618935536.45225,-3.518951,14.38936996459961
1618935536.46788,-0.7159424,14.40499997138977
1618935536.48351,1.372467,14.420629978179932
1618935536.49913,2.81427,14.43624997138977
1618935536.51476,3.693878,14.451879978179932
1618935536.53038,4.181458,14.46749997138977
1618935536.54601,4.552765,14.483129978179932
1618935536.56163,5.104919,14.49874997138977
1618935536.57726,6.009003,14.514379978179932
1618935536.59289,7.221863,14.530009984970093
1618935536.60851,8.483765,14.545629978179932
1618935536.62414,9.460449,14.561259984970093
1618935536.63976,9.908173,14.576879978179932
1618935536.65539,9.778168,14.592509984970093
1618935536.67101,9.188293,14.608129978179932
1618935536.68664,8.312836,14.623759984970093
1618935536.70227,7.268433,14.639389991760254
1618935536.71789,6.044708,14.655009984970093
1618935536.73352,4.585083,14.670639991760254
1618935536.74914,2.870422,14.686259984970093
1618935536.76477,0.9472351,14.701889991760254
1618935536.78039,-1.081787,14.717509984970093
1618935536.79602,-3.135712,14.733139991760254
1618935536.81165,-5.262665,14.748769998550415
1618935536.82727,-7.602844,14.764389991760254
1618935536.8429,-10.30423,14.780019998550415
1618935536.85852,-13.40518,14.795639991760254
1618935536.87415,-16.71765,14.811269998550415
1618935536.88977,-19.82486,14.826889991760254
1618935536.9054,-22.17068,14.842519998550415
1618935536.92103,-23.23029,14.858150005340576
1618935536.93665,-22.63126,14.873769998550415
1618935536.95228,-20.26813,14.889400005340576
1618935536.9679,-16.28903,14.905019998550415
1618935536.98353,-11.0466,14.920650005340576
1618935536.99916,-5.014038,14.936280012130737
1618935537.01478,1.328674,14.951900005340576
1618935537.03041,7.523773,14.967530012130737
1618935537.04603,13.17017,14.983150005340576
1618935537.06166,17.93732,14.998780012130737
1618935537.07728,21.57153,15.014400005340576
1618935537.09291,23.92484,15.030030012130737
1618935537.10854,25.03311,15.045660018920898
1618935537.12416,25.09561,15.061280012130737
1618935537.13979,24.45807,15.076910018920898
1618935537.15541,23.49442,15.092530012130737
1618935537.17104,22.4986,15.108160018920898
1618935537.18666,21.63138,15.123780012130737
1618935537.20229,20.94214,15.139410018920898
1618935537.21792,20.36691,15.15504002571106
1618935537.23354,19.78177,15.170660018920898
1618935537.24917,19.0332,15.18629002571106
1618935537.26479,17.90146,15.201910018920898
1618935537.28042,16.14969,15.21754002571106
1618935537.29604,13.63031,15.233160018920898
1618935537.31167,10.35681,15.24879002571106
1618935537.3273,6.553833,15.26442003250122
1618935537.34292,2.596619,15.28004002571106
1618935537.35855,-1.1409,15.29567003250122
1618935537.37417,-4.422028,15.31129002571106
1618935537.3898,-7.207062,15.32692003250122
1618935537.40542,-9.6521,15.34254002571106
1618935537.42105,-12.03525,15.35817003250122
1618935537.43668,-14.6391,15.373800039291382
1618935537.4523,-17.67444,15.38942003250122
1618935537.46793,-21.21744,15.405050039291382
1618935537.48355,-25.17297,15.42067003250122
1618935537.49918,-29.25253,15.436300039291382
1618935537.5148,-32.97604,15.45192003250122
1618935537.53043,-35.74216,15.467550039291382
1618935537.54606,-36.97296,15.483180046081543
1618935537.56168,-36.25296,15.498800039291382
1618935537.57731,-33.47879,15.514430046081543
1618935537.59293,-28.88846,15.530050039291382
1618935537.60856,-22.99683,15.545680046081543
1618935537.62418,-16.4216,15.561300039291382
1618935537.63981,-9.785278,15.576930046081543
1618935537.65544,-3.598999,15.592560052871704
1618935537.67106,1.766235,15.608180046081543
1618935537.68669,6.037537,15.623810052871704
1618935537.70231,9.061615,15.639430046081543
1618935537.71794,10.8551,15.655060052871704
1618935537.73356,11.59628,15.670680046081543
1618935537.74919,11.63678,15.686310052871704
1618935537.76482,11.40778,15.701940059661865
1618935537.78044,11.28278,15.717560052871704
1618935537.79607,11.46713,15.733190059661865
1618935537.81169,11.93268,15.748810052871704
1618935537.82732,12.50363,15.764440059661865
1618935537.84294,12.95914,15.780060052871704
1618935537.85857,13.19,15.795690059661865
1618935537.8742,13.20119,15.811320066452026
1618935537.88982,13.08438,15.826940059661865
1618935537.90545,12.9379,15.842570066452026
1618935537.92107,12.75664,15.858190059661865
1618935537.9367,12.4346,15.873820066452026
1618935537.95232,11.79039,15.889440059661865
1618935537.96795,10.62595,15.905070066452026
1618935537.98358,8.768448,15.920700073242188
1618935537.9992,6.155609,15.936320066452026
1618935538.01483,2.859467,15.951950073242188
1618935538.03045,-0.8999939,15.967570066452026
1618935538.04608,-4.830872,15.983200073242188
1618935538.0617,-8.666351,15.998820066452026
1618935538.07733,-12.28716,16.014450073242188
1618935538.09296,-15.76904,16.03007984161377
1618935538.10858,-19.35939,16.045700073242188
1618935538.12421,-23.34117,16.06132984161377
1618935538.13983,-27.94223,16.076950073242188
1618935538.15546,-33.252,16.09257984161377
1618935538.17108,-39.18852,16.108200073242188
1618935538.18671,-45.52063,16.12382984161377
1618935538.20234,-51.83865,16.13945984840393
1618935538.21796,-57.52835,16.15507984161377
1618935538.23359,-61.8121,16.17070984840393
1618935538.24921,-63.85886,16.18632984161377
1618935538.26484,-63.02995,16.20195984840393
1618935538.28046,-59.09444,16.21757984161377
1618935538.29609,-52.36435,16.23320984840393
1618935538.31172,-43.60985,16.248839855194092
1618935538.32734,-33.76604,16.26445984840393
1618935538.34297,-23.66145,16.280089855194092
1618935538.35859,-13.8233,16.29570984840393
1618935538.37422,-4.512924,16.311339855194092
1618935538.38984,4.105148,16.32695984840393
1618935538.40547,11.80887,16.342589855194092
1618935538.4211,18.2749,16.358219861984253
1618935538.43672,23.23837,16.373839855194092
1618935538.45235,26.64977,16.389469861984253
1618935538.46797,28.78435,16.405089855194092
1618935538.4836,30.14893,16.420719861984253
1618935538.49922,31.2915,16.436339855194092
1618935538.51485,32.5611,16.451969861984253
1618935538.53048,34.00818,16.467599868774414
1618935538.5461,35.42856,16.483219861984253
1618935538.56173,36.51984,16.498849868774414
1618935538.57735,37.06192,16.514469861984253
1618935538.59298,36.99507,16.530099868774414
1618935538.6086,36.37029,16.545719861984253
1618935538.62423,35.28889,16.561349868774414
1618935538.63986,33.83612,16.576979875564575
1618935538.65548,32.09621,16.592599868774414
1618935538.67111,30.14897,16.608229875564575
1618935538.68673,28.11443,16.623849868774414
1618935538.70236,26.09039,16.639479875564575
1618935538.71798,24.09622,16.655099868774414
1618935538.73361,22.02298,16.670729875564575
1618935538.74924,19.67955,16.686359882354736
1618935538.76486,16.89478,16.701979875564575
1618935538.78049,13.63783,16.717609882354736
1618935538.79611,10.07855,16.733229875564575
1618935538.81174,6.478989,16.748859882354736
1618935538.82736,3.099014,16.764479875564575
1618935538.84299,0.01921082,16.780109882354736
1618935538.85862,-2.851105,16.795739889144897
1618935538.87424,-5.753006,16.811359882354736
1618935538.88987,-8.953125,16.826989889144897
1618935538.90549,-12.63861,16.842609882354736
1618935538.92112,-16.87902,16.858239889144897
1618935538.93674,-21.61588,16.873859882354736
1618935538.95237,-26.68826,16.889489889144897
1618935538.968,-31.79025,16.90511989593506
1618935538.98362,-36.47089,16.920739889144897
1618935538.99925,-40.13413,16.93636989593506
1618935539.01487,-42.12944,16.951989889144897
1618935539.0305,-41.92834,16.96761989593506
1618935539.04612,-39.29786,16.983239889144897
1618935539.06175,-34.4198,16.99886989593506
1618935539.07738,-27.84309,17.01449990272522
1618935539.093,-20.3017,17.03011989593506
1618935539.10863,-12.5,17.04574990272522
1618935539.12425,-4.941269,17.06136989593506
1618935539.13988,2.114159,17.07699990272522
1618935539.1555,8.575203,17.09261989593506
1618935539.17113,14.38922,17.10824990272522
1618935539.18676,19.48777,17.12387990951538
1618935539.20238,23.7505,17.13949990272522
1618935539.21801,27.10544,17.15512990951538
1618935539.23363,29.60675,17.17074990272522
1618935539.24926,31.45527,17.18637990951538
1618935539.26488,32.94321,17.20199990272522
1618935539.28051,34.3036,17.21762990951538
1618935539.29614,35.61739,17.233259916305542
1618935539.31176,36.77786,17.24887990951538
1618935539.32739,37.59586,17.264509916305542
1618935539.34301,37.91352,17.28012990951538
1618935539.35864,37.72852,17.295759916305542
1618935539.37426,37.18594,17.31137990951538
1618935539.38989,36.49509,17.327009916305542
1618935539.40552,35.81467,17.342639923095703
1618935539.42114,35.14163,17.358259916305542
1618935539.43677,34.34917,17.373889923095703
1618935539.45239,33.25759,17.389509916305542
1618935539.46802,31.73756,17.405139923095703
1618935539.48364,29.76818,17.420759916305542
1618935539.49927,27.40349,17.436389923095703
1618935539.5149,24.74451,17.452019929885864
1618935539.53052,21.85811,17.467639923095703
1618935539.54615,18.80958,17.483269929885864
1618935539.56177,15.65427,17.498889923095703
1618935539.5774,12.4686,17.514519929885864
1618935539.59302,9.301605,17.530139923095703
1618935539.60865,6.178566,17.545769929885864
1618935539.62428,3.095726,17.561399936676025
1618935539.6399,0.04332733,17.577019929885864
1618935539.65553,-2.949623,17.592649936676025
1618935539.67115,-5.844162,17.608269929885864
1618935539.68678,-8.598267,17.623899936676025
1618935539.70241,-11.26008,17.639529943466187
1618935539.71803,-13.95664,17.655149936676025
1618935539.73366,-16.90604,17.670779943466187
1618935539.74928,-20.31512,17.686399936676025
1618935539.76491,-24.27634,17.702029943466187
1618935539.78053,-28.68262,17.717649936676025
1618935539.79616,-33.16264,17.733279943466187
1618935539.81179,-37.13673,17.748909950256348
1618935539.82741,-39.91106,17.764529943466187
1618935539.84304,-40.8883,17.780159950256348
1618935539.85866,-39.68565,17.795779943466187
1618935539.87429,-36.29483,17.811409950256348
1618935539.88991,-31.05334,17.827029943466187
1618935539.90554,-24.48194,17.842659950256348
1618935539.92117,-17.16007,17.85828995704651
1618935539.93679,-9.54232,17.873909950256348
1618935539.95242,-1.970917,17.88953995704651
1618935539.96804,5.297409,17.905159950256348
1618935539.98367,11.99416,17.92078995704651
1618935539.99929,17.84862,17.936409950256348
1618935540.01492,22.62111,17.95203995704651
1618935540.03055,26.1962,17.96766996383667
1618935540.04617,28.64091,17.98328995704651
1618935540.0618,30.17806,17.99891996383667
1618935540.07742,31.09521,18.01453995704651
1618935540.09305,31.6365,18.03016996383667
1618935540.10867,31.973,18.04578995704651
1618935540.1243,32.15617,18.06141996383667
1618935540.13993,32.22248,18.07704997062683
1618935540.15555,32.20694,18.09266996383667
1618935540.17118,32.14112,18.10829997062683
1618935540.1868,32.03674,18.12391996383667
1618935540.20243,31.83872,18.13954997062683
1618935540.21805,31.43758,18.15516996383667
1618935540.23368,30.73074,18.17079997062683
1618935540.24931,29.68091,18.186429977416992
1618935540.26493,28.33989,18.20204997062683
1618935540.28056,26.81765,18.217679977416992
1618935540.29618,25.19647,18.23329997062683
1618935540.31181,23.47759,18.248929977416992
1618935540.32743,21.57281,18.26454997062683
1618935540.34306,19.34683,18.280179977416992
1618935540.35869,16.7276,18.295809984207153
1618935540.37431,13.76518,18.311429977416992
1618935540.38994,10.61494,18.327059984207153
1618935540.40556,7.447853,18.342679977416992
1618935540.42119,4.381035,18.358309984207153
1618935540.43681,1.435165,18.373929977416992
1618935540.45244,-1.414619,18.389559984207153
1618935540.46807,-4.178429,18.405189990997314
1618935540.48369,-6.809891,18.420809984207153
1618935540.49932,-9.207314,18.436439990997314
1618935540.51494,-11.27432,18.452059984207153
1618935540.53057,-13.01489,18.467689990997314
1618935540.54619,-14.59296,18.483309984207153
1618935540.56182,-16.29581,18.498939990997314
1618935540.57745,-18.48195,18.514569997787476
1618935540.59307,-21.41027,18.530189990997314
1618935540.6087,-25.11292,18.545819997787476
1618935540.62432,-29.34535,18.561439990997314
1618935540.63995,-33.56057,18.577069997787476
1618935540.65557,-37.03934,18.592689990997314
1618935540.6712,-39.06412,18.608319997787476
1618935540.68683,-39.07521,18.623950004577637
1618935540.70245,-36.82922,18.639569997787476
1618935540.71808,-32.45497,18.655200004577637
1618935540.7337,-26.41933,18.670819997787476
1618935540.74933,-19.3992,18.686450004577637
1618935540.76495,-12.08075,18.702069997787476
1618935540.78058,-5.000793,18.717700004577637
1618935540.79621,1.54921,18.733330011367798
1618935540.81183,7.463409,18.748950004577637
1618935540.82746,12.7202,18.764580011367798
1618935540.84308,17.26605,18.780200004577637
1618935540.85871,20.95891,18.795830011367798
1618935540.87433,23.66794,18.811450004577637
1618935540.88996,25.41821,18.827080011367798
1618935540.90559,26.46072,18.84271001815796
1618935540.92121,27.23003,18.858330011367798
1618935540.93684,28.16891,18.87396001815796
1618935540.95246,29.50891,18.889580011367798
1618935540.96809,31.17294,18.90521001815796
1618935540.98371,32.84804,18.920830011367798
1618935540.99934,34.2007,18.93646001815796
1618935541.01497,35.10875,18.95209002494812
1618935541.03059,35.75294,18.96771001815796
1618935541.04622,36.46571,18.98334002494812
1618935541.06184,37.52274,18.99896001815796
1618935541.07747,38.93433,19.01459002494812
1618935541.09309,40.43861,19.03021001815796
1618935541.10872,41.67677,19.04584002494812
1618935541.12435,42.41379,19.06147003173828
1618935541.13997,42.69891,19.07709002494812
1618935541.1556,42.82938,19.09272003173828
1618935541.17122,43.15349,19.10834002494812
1618935541.18685,43.83112,19.12397003173828
1618935541.20247,44.71277,19.13959002494812
1618935541.2181,45.40347,19.15522003173828
1618935541.23373,45.4855,19.170850038528442
1618935541.24935,44.73474,19.18647003173828
1618935541.26498,43.24904,19.202100038528442
1618935541.2806,41.37776,19.21772003173828
1618935541.29623,39.60114,19.233350038528442
1618935541.31185,38.34015,19.24897003173828
1618935541.32748,37.86877,19.264600038528442
1618935541.34311,38.30881,19.280230045318604
1618935541.35873,39.64452,19.295850038528442
1618935541.37436,41.76123,19.311480045318604
1618935541.38998,44.44901,19.327100038528442
1618935541.40561,47.42001,19.342730045318604
1618935541.42123,50.37692,19.358350038528442
1618935541.43686,53.15198,19.373980045318604
1618935541.45249,55.81238,19.389610052108765
1618935541.46811,58.76694,19.405230045318604
1618935541.48374,62.62021,19.420860052108765
1618935541.49936,67.91901,19.436480045318604
1618935541.51499,74.9437,19.452110052108765
1618935541.53061,83.67917,19.467730045318604
1618935541.54624,93.88089,19.483360052108765
1618935541.56187,105.2128,19.498990058898926
1618935541.57749,117.2939,19.514610052108765
1618935541.59312,129.6503,19.530240058898926
1618935541.60874,141.6997,19.545860052108765
1618935541.62437,152.8985,19.561490058898926
1618935541.63999,163.0334,19.577110052108765
1618935541.65562,172.4954,19.592740058898926
1618935541.67125,182.3659,19.608370065689087
1618935541.68687,194.0462,19.623990058898926
1618935541.7025,208.6514,19.639620065689087
1618935541.71812,226.4303,19.655240058898926
1618935541.73375,246.5731,19.670870065689087
1618935541.74937,267.4723,19.686490058898926
1618935541.765,287.3232,19.702120065689087
1618935541.78063,304.5909,19.717750072479248
1618935541.79625,318.2077,19.733370065689087
1618935541.81188,327.4227,19.749000072479248
1618935541.8275,331.5782,19.764620065689087
1618935541.84313,330.0487,19.780250072479248
1618935541.85876,322.5022,19.79588007926941
1618935541.87438,309.1481,19.811500072479248
1618935541.89001,290.8944,19.82713007926941
1618935541.90563,269.1878,19.842750072479248
1618935541.92126,245.6552,19.85838007926941
1618935541.93688,221.6848,19.874000072479248
1618935541.95251,198.1201,19.88963007926941
1618935541.96814,175.259,19.90525984764099
1618935541.98376,153.011,19.92088007926941
1618935541.99939,131.1671,19.93650984764099
1618935542.01501,109.5427,19.95213007926941
1618935542.03064,88.0708,19.96775984764099
1618935542.04626,66.73999,19.98338007926941
1618935542.06189,45.58118,19.99900984764099
1618935542.07752,24.62964,20.014639854431152
1618935542.09314,3.936279,20.03025984764099
1618935542.10877,-16.43311,20.045889854431152
1618935542.12439,-36.44275,20.06150984764099
1618935542.14002,-56.09375,20.077139854431152
1618935542.15564,-75.4231,20.09275984764099
1618935542.17127,-94.49866,20.108389854431152
1618935542.1869,-113.3221,20.124019861221313
1618935542.20252,-131.7419,20.139639854431152
1618935542.21815,-149.4075,20.155269861221313
1618935542.23377,-165.8273,20.170889854431152
1618935542.2494,-180.5214,20.186519861221313
1618935542.26502,-193.2017,20.202139854431152
1618935542.28065,-203.9249,20.217769861221313
1618935542.29628,-213.0664,20.233399868011475
1618935542.3119,-221.188,20.249019861221313
1618935542.32753,-228.7498,20.264649868011475
1618935542.34315,-235.8619,20.280269861221313
1618935542.35878,-242.2109,20.295899868011475
1618935542.3744,-247.1508,20.311519861221313
1618935542.39003,-250.0515,20.327149868011475
1618935542.40566,-250.6547,20.342779874801636
1618935542.42128,-249.3237,20.358399868011475
1618935542.43691,-247.04,20.374029874801636
1618935542.45253,-245.0698,20.389649868011475
1618935542.46816,-244.4985,20.405279874801636
1618935542.48378,-245.8047,20.420899868011475
1618935542.49941,-248.7488,20.436529874801636
1618935542.51504,-252.532,20.452159881591797
1618935542.53066,-256.2427,20.467779874801636
1618935542.54629,-259.3655,20.483409881591797
1618935542.56191,-262.0071,20.499029874801636
1618935542.57754,-264.9856,20.514659881591797
1618935542.59316,-269.7483,20.530279874801636
1618935542.60879,-278.1096,20.545909881591797
1618935542.62442,-291.9487,20.561539888381958
1618935542.64004,-312.6731,20.577159881591797
1618935542.65567,-340.2837,20.592789888381958
1618935542.67129,-372.5566,20.608409881591797
1618935542.68692,-404.7041,20.624039888381958
1618935542.70254,-430.0576,20.639659881591797
1618935542.71817,-441.8469,20.655289888381958
1618935542.7338,-435.3228,20.67091989517212
1618935542.74942,-409.4578,20.686539888381958
1618935542.76505,-367.2756,20.70216989517212
1618935542.78067,-314.7725,20.717789888381958
1618935542.7963,-258.8582,20.73341989517212
1618935542.81192,-205.3499,20.749039888381958
1618935542.82755,-157.8616,20.76466989517212
1618935542.84318,-117.8594,20.78029990196228
1618935542.8588,-85.4729,20.79591989517212
1618935542.87443,-60.46118,20.81154990196228
1618935542.89005,-42.64917,20.82716989517212
1618935542.90568,-31.75562,20.84279990196228
1618935542.9213,-26.90479,20.85841989517212
1618935542.93693,-26.35156,20.87404990196228
1618935542.95256,-27.80322,20.88967990875244
1618935542.96818,-29.15039,20.90529990196228
1618935542.98381,-29.27563,20.92092990875244
1618935542.99943,-28.46729,20.93654990196228
1618935543.01506,-28.03613,20.95217990875244
1618935543.03068,-29.42993,20.96779990196228
1618935543.04631,-33.23218,20.98342990875244
1618935543.06194,-38.65894,20.999059915542603
1618935543.07756,-43.82715,21.01467990875244
1618935543.09319,-46.74097,21.030309915542603
1618935543.10881,-46.23267,21.04592990875244
1618935543.12444,-42.46436,21.061559915542603
1618935543.14006,-36.64648,21.07717990875244
1618935543.15569,-30.23364,21.092809915542603
1618935543.17132,-24.25537,21.108439922332764
1618935543.18694,-18.93726,21.124059915542603
1618935543.20257,-13.9812,21.139689922332764
1618935543.21819,-8.998779,21.155309915542603
1618935543.23382,-3.889404,21.170939922332764
1618935543.24944,1.123535,21.186559915542603
1618935543.26507,5.695557,21.202189922332764
1618935543.2807,9.655518,21.217819929122925
1618935543.29632,13.13501,21.233439922332764
1618935543.31195,16.47217,21.249069929122925
1618935543.32757,20.05591,21.264689922332764
1618935543.3432,24.05859,21.280319929122925
1618935543.35882,28.43213,21.295939922332764
1618935543.37445,32.8894,21.311569929122925
1618935543.39008,37.03247,21.327199935913086
1618935543.4057,40.44995,21.342819929122925
1618935543.42133,42.79053,21.358449935913086
1618935543.43695,43.84253,21.374069929122925
1618935543.45258,43.56006,21.389699935913086
1618935543.4682,42.11987,21.405319929122925
1618935543.48383,39.84351,21.420949935913086
1618935543.49946,37.1084,21.436579942703247
1618935543.51508,34.21667,21.452199935913086
1618935543.53071,31.33716,21.467829942703247
1618935543.54633,28.53101,21.483449935913086
1618935543.56196,25.85217,21.499079942703247
1618935543.57758,23.41931,21.514699935913086
1618935543.59321,21.40161,21.530329942703247
1618935543.60884,20.01514,21.545959949493408
1618935543.62446,19.37573,21.561579942703247
1618935543.64009,19.45398,21.577209949493408
1618935543.65571,20.09412,21.592829942703247
1618935543.67134,21.02734,21.608459949493408
1618935543.68696,21.953,21.624079942703247
1618935543.70259,22.59436,21.639709949493408
1618935543.71822,22.72717,21.65533995628357
1618935543.73384,22.19116,21.670959949493408
1618935543.74947,20.90515,21.68658995628357
1618935543.76509,18.90356,21.702209949493408
1618935543.78072,16.36816,21.71783995628357
1618935543.79634,13.6366,21.733459949493408
1618935543.81197,11.13635,21.74908995628357
1618935543.8276,9.296143,21.76471996307373
1618935543.84322,8.434937,21.78033995628357
1618935543.85885,8.665527,21.79596996307373
1618935543.87447,9.918945,21.81158995628357
1618935543.8901,11.94922,21.82721996307373
1618935543.90572,14.44958,21.84283995628357
1618935543.92135,17.11047,21.85846996307373
1618935543.93698,19.68774,21.87409996986389
1618935543.9526,21.9906,21.88971996307373
1618935543.96823,23.86646,21.90534996986389
1618935543.98385,25.1676,21.92096996307373
1618935543.99948,25.79932,21.93659996986389
1618935544.0151,25.76917,21.95221996307373
1618935544.03073,25.20349,21.96784996986389
1618935544.04636,24.29333,21.983479976654053
1618935544.06198,23.22119,21.99909996986389
1618935544.07761,22.10144,22.014729976654053
1618935544.09323,20.91748,22.03034996986389
1618935544.10886,19.62085,22.045979976654053
1618935544.12449,18.22778,22.061609983444214
1618935544.14011,16.86707,22.077229976654053
1618935544.15574,15.79382,22.092859983444214
1618935544.17136,15.24548,22.108479976654053
1618935544.18699,15.31995,22.124109983444214
1618935544.20261,15.89856,22.139729976654053
1618935544.21824,16.71362,22.155359983444214
1618935544.23387,17.43042,22.170989990234375
1618935544.24949,17.80176,22.186609983444214
1618935544.26512,17.72913,22.202239990234375
1618935544.28074,17.22461,22.217859983444214
1618935544.29637,16.38184,22.233489990234375
1618935544.31199,15.31262,22.249109983444214
1618935544.32762,14.14331,22.264739990234375
1618935544.34325,13.00916,22.280369997024536
1618935544.35887,11.99805,22.295989990234375
1618935544.3745,11.14209,22.311619997024536
1618935544.39012,10.38098,22.327239990234375
1618935544.40575,9.586182,22.342869997024536
1618935544.42137,8.62146,22.358489990234375
1618935544.437,7.50061,22.374119997024536
1618935544.45263,6.376343,22.389750003814697
1618935544.46825,5.528809,22.405369997024536
1618935544.48388,5.233521,22.421000003814697
1618935544.4995,5.629272,22.436619997024536
1618935544.51513,6.672729,22.452250003814697
1618935544.53075,8.199097,22.467869997024536
1618935544.54638,10.00256,22.483500003814697
1618935544.56201,11.86865,22.49913001060486
1618935544.57763,13.64453,22.514750003814697
1618935544.59326,15.19165,22.53038001060486
1618935544.60888,16.37744,22.546000003814697
1618935544.62451,17.11072,22.56163001060486
1618935544.64013,17.35315,22.577250003814697
1618935544.65576,17.13745,22.59288001060486
1618935544.67139,16.53247,22.60851001739502
1618935544.68701,15.63306,22.62413001060486
1618935544.70264,14.50793,22.63976001739502
1618935544.71826,13.23035,22.65538001060486
1618935544.73389,11.88062,22.67101001739502
1618935544.74951,10.57239,22.68663001060486
1618935544.76514,9.390015,22.70226001739502
1618935544.78077,8.382446,22.71789002418518
1618935544.79639,7.52417,22.73351001739502
1618935544.81202,6.775024,22.74914002418518
1618935544.82764,6.156128,22.76476001739502
1618935544.84327,5.808105,22.78039002418518
1618935544.85889,5.911743,22.79601001739502
1618935544.87452,6.536011,22.81164002418518
1618935544.89015,7.563477,22.827270030975342
1618935544.90577,8.644287,22.84289002418518
1618935544.9214,9.349731,22.858520030975342
1618935544.93702,9.401245,22.87414002418518
1618935544.95265,8.781128,22.889770030975342
1618935544.96827,7.748169,22.90539002418518
1618935544.9839,6.677856,22.921020030975342
1618935544.99953,5.787231,22.936650037765503
1618935545.01515,5.029053,22.952270030975342
1618935545.03078,4.148926,22.967900037765503
1618935545.0464,2.862427,22.983520030975342
1618935545.06203,1.117188,22.999150037765503
1618935545.07765,-0.8322754,23.014770030975342
1618935545.09328,-2.533203,23.030400037765503
1618935545.10891,-3.590332,23.046030044555664
1618935545.12453,-3.883911,23.061650037765503
1618935545.14016,-3.574097,23.077280044555664
1618935545.15578,-2.954956,23.092900037765503
1618935545.17141,-2.265625,23.108530044555664
1618935545.18703,-1.512451,23.124150037765503
1618935545.20266,-0.5493164,23.139780044555664
1618935545.21829,0.7813721,23.155410051345825
1618935545.23391,2.496216,23.171030044555664
1618935545.24954,4.41687,23.186660051345825
1618935545.26516,6.259399,23.202280044555664
1618935545.28079,7.780762,23.217910051345825
1618935545.29641,8.895996,23.233530044555664
1618935545.31204,9.658569,23.249160051345825
1618935545.32767,10.17749,23.264790058135986
1618935545.34329,10.55322,23.280410051345825
1618935545.35892,10.81152,23.296040058135986
1618935545.37454,10.95264,23.311660051345825
1618935545.39017,10.97375,23.327290058135986
1618935545.40579,10.88184,23.342910051345825
1618935545.42142,10.67688,23.358540058135986
1618935545.43705,10.37378,23.374170064926147
1618935545.45267,9.984619,23.389790058135986
1618935545.4683,9.587646,23.405420064926147
1618935545.48392,9.288208,23.421040058135986
1618935545.49955,9.175293,23.436670064926147
1618935545.51517,9.304077,23.452290058135986
1618935545.5308,9.616211,23.467920064926147
1618935545.54643,9.98877,23.48355007171631
1618935545.56205,10.27039,23.499170064926147
1618935545.57768,10.34509,23.51480007171631
1618935545.5933,10.1665,23.530420064926147
1618935545.60893,9.733887,23.54605007171631
1618935545.62455,9.065552,23.561670064926147
1618935545.64018,8.141602,23.57730007171631
1618935545.65581,6.923096,23.59293007850647
1618935545.67143,5.378296,23.60855007171631
1618935545.68706,3.573242,23.62418007850647
1618935545.70268,1.671997,23.63980007171631
1618935545.71831,-0.01940918,23.65543007850647
1618935545.73393,-1.181152,23.67105007171631
1618935545.74956,-1.503418,23.68668007850647
1618935545.76519,-0.8446045,23.70230984687805
1618935545.78081,0.7431641,23.71793007850647
1618935545.79644,2.977905,23.73355984687805
1618935545.81206,5.43042,23.74918007850647
1618935545.82769,7.657593,23.76480984687805
1618935545.84331,9.337769,23.78043007850647
1618935545.85894,10.41614,23.79605984687805
1618935545.87457,11.10217,23.811689853668213
1618935545.89019,11.8053,23.82730984687805
1618935545.90582,12.92407,23.842939853668213
1618935545.92144,14.65881,23.85855984687805
1618935545.93707,16.87195,23.874189853668213
1618935545.95269,19.11365,23.88980984687805
1618935545.96832,20.78467,23.905439853668213
1618935545.98395,21.36523,23.921069860458374
1618935545.99957,20.64386,23.936689853668213
1618935546.0152,18.77539,23.952319860458374
1618935546.03082,16.21521,23.967939853668213
1618935546.04645,13.51758,23.983569860458374
1618935546.06207,11.20117,23.999189853668213
1618935546.0777,9.570923,24.014819860458374
1618935546.09333,8.699524,24.030449867248535
1618935546.10895,8.456116,24.046069860458374
1618935546.12458,8.539917,24.061699867248535
1618935546.1402,8.573181,24.077319860458374
1618935546.15583,8.213196,24.092949867248535
1618935546.17145,7.281982,24.108569860458374
1618935546.18708,5.836975,24.124199867248535
1618935546.20271,4.220825,24.139829874038696
1618935546.21833,2.90033,24.155449867248535
1618935546.23396,2.296631,24.171079874038696
1618935546.24958,2.603638,24.186699867248535
1618935546.26521,3.698425,24.202329874038696
1618935546.28083,5.251099,24.217949867248535
1618935546.29646,6.812866,24.233579874038696
1618935546.31209,8.031189,24.249209880828857
1618935546.32771,8.604553,24.264829874038696
1618935546.34334,8.351807,24.280459880828857
1618935546.35896,7.182617,24.296079874038696
1618935546.37459,5.128357,24.311709880828857
1618935546.39021,2.460938,24.327329874038696
1618935546.40584,-0.3381958,24.342959880828857
1618935546.42147,-2.669434,24.35858988761902
1618935546.43709,-4.055847,24.374209880828857
1618935546.45272,-4.353699,24.38983988761902
1618935546.46834,-3.812439,24.405459880828857
1618935546.48397,-2.920959,24.42108988761902
1618935546.49959,-2.131409,24.436709880828857
1618935546.51522,-1.638489,24.45233988761902
1618935546.53085,-1.312317,24.46796989440918
1618935546.54647,-0.8540039,24.48358988761902
1618935546.5621,-0.05395508,24.49921989440918
1618935546.57772,1.043335,24.51483988761902
1618935546.59335,2.155396,24.53046989440918
1618935546.60897,2.936523,24.54608988761902
1618935546.6246,3.204102,24.56171989440918
1618935546.64023,3.06311,24.57734990119934
1618935546.65585,2.85907,24.59296989440918
1618935546.67148,3.005859,24.60859990119934
1618935546.6871,3.71991,24.62421989440918
1618935546.70273,4.928955,24.63984990119934
1618935546.71835,6.276489,24.65546989440918
1618935546.73398,7.300964,24.67109990119934
1618935546.74961,7.668457,24.686729907989502
1618935546.76523,7.291382,24.70234990119934
1618935546.78086,6.349548,24.717979907989502
1618935546.79648,5.104309,24.73359990119934
1618935546.81211,3.794128,24.749229907989502
1618935546.82774,2.504517,24.764859914779663
1618935546.84336,1.260681,24.780479907989502
1618935546.85899,0.09320068,24.796109914779663
1618935546.87461,-0.8430786,24.811729907989502
1618935546.89024,-1.341736,24.827359914779663
1618935546.90586,-1.258179,24.842979907989502
1618935546.92149,-0.6480103,24.858609914779663
1618935546.93712,0.182312,24.874239921569824
1618935546.95274,0.7849121,24.889859914779663
1618935546.96837,0.7750244,24.905489921569824
1618935546.98399,0.09307861,24.921109914779663
1618935546.99962,-0.932312,24.936739921569824
1618935547.01524,-1.698853,24.952359914779663
1618935547.03087,-1.575684,24.967989921569824
1618935547.0465,-0.1894531,24.983619928359985
1618935547.06212,2.411987,24.999239921569824
1618935547.07775,5.806091,25.014869928359985
1618935547.09337,9.385864,25.030489921569824
1618935547.109,12.59894,25.046119928359985
1618935547.12462,15.15106,25.061739921569824
1618935547.14025,17.02557,25.077369928359985
1618935547.15588,18.37549,25.092999935150146
1618935547.1715,19.42194,25.108619928359985
1618935547.18713,20.36151,25.124249935150146
1618935547.20275,21.33191,25.139869928359985
1618935547.21838,22.46484,25.155499935150146
1618935547.234,23.88904,25.171119928359985
1618935547.24963,25.69598,25.186749935150146
1618935547.26526,27.89575,25.202379941940308
1618935547.28088,30.43365,25.217999935150146
1618935547.29651,33.1842,25.233629941940308
1618935547.31213,35.98846,25.249249935150146
1618935547.32776,38.72125,25.264879941940308
1618935547.34338,41.24438,25.280499935150146
1618935547.35901,43.47095,25.296129941940308
1618935547.37464,45.38422,25.31175994873047
1618935547.39026,47.08209,25.327379941940308
1618935547.40589,48.76654,25.34300994873047
1618935547.42151,50.64587,25.358629941940308
1618935547.43714,52.85022,25.37425994873047
1618935547.45276,55.29681,25.389879941940308
1618935547.46839,57.79504,25.40550994873047
1618935547.48402,60.11389,25.42113995552063
1618935547.49964,62.23309,25.43675994873047
1618935547.51527,64.3197,25.45238995552063
1618935547.53089,66.66016,25.46800994873047
1618935547.54652,69.45093,25.48363995552063
1618935547.56214,72.63257,25.49925994873047
1618935547.57777,75.91144,25.51488995552063
1618935547.5934,78.93597,25.53051996231079
1618935547.60902,81.48456,25.54613995552063
1618935547.62465,83.53729,25.56176996231079
1618935547.64027,85.20367,25.57738995552063
1618935547.6559,86.48999,25.59301996231079
1618935547.67152,87.29004,25.60863995552063
1618935547.68715,87.38782,25.62426996231079
1618935547.70278,86.62244,25.639899969100952
1618935547.7184,85.06226,25.65551996231079
1618935547.73403,82.94214,25.671149969100952
1618935547.74965,80.60126,25.68676996231079
1618935547.76528,78.2887,25.702399969100952
1618935547.7809,76.05884,25.71801996231079
1618935547.79653,73.88409,25.733649969100952
1618935547.81216,71.80133,25.749279975891113
1618935547.82778,70.16614,25.764899969100952
1618935547.84341,69.72369,25.780529975891113
1618935547.85903,71.53278,25.796149969100952
1618935547.87466,76.71344,25.811779975891113
1618935547.89028,86.04181,25.827399969100952
1618935547.90591,99.42084,25.843029975891113
1618935547.92154,115.5242,25.858659982681274
1618935547.93716,131.8439,25.874279975891113
1618935547.95279,145.2153,25.889909982681274
1618935547.96841,152.8428,25.905529975891113
1618935547.98404,153.2924,25.921159982681274
1618935547.99966,147.0217,25.936779975891113
1618935548.01529,136.1361,25.952409982681274
1618935548.03092,123.4344,25.968039989471436
1618935548.04654,111.2877,25.983659982681274
1618935548.06217,100.8503,25.999289989471436
1618935548.07779,91.98242,26.014909982681274
1618935548.09342,83.82898,26.030539989471436
1618935548.10904,75.59448,26.046159982681274
1618935548.12467,67.11145,26.061789989471436
1618935548.1403,58.85913,26.077419996261597
1618935548.15592,51.49365,26.093039989471436
1618935548.17155,45.27576,26.108669996261597
1618935548.18717,39.64648,26.124289989471436
1618935548.2028,33.25183,26.139919996261597
1618935548.21842,24.41467,26.155539989471436
1618935548.23405,11.65051,26.171169996261597
1618935548.24968,-5.739868,26.186800003051758
1618935548.2653,-27.36902,26.202419996261597
1618935548.28093,-51.89197,26.218050003051758
1618935548.29655,-77.53845,26.233669996261597
1618935548.31218,-102.7518,26.249300003051758
1618935548.3278,-126.7173,26.264919996261597
1618935548.34343,-149.5874,26.280550003051758
1618935548.35906,-172.1917,26.29618000984192
1618935548.37468,-195.6332,26.311800003051758
1618935548.39031,-221.0741,26.32743000984192
1618935548.40593,-249.7825,26.343050003051758
1618935548.42156,-283.0833,26.35868000984192
1618935548.43718,-321.79,26.374300003051758
1618935548.45281,-365.0856,26.38993000984192
1618935548.46844,-409.5913,26.40556001663208
1618935548.48406,-449.3489,26.42118000984192
1618935548.49969,-477.246,26.43681001663208
1618935548.51531,-487.554,26.45243000984192
1618935548.53094,-478.2222,26.46806001663208
1618935548.54656,-451.6274,26.48368000984192
1618935548.56219,-413.2941,26.49931001663208
1618935548.57782,-369.2427,26.51494002342224
1618935548.59344,-323.5974,26.53056001663208
1618935548.60907,-277.8289,26.54619002342224
1618935548.62469,-231.7966,26.56181001663208
1618935548.64032,-185.6857,26.57744002342224
1618935548.65594,-141.3123,26.59306001663208
1618935548.67157,-101.9084,26.60869002342224
1618935548.6872,-70.60242,26.624320030212402
1618935548.70282,-48.7135,26.63994002342224
1618935548.71845,-35.03235,26.655570030212402
1618935548.73407,-26.52039,26.67119002342224
1618935548.7497,-19.88062,26.686820030212402
1618935548.76532,-13.0033,26.70244002342224
1618935548.78095,-5.484985,26.718070030212402
1618935548.79658,1.62915,26.733700037002563
1618935548.8122,6.917114,26.749320030212402
1618935548.82783,9.579224,26.764950037002563
1618935548.84345,9.914917,26.780570030212402
1618935548.85908,9.186157,26.796200037002563
1618935548.8747,9.051758,26.811820030212402
1618935548.89033,10.84705,26.827450037002563
1618935548.90596,15.09143,26.843080043792725
1618935548.92158,21.33691,26.858700037002563
1618935548.93721,28.40869,26.874330043792725
1618935548.95283,35.01636,26.889950037002563
1618935548.96846,40.36206,26.905580043792725
1618935548.98409,44.45837,26.921210050582886
1618935548.99971,47.9635,26.936830043792725
1618935549.01534,51.68274,26.952460050582886
1618935549.03096,56.00476,26.968080043792725
1618935549.04659,60.58643,26.983710050582886
1618935549.06221,64.52319,26.999330043792725
1618935549.07784,66.87695,27.014960050582886
1618935549.09347,67.2594,27.030590057373047
1618935549.10909,66.03113,27.046210050582886
1618935549.12472,64.07532,27.061840057373047
1618935549.14034,62.25159,27.077460050582886
1618935549.15597,60.95264,27.093090057373047
1618935549.17159,59.93115,27.108710050582886
1618935549.18722,58.55774,27.124340057373047
1618935549.20285,56.25977,27.139970064163208
1618935549.21847,52.77661,27.155590057373047
1618935549.2341,48.2572,27.171220064163208
1618935549.24972,43.05383,27.186840057373047
1618935549.26535,37.5072,27.202470064163208
1618935549.28097,31.86389,27.218090057373047
1618935549.2966,26.30908,27.233720064163208
1618935549.31223,21.07373,27.24935007095337
1618935549.32785,16.41736,27.264970064163208
1618935549.34348,12.57166,27.28060007095337
1618935549.3591,9.569214,27.296220064163208
1618935549.37473,7.196411,27.31185007095337
1618935549.39035,5.040161,27.327470064163208
1618935549.40598,2.6875,27.34310007095337
1618935549.42161,-0.078125,27.35873007774353
1618935549.43723,-3.122314,27.37435007095337
1618935549.45286,-6.028809,27.38998007774353
1618935549.46848,-8.274292,27.40560007095337
1618935549.48411,-9.359131,27.42123007774353
1618935549.49973,-9.047485,27.43685007095337
1618935549.51536,-7.353394,27.45248007774353
1618935549.53099,-4.51123,27.468109846115112
1618935549.54661,-0.8656616,27.48373007774353
1618935549.56224,3.218811,27.499359846115112
1618935549.57786,7.456726,27.51498007774353
1618935549.59349,11.57764,27.530609846115112
1618935549.60911,15.30145,27.54623007774353
1618935549.62474,18.28564,27.561859846115112
1618935549.64037,20.23169,27.577489852905273
1618935549.65599,20.97577,27.593109846115112
1618935549.67162,20.61542,27.608739852905273
1618935549.68724,19.50793,27.624359846115112
1618935549.70287,18.14545,27.639989852905273
1618935549.71849,16.95618,27.655609846115112
1618935549.73412,16.1593,27.671239852905273
1618935549.74975,15.76135,27.686869859695435
1618935549.76537,15.61755,27.702489852905273
1618935549.781,15.58972,27.718119859695435
1618935549.79662,15.55981,27.733739852905273
1618935549.81225,15.44543,27.749369859695435
1618935549.82787,15.11261,27.764989852905273
1618935549.8435,14.4209,27.780619859695435
1618935549.85913,13.26556,27.796249866485596
1618935549.87475,11.67963,27.811869859695435
1618935549.89038,9.86438,27.827499866485596
1618935549.906,8.088745,27.843119859695435
1618935549.92163,6.548218,27.858749866485596
1618935549.93725,5.224731,27.874369859695435
1618935549.95288,3.871033,27.889999866485596
1618935549.96851,2.154663,27.905629873275757
1618935549.98413,-0.1557007,27.921249866485596
1618935549.99976,-3.07959,27.936879873275757
1618935550.01538,-6.385376,27.952499866485596
1618935550.03101,-9.656982,27.968129873275757
1618935550.04663,-12.36316,27.983749866485596
1618935550.06226,-13.95868,27.999379873275757
1618935550.07789,-13.94177,28.015009880065918
1618935550.09351,-11.99603,28.030629873275757
1618935550.10914,-8.115112,28.046259880065918
1618935550.12476,-2.683899,28.061879873275757
1618935550.14039,3.619324,28.077509880065918
1618935550.15601,9.99176,28.093129873275757
1618935550.17164,15.75092,28.108759880065918
1618935550.18727,20.47565,28.12438988685608
1618935550.20289,24.06329,28.140009880065918
1618935550.21852,26.61096,28.15563988685608
1618935550.23414,28.26526,28.171259880065918
1618935550.24977,29.16211,28.18688988685608
1618935550.26539,29.40479,28.202509880065918
1618935550.28102,29.07172,28.21813988685608
1618935550.29665,28.28809,28.23376989364624
1618935550.31227,27.22345,28.24938988685608
1618935550.3279,26.04626,28.26501989364624
1618935550.34352,24.89331,28.28063988685608
1618935550.35915,23.86255,28.29626989364624
1618935550.37477,22.96252,28.31188988685608
1618935550.3904,22.18256,28.32751989364624
1618935550.40603,21.42804,28.3431499004364
1618935550.42165,20.62372,28.35876989364624
1618935550.43728,19.68549,28.3743999004364
1618935550.4529,18.57843,28.39001989364624
1618935550.46853,17.31244,28.4056499004364
1618935550.48415,16.00012,28.42126989364624
1618935550.49978,14.77051,28.4368999004364
1618935550.51541,13.77155,28.452529907226562
1618935550.53103,13.10028,28.4681499004364
1618935550.54666,12.75336,28.483779907226562
1618935550.56228,12.59076,28.4993999004364
1618935550.57791,12.32227,28.515029907226562
1618935550.59353,11.5943,28.5306499004364
1618935550.60916,10.1076,28.546279907226562
1618935550.62479,7.71698,28.561909914016724
1618935550.64041,4.531067,28.577529907226562
1618935550.65604,0.9192505,28.593159914016724
1618935550.67166,-2.593445,28.608779907226562
1618935550.68729,-5.460815,28.624409914016724
1618935550.70291,-7.191956,28.640029907226562
1618935550.71854,-7.498474,28.655659914016724
1618935550.73417,-6.328735,28.671289920806885
1618935550.74979,-3.88147,28.686909914016724
1618935550.76542,-0.5438843,28.702539920806885
1618935550.78104,3.155396,28.718159914016724
1618935550.79667,6.738159,28.733789920806885
1618935550.81229,9.90332,28.749409914016724
1618935550.82792,12.50543,28.765039920806885
1618935550.84355,14.58981,28.780669927597046
1618935550.85917,16.2341,28.796289920806885
1618935550.8748,17.50476,28.811919927597046
1618935550.89042,18.42169,28.827539920806885
1618935550.90605,18.97653,28.843169927597046
1618935550.92167,19.18835,28.858789920806885
1618935550.9373,19.07864,28.874419927597046
1618935550.95293,18.64246,28.890049934387207
1618935550.96855,17.84714,28.905669927597046
1618935550.98418,16.64856,28.921299934387207
1618935550.9998,15.08728,28.936919927597046
1618935551.01543,13.36423,28.952549934387207
1618935551.03105,11.78244,28.968169927597046
1618935551.04668,10.63486,28.983799934387207
1618935551.06231,10.04324,28.999429941177368
1618935551.07793,9.838715,29.015049934387207
1618935551.09356,9.665253,29.030679941177368
1618935551.10918,9.184235,29.046299934387207
1618935551.12481,8.291718,29.061929941177368
1618935551.14043,7.113739,29.077549934387207
1618935551.15606,5.934998,29.093179941177368
1618935551.17169,4.929108,29.10880994796753
1618935551.18731,4.082275,29.124429941177368
1618935551.20294,3.221832,29.14005994796753
1618935551.21856,2.13443,29.155679941177368
1618935551.23419,0.769989,29.17130994796753
1618935551.24981,-0.8252869,29.186929941177368
1618935551.26544,-2.554047,29.20255994796753
1618935551.28107,-4.417236,29.21818995475769
1618935551.29669,-6.500519,29.23380994796753
1618935551.31232,-8.816895,29.24943995475769
1618935551.32794,-11.19608,29.26505994796753
1618935551.34357,-13.18149,29.28068995475769
1618935551.35919,-14.20456,29.29630994796753
1618935551.37482,-13.83972,29.31193995475769
1618935551.39045,-12.03885,29.32756996154785
1618935551.40607,-9.190582,29.34318995475769
1618935551.4217,-5.900299,29.35881996154785
1618935551.43732,-2.73587,29.37443995475769
1618935551.45295,-0.01434326,29.39006996154785
1618935551.46858,2.269257,29.405699968338013
1618935551.4842,4.277374,29.42131996154785
1618935551.49983,6.175781,29.436949968338013
1618935551.51545,8.019653,29.45256996154785
1618935551.53108,9.722931,29.468199968338013
1618935551.5467,11.15643,29.48381996154785
1618935551.56233,12.26788,29.499449968338013
1618935551.57796,13.08963,29.515079975128174
1618935551.59358,13.68362,29.530699968338013
1618935551.60921,14.09534,29.546329975128174
1618935551.62483,14.31021,29.561949968338013
1618935551.64046,14.27316,29.577579975128174
1618935551.65608,14.02081,29.593199968338013
1618935551.67171,13.67911,29.608829975128174
1618935551.68734,13.46762,29.624459981918335
1618935551.70296,13.52036,29.640079975128174
1618935551.71859,13.78079,29.655709981918335
1618935551.73421,13.98187,29.671329975128174
1618935551.74984,13.76855,29.686959981918335
1618935551.76546,12.92264,29.702579975128174
1618935551.78109,11.45374,29.718209981918335
1618935551.79672,9.61496,29.733839988708496
1618935551.81234,7.721649,29.749459981918335
1618935551.82797,5.979645,29.765089988708496
1618935551.84359,4.387238,29.780709981918335
1618935551.85922,2.810364,29.796339988708496
1618935551.87484,1.093872,29.811959981918335
1618935551.89047,-0.8260193,29.827589988708496
1618935551.9061,-2.898193,29.843219995498657
1618935551.92172,-4.990601,29.858839988708496
1618935551.93735,-7.006775,29.874469995498657
1618935551.95297,-8.885345,29.890089988708496
1618935551.9686,-10.56613,29.905719995498657
1618935551.98422,-11.94049,29.921339988708496
1618935551.99985,-12.77634,29.936969995498657
1618935552.01548,-12.80637,29.95260000228882
1618935552.0311,-11.83685,29.968219995498657
1618935552.04673,-9.889069,29.98385000228882
1618935552.06235,-7.231232,29.999469995498657
1618935552.07798,-4.264526,30.01510000228882
1618935552.0936,-1.383636,30.030719995498657
1618935552.10923,1.208527,30.04635000228882
1618935552.12486,3.557098,30.06198000907898
1618935552.14048,5.829132,30.07760000228882
1618935552.15611,8.14328,30.09323000907898
1618935552.17173,10.42654,30.10885000228882
1618935552.18736,12.37498,30.12448000907898
1618935552.20298,13.64093,30.14010000228882
1618935552.21861,14.0587,30.15573000907898
1618935552.23424,13.73964,30.17136001586914
1618935552.24986,13.07405,30.18698000907898
1618935552.26549,12.45413,30.20261001586914
1618935552.28111,12.05328,30.21823000907898
1618935552.29674,11.79727,30.23386001586914
1618935552.31236,11.46976,30.24948000907898
1618935552.32799,10.92909,30.26511001586914
1618935552.34362,10.23358,30.2807400226593
1618935552.35924,9.551514,30.29636001586914
1618935552.37487,9.011215,30.3119900226593
1618935552.39049,8.563522,30.32761001586914
1618935552.40612,8.014084,30.3432400226593
1618935552.42174,7.127472,30.35886001586914
1618935552.43737,5.825745,30.3744900226593
1618935552.453,4.240143,30.390120029449463
1618935552.46862,2.646942,30.4057400226593
1618935552.48425,1.28775,30.421370029449463
1618935552.49987,0.2862396,30.4369900226593
1618935552.5155,-0.465744,30.452620029449463
1618935552.53112,-1.139191,30.4682400226593
1618935552.54675,-1.951614,30.483870029449463
1618935552.56238,-3.076996,30.499500036239624
1618935552.578,-4.615662,30.515120029449463
1618935552.59363,-6.632492,30.530750036239624
1618935552.60925,-9.087753,30.546370029449463
1618935552.62488,-11.81891,30.562000036239624
1618935552.6405,-14.49463,30.577620029449463
1618935552.65613,-16.71185,30.593250036239624
1618935552.67176,-18.03947,30.608880043029785
1618935552.68738,-18.17783,30.624500036239624
1618935552.70301,-17.01649,30.640130043029785
1618935552.71863,-14.64195,30.655750036239624
1618935552.73426,-11.29933,30.671380043029785
1618935552.74988,-7.288467,30.687000036239624
1618935552.76551,-2.908737,30.702630043029785
1618935552.78114,1.576675,30.718260049819946
1618935552.79676,5.978134,30.733880043029785
1618935552.81239,10.13347,30.749510049819946
1618935552.82801,13.89783,30.765130043029785
1618935552.84364,17.08728,30.780760049819946
1618935552.85926,19.55879,30.796380043029785
1618935552.87489,21.22024,30.812010049819946
1618935552.89052,22.07779,30.827640056610107
1618935552.90614,22.23666,30.843260049819946
1618935552.92177,21.90143,30.858890056610107
1618935552.93739,21.27544,30.874510049819946
1618935552.95302,20.54305,30.890140056610107
1618935552.96864,19.78844,30.905760049819946
1618935552.98427,19.01059,30.921390056610107
1618935552.9999,18.13564,30.93702006340027
1618935553.01552,17.08383,30.952640056610107
1618935553.03115,15.86323,30.96827006340027
1618935553.04677,14.5723,30.983890056610107
1618935553.0624,13.4032,30.99952006340027
1618935553.07802,12.5256,31.015140056610107
1618935553.09365,12.00629,31.03077006340027
1618935553.10928,11.77237,31.04640007019043
1618935553.1249,11.63665,31.06202006340027
1618935553.14053,11.38654,31.07765007019043
1618935553.15615,10.88998,31.09327006340027
1618935553.17178,10.08806,31.10890007019043
1618935553.1874,8.972153,31.12452006340027
1618935553.20303,7.517212,31.14015007019043
1618935553.21866,5.635941,31.15578007698059
1618935553.23428,3.284058,31.17140007019043
1618935553.24991,0.5301895,31.18703007698059
1618935553.26553,-2.403168,31.20265007019043
1618935553.28116,-5.233124,31.21828007698059
1618935553.29678,-7.718483,31.23390007019043
1618935553.31241,-9.763145,31.24953007698059
1618935553.32804,-11.35905,31.265159845352173
1618935553.34366,-12.47483,31.28078007698059
1618935553.35929,-12.97456,31.296409845352173
1618935553.37491,-12.6158,31.31203007698059
1618935553.39054,-11.20322,31.327659845352173
1618935553.40616,-8.75914,31.34328007698059
1618935553.42179,-5.552849,31.358909845352173
1618935553.43742,-2.073692,31.374539852142334
1618935553.45304,1.198555,31.390159845352173
1618935553.46867,3.940788,31.405789852142334
1618935553.48429,6.063354,31.421409845352173
1618935553.49992,7.640907,31.437039852142334
1618935553.51554,8.791214,31.452659845352173
1618935553.53117,9.603172,31.468289852142334
1618935553.5468,10.0952,31.483919858932495
1618935553.56242,10.27756,31.499539852142334
1618935553.57805,10.19628,31.515169858932495
1618935553.59367,9.946602,31.530789852142334
1618935553.6093,9.686096,31.546419858932495
1618935553.62492,9.522057,31.562039852142334
1618935553.64055,9.524666,31.577669858932495
1618935553.65618,9.657936,31.593299865722656
1618935553.6718,9.836815,31.608919858932495
1618935553.68743,9.93792,31.624549865722656
1618935553.70305,9.856613,31.640169858932495
1618935553.71868,9.545135,31.655799865722656
1618935553.7343,9.013039,31.671419858932495
1618935553.74993,8.327026,31.687049865722656
1618935553.76556,7.555504,31.702679872512817
1618935553.78118,6.767212,31.718299865722656
1618935553.79681,6.008118,31.733929872512817
1618935553.81243,5.338409,31.749549865722656
1618935553.82806,4.793655,31.765179872512817
1618935553.84369,4.37719,31.78080987930298
1618935553.85931,4.038467,31.796429872512817
1618935553.87494,3.60154,31.81205987930298
1618935553.89056,2.848297,31.827679872512817
1618935553.90619,1.555511,31.84330987930298
1618935553.92181,-0.4147491,31.858929872512817
1618935553.93744,-3.038723,31.87455987930298
1618935553.95307,-6.115612,31.89018988609314
1618935553.96869,-9.33662,31.90580987930298
1618935553.98432,-12.32271,31.92143988609314
1618935553.99994,-14.6815,31.93705987930298
1618935554.01557,-16.06845,31.95268988609314
1618935554.03119,-16.21466,31.96830987930298
1618935554.04682,-14.9861,31.98393988609314
1618935554.06245,-12.42474,31.9995698928833
1618935554.07807,-8.785862,32.01518988609314
1618935554.0937,-4.506763,32.0308198928833
1618935554.10932,-0.1144142,32.04643988609314
1618935554.12495,3.877857,32.0620698928833
1618935554.14057,7.139832,32.07768988609314
1618935554.1562,9.56638,32.0933198928833
1618935554.17183,11.25049,32.10894989967346
1618935554.18745,12.42432,32.1245698928833
1618935554.20308,13.31385,32.14019989967346
1618935554.2187,14.0574,32.1558198928833
1618935554.23433,14.68846,32.17144989967346
1618935554.24995,15.12406,32.1870698928833
1618935554.26558,15.24183,32.20269989967346
1618935554.28121,14.97527,32.21832990646362
1618935554.29683,14.35149,32.23394989967346
1618935554.31246,13.48996,32.24957990646362
1618935554.32808,12.56775,32.26519989967346
1618935554.34371,11.75394,32.28082990646362
1618935554.35933,11.15034,32.29644989967346
1618935554.37496,10.74576,32.31207990646362
1618935554.39059,10.47467,32.327709913253784
1618935554.40621,10.19887,32.34332990646362
1618935554.42184,9.794464,32.358959913253784
1618935554.43746,9.132637,32.37457990646362
1618935554.45309,8.113346,32.390209913253784
1618935554.46871,6.678009,32.40582990646362
1618935554.48434,4.82489,32.421459913253784
1618935554.49997,2.642452,32.437089920043945
1618935554.51559,0.2611313,32.452709913253784
1618935554.53122,-2.157715,32.468339920043945
1618935554.54684,-4.465641,32.483959913253784
1618935554.56247,-6.553089,32.499589920043945
1618935554.57809,-8.384651,32.515209913253784
1618935554.59372,-9.981586,32.530839920043945
1618935554.60935,-11.35518,32.546469926834106
1618935554.62497,-12.51333,32.562089920043945
1618935554.6406,-13.38395,32.577719926834106
1618935554.65622,-13.8567,32.593339920043945
1618935554.67185,-13.84966,32.608969926834106
1618935554.68747,-13.33004,32.624589920043945
1618935554.7031,-12.34549,32.640219926834106
1618935554.71873,-10.98544,32.65584993362427
1618935554.73435,-9.310833,32.671469926834106
1618935554.74998,-7.330719,32.68709993362427
1618935554.7656,-5.057564,32.702719926834106
1618935554.78123,-2.556999,32.71834993362427
1618935554.79685,-0.01117706,32.733969926834106
1618935554.81248,2.303936,32.74959993362427
1618935554.82811,4.120628,32.76522994041443
1618935554.84373,5.324844,32.78084993362427
1618935554.85936,5.993,32.79647994041443
1618935554.87498,6.401924,32.81209993362427
1618935554.89061,6.859589,32.82772994041443
1618935554.90623,7.551292,32.84334993362427
1618935554.92186,8.471619,32.85897994041443
1618935554.93749,9.455746,32.87460994720459
1618935554.95311,10.32685,32.89022994041443
1618935554.96874,10.98048,32.90585994720459
1618935554.98436,11.4865,32.92147994041443
1618935554.99999,11.96004,32.93710994720459
1618935555.01561,12.49917,32.95272994041443
1618935555.03124,13.02645,32.96835994720459
1618935555.04687,13.31752,32.98398995399475
1618935555.06249,13.10272,32.99960994720459
1618935555.07812,12.1838,33.01523995399475
1618935555.09374,10.51468,33.03085994720459
1618935555.10937,8.218513,33.04648995399475
1618935555.12499,5.534729,33.06210994720459
1618935555.14062,2.686085,33.07773995399475
1618935555.15625,-0.1537819,33.09336996078491
1618935555.17187,-2.862099,33.10898995399475
1618935555.1875,-5.367821,33.12461996078491
1618935555.20312,-7.629581,33.14023995399475
1618935555.21875,-9.674938,33.15586996078491
1618935555.23437,-11.58401,33.17148995399475
1618935555.25,-13.49065,33.18711996078491
1618935555.26563,-15.43863,33.20274996757507
1618935555.28125,-17.29309,33.21836996078491
1618935555.29688,-18.69933,33.23399996757507
1618935555.3125,-19.19289,33.24961996078491
1618935555.32813,-18.39108,33.26524996757507
1618935555.34375,-16.16594,33.28086996078491
1618935555.35938,-12.71486,33.29649996757507
1618935555.37501,-8.440449,33.312129974365234
1618935555.39063,-3.837112,33.32774996757507
1618935555.40626,0.6457329,33.343379974365234
1618935555.42188,4.640713,33.35899996757507
1618935555.43751,7.863602,33.374629974365234
1618935555.45313,10.09008,33.39024996757507
1618935555.46876,11.19638,33.405879974365234
1618935555.48439,11.25114,33.421509981155396
1618935555.50001,10.53219,33.437129974365234
1618935555.51564,9.536072,33.452759981155396
1618935555.53126,8.767078,33.468379974365234
1618935555.54689,8.628963,33.484009981155396
1618935555.56251,9.235451,33.499629974365234
1618935555.57814,10.41658,33.515259981155396
1618935555.59377,11.79638,33.53088998794556
1618935555.60939,12.91169,33.546509981155396
1618935555.62502,13.37267,33.56213998794556
1618935555.64064,12.91824,33.577759981155396
1618935555.65627,11.47635,33.59338998794556
1618935555.67189,9.158085,33.609009981155396
1618935555.68752,6.275139,33.62463998794556
1618935555.70315,3.25317,33.64026999473572
1618935555.71877,0.5324936,33.65588998794556
1618935555.7344,-1.548428,33.67151999473572
1618935555.75002,-2.870983,33.68713998794556
1618935555.76565,-3.555794,33.70276999473572
1618935555.78127,-3.909874,33.71838998794556
1618935555.7969,-4.282589,33.73401999473572
1618935555.81253,-4.969646,33.74965000152588
1618935555.82815,-6.088955,33.76526999473572
1618935555.84378,-7.654724,33.78090000152588
1618935555.8594,-9.593311,33.79651999473572
1618935555.87503,-11.79138,33.81215000152588
1618935555.89065,-14.10126,33.82776999473572
1618935555.90628,-16.29839,33.84340000152588
1618935555.92191,-18.0578,33.85903000831604
1618935555.93753,-18.98411,33.87465000152588
1618935555.95316,-18.72855,33.89028000831604
1618935555.96878,-17.09094,33.90590000152588
1618935555.98441,-14.14353,33.92153000831604
1618935556.00003,-10.22605,33.93715000152588
1618935556.01566,-5.851971,33.95278000831604
1618935556.03129,-1.57719,33.9684100151062
1618935556.04691,2.156494,33.98403000831604
1618935556.06254,5.13401,33.9996600151062
1618935556.07816,7.363644,34.01528000831604
1618935556.09379,8.992443,34.0309100151062
1618935556.10942,10.18445,34.04654002189636
1618935556.12504,11.00471,34.0621600151062
1618935556.14067,11.42173,34.07779002189636
1618935556.15629,11.39755,34.0934100151062
1618935556.17192,10.98698,34.10904002189636
1618935556.18754,10.41541,34.1246600151062
1618935556.20317,9.984058,34.14029002189636
1618935556.2188,9.86792,34.15592002868652
1618935556.23442,10.03786,34.17154002189636
1618935556.25005,10.24167,34.18717002868652
1618935556.26567,10.18038,34.20279002189636
1618935556.2813,9.734299,34.21842002868652
1618935556.29692,9.014416,34.23404002189636
1618935556.31255,8.312141,34.24967002868652
1618935556.32818,7.889698,34.265300035476685
1618935556.3438,7.762215,34.28092002868652
1618935556.35943,7.662582,34.296550035476685
1618935556.37505,7.20647,34.31217002868652
1618935556.39068,6.121498,34.327800035476685
1618935556.4063,4.391159,34.34342002868652
1618935556.42193,2.268097,34.359050035476685
1618935556.43756,0.09289169,34.374680042266846
1618935556.45318,-1.90818,34.390300035476685
1618935556.46881,-3.725067,34.405930042266846
1618935556.48443,-5.552471,34.421550035476685
1618935556.50006,-7.538692,34.437180042266846
1618935556.51568,-9.660995,34.452800035476685
1618935556.53131,-11.61819,34.468430042266846
1618935556.54694,-12.93108,34.48406004905701
1618935556.56256,-13.1419,34.499680042266846
1618935556.57819,-12.03359,34.51531004905701
1618935556.59381,-9.742657,34.530930042266846
1618935556.60944,-6.668056,34.54656004905701
1618935556.62506,-3.268242,34.562180042266846
1618935556.64069,0.1313591,34.57781004905701
1618935556.65632,3.349415,34.59344005584717
1618935556.67194,6.263065,34.60906004905701
1618935556.68757,8.665871,34.62469005584717
1618935556.70319,10.28349,34.64031004905701
1618935556.71882,10.8579,34.65594005584717
1618935556.73444,10.35265,34.67156004905701
1618935556.75007,9.038887,34.68719005584717
1618935556.7657,7.396309,34.70282006263733
1618935556.78132,5.899757,34.71844005584717
1618935556.79695,4.788376,34.73407006263733
1618935556.81257,4.025063,34.74969005584717
1618935556.8282,3.405258,34.76532006263733
1618935556.84382,2.782059,34.78094005584717
1618935556.85945,2.181404,34.79657006263733
1618935556.87508,1.73024,34.81220006942749
1618935556.8907,1.525841,34.82782006263733
1618935556.90633,1.520447,34.84345006942749
1618935556.92195,1.526176,34.85907006263733
1618935556.93758,1.392738,34.87470006942749
1618935556.9532,1.100784,34.89032006263733
1618935556.96883,0.7759857,34.90595006942749
1618935556.98446,0.5296249,34.92158007621765
1618935557.00008,0.3294678,34.93720006942749
1618935557.01571,-0.03194427,34.95283007621765
1618935557.03133,-0.827774,34.96845006942749
1618935557.04696,-2.224792,34.98408007621765
1618935557.06258,-4.16404,34.99970006942749
1618935557.07821,-6.411827,35.01533007621765
1618935557.09384,-8.658157,35.03095984458923
1618935557.10946,-10.68954,35.04658007621765
1618935557.12509,-12.41188,35.06220984458923
1618935557.14071,-13.79967,35.07783007621765
1618935557.15634,-14.83008,35.09345984458923
1618935557.17196,-15.35049,35.10908007621765
1618935557.18759,-15.17592,35.12470984458923
1618935557.20322,-14.12482,35.140339851379395
1618935557.21884,-12.14342,35.15595984458923
1618935557.23447,-9.347527,35.171589851379395
1618935557.25009,-5.995071,35.18720984458923
1618935557.26572,-2.423538,35.202839851379395
1618935557.28134,1.019478,35.21845984458923
1618935557.29697,4.047722,35.234089851379395
1618935557.3126,6.446068,35.249719858169556
1618935557.32822,8.076126,35.265339851379395
1618935557.34385,8.860207,35.280969858169556
1618935557.35947,8.826836,35.296589851379395
1618935557.3751,8.099625,35.312219858169556
1618935557.39072,6.945992,35.327839851379395
1618935557.40635,5.761108,35.343469858169556
1618935557.42198,4.927422,35.35909986495972
1618935557.4376,4.747215,35.374719858169556
1618935557.45323,5.283165,35.39034986495972
1618935557.46885,6.309326,35.405969858169556
1618935557.48448,7.405067,35.42159986495972
1618935557.5001,8.131836,35.437219858169556
1618935557.51573,8.221588,35.45284986495972
1618935557.53136,7.665009,35.46847987174988
1618935557.54698,6.679161,35.48409986495972
1618935557.56261,5.580864,35.49972987174988
1618935557.57823,4.630516,35.51534986495972
1618935557.59386,3.937653,35.53097987174988
1618935557.60948,3.421669,35.54659986495972
1618935557.62511,2.886322,35.56222987174988
1618935557.64074,2.090523,35.57785987854004
1618935557.65636,0.8679581,35.59347987174988
1618935557.67199,-0.823494,35.60910987854004
1618935557.68761,-2.914902,35.62472987174988
1618935557.70324,-5.256737,35.64035987854004
1618935557.71886,-7.714104,35.65597987174988
1618935557.73449,-10.19675,35.67160987854004
1618935557.75012,-12.68189,35.6872398853302
1618935557.76574,-15.14794,35.70285987854004
1618935557.78137,-17.53292,35.7184898853302
1618935557.79699,-19.6479,35.73410987854004
1618935557.81262,-21.20049,35.7497398853302
1618935557.82824,-21.84285,35.76535987854004
1618935557.84387,-21.29005,35.7809898853302
1618935557.8595,-19.40617,35.79661989212036
1618935557.87512,-16.25928,35.8122398853302
1618935557.89075,-12.12581,35.82786989212036
1618935557.90637,-7.428734,35.8434898853302
1618935557.922,-2.677986,35.85911989212036
1618935557.93762,1.613335,35.8747398853302
1618935557.95325,5.04097,35.89036989212036
1618935557.96888,7.372833,35.90599989891052
1618935557.9845,8.617287,35.92161989212036
1618935558.00013,8.978416,35.93724989891052
1618935558.01575,8.808159,35.95286989212036
1618935558.03138,8.461166,35.96849989891052
1618935558.047,8.253082,35.98411989212036
1618935558.06263,8.362663,35.99974989891052
1618935558.07826,8.836586,36.015379905700684
1618935558.09388,9.615128,36.03099989891052
1618935558.10951,10.56185,36.046629905700684
1618935558.12513,11.51466,36.06224989891052
1618935558.14076,12.29914,36.077879905700684
1618935558.15638,12.7646,36.09349989891052
1618935558.17201,12.78626,36.109129905700684
1618935558.18764,12.30062,36.124759912490845
1618935558.20326,11.29818,36.140379905700684
1618935558.21889,9.851601,36.156009912490845
1618935558.23451,8.115341,36.171629905700684
1618935558.25014,6.257042,36.187259912490845
1618935558.26576,4.400955,36.202879905700684
1618935558.28139,2.602356,36.218509912490845
1618935558.29702,0.8149185,36.234139919281006
1618935558.31264,-1.020905,36.249759912490845
1618935558.32827,-2.914688,36.265389919281006
1618935558.34389,-4.846436,36.281009912490845
1618935558.35952,-6.750076,36.296639919281006
1618935558.37514,-8.605003,36.312259912490845
1618935558.39077,-10.43561,36.327889919281006
1618935558.4064,-12.30182,36.34351992607117
1618935558.42202,-14.2026,36.359139919281006
1618935558.43765,-16.05465,36.37476992607117
1618935558.45327,-17.64233,36.390389919281006
1618935558.4689,-18.72934,36.40601992607117
1618935558.48452,-19.12218,36.421639919281006
1618935558.50015,-18.69582,36.43726992607117
1618935558.51578,-17.3701,36.45289993286133
1618935558.5314,-15.11345,36.46851992607117
1618935558.54703,-11.98544,36.48414993286133
1618935558.56265,-8.153641,36.49976992607117
1618935558.57828,-3.974007,36.51539993286133
1618935558.5939,0.08604431,36.53101992607117
1618935558.60953,3.611145,36.54664993286133
1618935558.62516,6.354004,36.56227993965149
1618935558.64078,8.346634,36.57789993286133
1618935558.65641,9.778938,36.59352993965149
1618935558.67203,10.9023,36.60914993286133
1618935558.68766,11.87608,36.62477993965149
1618935558.70329,12.74486,36.64040994644165
1618935558.71891,13.46707,36.65602993965149
1618935558.73454,14.04745,36.67165994644165
1618935558.75016,14.56298,36.68727993965149
1618935558.76579,15.11968,36.70290994644165
1618935558.78141,15.8201,36.71852993965149
1618935558.79704,16.67222,36.73415994644165
1618935558.81267,17.58238,36.74978995323181
1618935558.82829,18.31623,36.76540994644165
1618935558.84392,18.68546,36.78103995323181
1618935558.85954,18.68776,36.79665994644165
1618935558.87517,18.51099,36.81228995323181
1618935558.89079,18.4583,36.82790994644165
1618935558.90642,18.71491,36.84353995323181
1618935558.92205,19.29736,36.85916996002197
1618935558.93767,20.03648,36.87478995323181
1618935558.9533,20.64104,36.89041996002197
1618935558.96892,20.79498,36.90603995323181
1618935558.98455,20.40934,36.92166996002197
1618935559.00017,19.73142,36.93728995323181
1618935559.0158,19.22715,36.95291996002197
1618935559.03143,19.33018,36.968549966812134
1618935559.04705,20.12726,36.98416996002197
1618935559.06268,21.37751,36.999799966812134
1618935559.0783,22.64669,37.01541996002197
1618935559.09393,23.51156,37.031049966812134
1618935559.10955,23.57713,37.04666996002197
1618935559.12518,22.84246,37.062299966812134
1618935559.14081,21.80017,37.077929973602295
1618935559.15643,21.24944,37.093549966812134
1618935559.17206,21.92967,37.109179973602295
1618935559.18768,24.22417,37.124799966812134
1618935559.20331,28.06801,37.140429973602295
1618935559.21893,33.01096,37.156049966812134
1618935559.23456,38.26411,37.171679973602295
1618935559.25019,42.2691,37.187309980392456
1618935559.26581,43.71298,37.202929973602295
1618935559.28144,42.17622,37.218559980392456
1618935559.29706,38.27011,37.234179973602295
1618935559.31269,33.06849,37.249809980392456
1618935559.32831,27.5435,37.265429973602295
1618935559.34394,22.32045,37.281059980392456
1618935559.35957,17.67743,37.29668998718262
1618935559.37519,13.53108,37.312309980392456
1618935559.39082,8.192429,37.32793998718262
1618935559.40644,0.2746124,37.343559980392456
1618935559.42207,-10.18217,37.35918998718262
1618935559.43769,-21.6275,37.374809980392456
1618935559.45332,-32.1989,37.39043998718262
1618935559.46895,-40.71503,37.40606999397278
1618935559.48457,-46.79564,37.42168998718262
1618935559.5002,-50.65172,37.43731999397278
1618935559.51582,-52.8862,37.45293998718262
1618935559.53145,-56.49677,37.46856999397278
1618935559.54707,-63.86536,37.48418998718262
1618935559.5627,-75.00848,37.49981999397278
1618935559.57833,-87.45509,37.51545000076294
1618935559.59395,-98.19485,37.53106999397278
1618935559.60958,-105.3684,37.54670000076294
1618935559.6252,-108.5708,37.56231999397278
1618935559.64083,-108.4232,37.57795000076294
1618935559.65645,-106.1539,37.59356999397278
1618935559.67208,-106.1002,37.60920000076294
1618935559.68771,-111.8042,37.6248300075531
1618935559.70333,-124.0195,37.64045000076294
1618935559.71896,-140.7758,37.6560800075531
1618935559.73458,-159.7111,37.67170000076294
1618935559.75021,-179.6051,37.6873300075531
1618935559.76583,-200.0438,37.70295000076294
1618935559.78146,-220.4854,37.7185800075531
1618935559.79709,-221.965,37.73421001434326
1618935559.81271,-192.8216,37.7498300075531
1618935559.82834,-136.3727,37.76546001434326
1618935559.84396,-69.17798,37.7810800075531
1618935559.85959,-7.014587,37.79671001434326
1618935559.87521,43.13596,37.8123300075531
1618935559.89084,81.19502,37.82796001434326
1618935559.90647,109.7284,37.84359002113342
1618935559.92209,131.3658,37.85921001434326
1618935559.93772,147.5588,37.87484002113342
1618935559.95334,155.2295,37.89046001434326
1618935559.96897,152.1467,37.90609002113342
1618935559.98459,139.8036,37.92171001434326
1618935560.00022,122.8083,37.93734002113342
1618935560.01585,105.9582,37.952970027923584
1618935560.03147,91.71267,37.96859002113342
1618935560.0471,80.59793,37.984220027923584
1618935560.06272,72.55807,37.99984002113342
1618935560.07835,67.64844,38.015470027923584
1618935560.09397,62.83012,38.03109002113342
1618935560.1096,56.14441,38.046720027923584
1618935560.12523,48.2789,38.062350034713745
1618935560.14085,41.6899,38.077970027923584
1618935560.15648,37.83153,38.093600034713745
1618935560.1721,36.02473,38.109220027923584
1618935560.18773,34.33429,38.124850034713745
1618935560.20335,32.17564,38.140470027923584
1618935560.21898,28.1152,38.156100034713745
1618935560.23461,17.33309,38.171730041503906
1618935560.25023,-4.258415,38.187350034713745
1618935560.26586,-37.40613,38.202980041503906
1618935560.28148,-78.987,38.218600034713745
1618935560.29711,-123.5407,38.234230041503906
1618935560.31273,-164.5528,38.249850034713745
1618935560.32836,-195.3982,38.265480041503906
1618935560.34399,-211.0451,38.28111004829407
1618935560.35961,-198.0385,38.296730041503906
1618935560.37524,-155.9604,38.31236004829407
1618935560.39086,-99.56849,38.327980041503906
1618935560.40649,-48.54016,38.34361004829407
1618935560.42211,-13.9892,38.359230041503906
1618935560.43774,4.212111,38.37486004829407
1618935560.45337,12.16282,38.39049005508423
1618935560.46899,16.43653,38.40611004829407
1618935560.48462,21.04906,38.42174005508423
1618935560.50024,26.92434,38.43736004829407
1618935560.51587,31.70014,38.45299005508423
1618935560.53149,33.99235,38.46861004829407
1618935560.54712,35.41653,38.48424005508423
1618935560.56275,39.25749,38.49987006187439
1618935560.57837,47.59393,38.51549005508423
1618935560.594,59.97705,38.53112006187439
1618935560.60962,74.10603,38.54674005508423
1618935560.62525,87.50908,38.56237006187439
1618935560.64087,95.28805,38.57799005508423
1618935560.6565,94.0611,38.59362006187439
1618935560.67213,83.42117,38.60925006866455
1618935560.68775,66.10263,38.62487006187439
1618935560.70338,46.38293,38.64050006866455
1618935560.719,27.78472,38.65612006187439
1618935560.73463,12.25353,38.67175006866455
1618935560.75025,0.4279213,38.68737006187439
1618935560.76588,-7.726875,38.70300006866455
1618935560.78151,-12.70403,38.71863007545471
1618935560.79713,-15.68105,38.73425006866455
1618935560.81276,-17.71516,38.74988007545471
1618935560.82838,-19.076,38.76550006866455
1618935560.84401,-19.48492,38.78113007545471
1618935560.85963,-18.78412,38.79675006866455
1618935560.87526,-17.14765,38.81238007545471
1618935560.89089,-14.88611,38.828009843826294
1618935560.90651,-12.19695,38.84363007545471
1618935560.92214,-9.271599,38.859259843826294
1618935560.93776,-6.342796,38.87488007545471
1618935560.95339,-3.581482,38.890509843826294
1618935560.96902,-0.872818,38.906139850616455
1618935560.98464,2.018311,38.921759843826294
1618935561.00027,5.135078,38.937389850616455
1618935561.01589,8.291954,38.953009843826294
1618935561.03152,11.19288,38.968639850616455
1618935561.04714,13.53049,38.984259843826294
1618935561.06277,14.93774,38.999889850616455
1618935561.0784,15.12611,39.015519857406616
1618935561.09402,13.88519,39.031139850616455
1618935561.10965,11.33099,39.046769857406616
1618935561.12527,7.942215,39.062389850616455
1618935561.1409,4.446503,39.078019857406616
1618935561.15652,1.578796,39.093639850616455
1618935561.17215,-0.1092529,39.109269857406616
1618935561.18778,-0.3895569,39.12489986419678
1618935561.2034,0.593277,39.140519857406616
1618935561.21903,2.573975,39.15614986419678
1618935561.23465,5.207184,39.171769857406616
1618935561.25028,8.19696,39.18739986419678
1618935561.2659,11.35162,39.203019857406616
1618935561.28153,14.54529,39.21864986419678
1618935561.29716,17.60257,39.23427987098694
1618935561.31278,20.25935,39.24989986419678
1618935561.32841,22.19806,39.26552987098694
1618935561.34403,23.14453,39.28114986419678
1618935561.35966,23.02354,39.29677987098694
1618935561.37528,21.95027,39.31239986419678
1618935561.39091,20.25046,39.32802987098694
1618935561.40654,18.29942,39.3436598777771
1618935561.42216,16.43044,39.35927987098694
1618935561.43779,14.86229,39.3749098777771
1618935561.45341,13.70543,39.39052987098694
1618935561.46904,12.97079,39.4061598777771
1618935561.48466,12.59824,39.42177987098694
1618935561.50029,12.45766,39.4374098777771
1618935561.51592,12.37758,39.45303988456726
1618935561.53154,12.15707,39.4686598777771
1618935561.54717,11.61983,39.48428988456726
1618935561.56279,10.69101,39.4999098777771
1618935561.57842,9.421356,39.51553988456726
1618935561.59404,7.990707,39.5311598777771
1618935561.60967,6.615189,39.54678988456726
1618935561.6253,5.478775,39.56241989135742
1618935561.64092,4.600281,39.57803988456726
1618935561.65655,3.824722,39.59366989135742
1618935561.67217,2.860809,39.60928988456726
1618935561.6878,1.350006,39.62491989135742
1618935561.70342,-0.9620972,39.64053988456726
1618935561.71905,-4.153717,39.65616989135742
1618935561.73468,-8.037628,39.67179989814758
1618935561.7503,-12.18915,39.68741989135742
1618935561.76593,-15.99112,39.70304989814758
1618935561.78155,-18.80309,39.71866989135742
1618935561.79718,-20.15703,39.73429989814758
1618935561.8128,-19.85963,39.74991989135742
1618935561.82843,-18.05746,39.76554989814758
1618935561.84406,-15.10236,39.781179904937744
1618935561.85968,-11.44476,39.79679989814758
1618935561.87531,-7.477463,39.812429904937744
1618935561.89093,-3.455948,39.82804989814758
1618935561.90656,0.437912,39.843679904937744
1618935561.92218,4.016144,39.85929989814758
1618935561.93781,7.075134,39.874929904937744
1618935561.95344,9.395966,39.890559911727905
1618935561.96906,10.849,39.906179904937744
1618935561.98469,11.48181,39.921809911727905
1618935562.00031,11.48831,39.937429904937744
1618935562.01594,11.14667,39.953059911727905
1618935562.03156,10.69287,39.968679904937744
1618935562.04719,10.25485,39.984309911727905
1618935562.06282,9.912201,39.999939918518066
1618935562.07844,9.686005,40.015559911727905
1618935562.09407,9.609558,40.031189918518066
1618935562.10969,9.666748,40.046809911727905
1618935562.12532,9.716431,40.062439918518066
1618935562.14094,9.489075,40.078059911727905
1618935562.15657,8.68985,40.093689918518066
1618935562.1722,7.15567,40.10931992530823
1618935562.18782,4.947601,40.124939918518066
1618935562.20345,2.393219,40.14056992530823
1618935562.21907,-0.08383179,40.156189918518066
1618935562.2347,-2.154144,40.17181992530823
1618935562.25032,-3.716553,40.187439918518066
1618935562.26595,-4.917755,40.20306992530823
1618935562.28158,-6.061279,40.21869993209839
1618935562.2972,-7.463379,40.23431992530823
1618935562.31283,-9.316803,40.24994993209839
1618935562.32845,-11.63913,40.26556992530823
1618935562.34408,-14.24133,40.28119993209839
1618935562.3597,-16.74936,40.29681992530823
1618935562.37533,-18.68561,40.31244993209839
1618935562.39096,-19.57611,40.32807993888855
1618935562.40658,-19.0744,40.34369993209839
1618935562.42221,-17.10394,40.35932993888855
1618935562.43783,-13.84952,40.37494993209839
1618935562.45346,-9.721436,40.39057993888855
1618935562.46908,-5.163208,40.40619993209839
1618935562.48471,-0.5369873,40.42182993888855
1618935562.50034,3.972046,40.43745994567871
1618935562.51596,8.288635,40.45307993888855
1618935562.53159,12.34702,40.46870994567871
1618935562.54721,15.99982,40.48432993888855
1618935562.56284,18.99704,40.49995994567871
1618935562.57846,21.07291,40.51557993888855
1618935562.59409,22.02682,40.53120994567871
1618935562.60972,21.85138,40.54683995246887
1618935562.62534,20.73343,40.56245994567871
1618935562.64097,19.02713,40.57808995246887
1618935562.65659,17.19803,40.59370994567871
1618935562.67222,15.73477,40.60933995246887
1618935562.68784,14.98392,40.62495994567871
1618935562.70347,15.07825,40.64058995246887
1618935562.7191,15.86713,40.65621995925903
1618935562.73472,16.93796,40.67183995246887
1618935562.75035,17.82172,40.68746995925903
1618935562.76597,18.12955,40.70308995246887
1618935562.7816,17.69653,40.71871995925903
1618935562.79722,16.53952,40.73433995246887
1618935562.81285,14.76202,40.74996995925903
1618935562.82848,12.43414,40.765599966049194
1618935562.8441,9.567078,40.78121995925903
1618935562.85973,6.211853,40.796849966049194
1618935562.87535,2.541351,40.81246995925903
1618935562.89098,-1.135925,40.828099966049194
1618935562.9066,-4.504181,40.84371995925903
1618935562.92223,-7.437256,40.859349966049194
1618935562.93786,-10.0864,40.874979972839355
1618935562.95348,-12.79376,40.890599966049194
1618935562.96911,-15.86661,40.906229972839355
1618935562.98473,-19.32135,40.921849966049194
1618935563.00036,-22.74994,40.937479972839355
1618935563.01598,-25.49216,40.953099966049194
1618935563.03161,-26.86172,40.968729972839355
1618935563.04724,-26.46054,40.98435997962952
1618935563.06286,-24.27057,40.999979972839355
1618935563.07849,-20.62122,41.01560997962952
1618935563.09411,-15.96185,41.031229972839355
1618935563.10974,-10.73373,41.04685997962952
1618935563.12537,-5.304565,41.06248998641968
1618935563.14099,0.01629639,41.07810997962952
1618935563.15662,4.902252,41.09373998641968
1618935563.17224,9.070526,41.10935997962952
1618935563.18787,12.30084,41.12498998641968
1618935563.20349,14.56747,41.14060997962952
1618935563.21912,16.03149,41.15623998641968
1618935563.23475,16.98666,41.17186999320984
1618935563.25037,17.66974,41.18748998641968
1618935563.266,18.19427,41.20311999320984
1618935563.28162,18.49759,41.21873998641968
1618935563.29725,18.43433,41.23436999320984
1618935563.31287,17.94165,41.24998998641968
1618935563.3285,17.09756,41.26561999320984
1618935563.34413,16.10602,41.28125
1618935563.35975,15.16687,41.29686999320984
1618935563.37538,14.34506,41.3125
1618935563.391,13.54733,41.32811999320984
1618935563.40663,12.58289,41.34375
1618935563.42225,11.29034,41.35936999320984
1618935563.43788,9.619171,41.375
1618935563.45351,7.665192,41.39063000679016
1618935563.46913,5.564301,41.40625
1618935563.48476,3.414032,41.42188000679016
1618935563.50038,1.223999,41.4375
1618935563.51601,-1.033875,41.45313000679016
1618935563.53163,-3.377777,41.46875
1618935563.54726,-5.77182,41.48438000679016
1618935563.56289,-8.190247,41.50001001358032
1618935563.57851,-10.70178,41.51563000679016
1618935563.59414,-13.48239,41.53126001358032
1618935563.60976,-16.73099,41.54688000679016
1618935563.62539,-20.5134,41.56251001358032
1618935563.64101,-24.60544,41.57813000679016
1618935563.65664,-28.4502,41.59376001358032
1618935563.67227,-31.34155,41.60939002037048
1618935563.68789,-32.62015,41.62501001358032
1618935563.70352,-31.95639,41.64064002037048
1618935563.71914,-29.43869,41.65626001358032
1618935563.73477,-25.45111,41.67189002037048
1618935563.75039,-20.52283,41.68751001358032
1618935563.76602,-15.11536,41.70314002037048
1618935563.78165,-9.533661,41.718770027160645
1618935563.79727,-3.979706,41.73439002037048
1618935563.8129,1.360748,41.750020027160645
1618935563.82852,6.259399,41.76564002037048
1618935563.84415,10.48471,41.781270027160645
1618935563.85977,13.89148,41.79689002037048
1618935563.8754,16.46924,41.812520027160645
1618935563.89103,18.35764,41.828150033950806
1618935563.90665,19.78662,41.843770027160645
1618935563.92228,20.92197,41.859400033950806
1618935563.9379,21.80618,41.875020027160645
1618935563.95353,22.37366,41.890650033950806
1618935563.96915,22.52972,41.906270027160645
1618935563.98478,22.31454,41.921900033950806
1618935564.00041,21.93076,41.93753004074097
1618935564.01603,21.67273,41.953150033950806
1618935564.03166,21.75452,41.96878004074097
1618935564.04728,22.14142,41.984400033950806
1618935564.06291,22.54977,42.00003004074097
1618935564.07853,22.55399,42.015650033950806
1618935564.09416,21.81931,42.03128004074097
1618935564.10979,20.24374,42.04691004753113
1618935564.12541,18.02115,42.06253004074097
1618935564.14104,15.55023,42.07816004753113
1618935564.15666,13.20752,42.09378004074097
1618935564.17229,11.19751,42.10941004753113
1618935564.18791,9.487854,42.12503004074097
1618935564.20354,7.84726,42.14066004753113
1618935564.21917,5.989319,42.15629005432129
1618935564.23479,3.731781,42.17191004753113
1618935564.25042,1.039825,42.18754005432129
1618935564.26604,-2.009644,42.20316004753113
1618935564.28167,-5.303619,42.21879005432129
1618935564.29729,-8.790222,42.23441004753113
1618935564.31292,-12.43161,42.25004005432129
1618935564.32855,-16.12173,42.26567006111145
1618935564.34417,-19.54068,42.28129005432129
1618935564.3598,-22.13617,42.29692006111145
1618935564.37542,-23.28421,42.31254005432129
1618935564.39105,-22.48132,42.32817006111145
1618935564.40667,-19.60641,42.34379005432129
1618935564.4223,-14.99625,42.35942006111145
1618935564.43793,-9.299835,42.37505006790161
1618935564.45355,-3.184845,42.39067006111145
1618935564.46918,2.912659,42.40630006790161
1618935564.4848,8.879028,42.42192006111145
1618935564.50043,14.76859,42.43755006790161
1618935564.51605,20.62604,42.45317006111145
1618935564.53168,26.32385,42.46880006790161
1618935564.54731,31.60422,42.48443007469177
1618935564.56293,36.20041,42.50005006790161
1618935564.57856,39.9538,42.51568007469177
1618935564.59418,42.90808,42.53130006790161
1618935564.60981,45.27686,42.54693007469177
1618935564.62543,47.3418,42.56255006790161
1618935564.64106,49.37247,42.57818007469177
1618935564.65669,51.54166,42.593809843063354
1618935564.67231,53.90308,42.60943007469177
1618935564.68794,56.52689,42.625059843063354
1618935564.70356,59.43671,42.64068007469177
1618935564.71919,62.59607,42.656309843063354
1618935564.73481,65.86899,42.67193007469177
1618935564.75044,69.12079,42.687559843063354
1618935564.76607,72.27643,42.703189849853516
1618935564.78169,75.35263,42.718809843063354
1618935564.79732,78.42606,42.734439849853516
1618935564.81294,81.59491,42.750059843063354
1618935564.82857,85.01135,42.765689849853516
1618935564.84419,88.74615,42.781309843063354
1618935564.85982,92.6806,42.796939849853516
1618935564.87545,96.55984,42.81256985664368
1618935564.89107,100.2044,42.828189849853516
1618935564.9067,103.6216,42.84381985664368
1618935564.92232,106.8852,42.859439849853516
1618935564.93795,110.105,42.87506985664368
1618935564.95357,113.2878,42.890689849853516
1618935564.9692,116.6641,42.90631985664368
1618935564.98483,120.4031,42.92194986343384
1618935565.00045,124.3146,42.93756985664368
1618935565.01608,127.7874,42.95319986343384
1618935565.0317,129.8478,42.96881985664368
1618935565.04733,129.3134,42.98444986343384
1618935565.06295,124.8425,43.00006985664368
1618935565.07858,115.4343,43.01569986343384
1618935565.09421,100.6252,43.031329870224
1618935565.10983,81.70755,43.04694986343384
1618935565.12546,61.18921,43.062579870224
1618935565.14108,41.63074,43.07819986343384
1618935565.15671,24.42987,43.093829870224
1618935565.17233,9.279526,43.10944986343384
1618935565.18796,-5.588593,43.125079870224
1618935565.20359,-22.64935,43.14070987701416
1618935565.21921,-43.79739,43.156329870224
1618935565.23484,-70.27113,43.17195987701416
1618935565.25046,-100.646,43.187579870224
1618935565.26609,-131.6856,43.20320987701416
1618935565.28171,-159.9312,43.218829870224
1618935565.29734,-183.1525,43.23445987701416
1618935565.31297,-200.8827,43.25008988380432
1618935565.32859,-211.3295,43.26570987701416
1618935565.34422,-211.4472,43.28133988380432
1618935565.35984,-200.4988,43.29695987701416
1618935565.37547,-183.5182,43.31258988380432
1618935565.39109,-165.8387,43.32820987701416
1618935565.40672,-149.8628,43.34383988380432
1618935565.42235,-135.2444,43.35946989059448
1618935565.43797,-120.715,43.37508988380432
1618935565.4536,-105.7602,43.39071989059448
1618935565.46922,-91.31001,43.40633988380432
1618935565.48485,-79.69827,43.42196989059448
1618935565.50047,-72.55275,43.43758988380432
1618935565.5161,-73.55499,43.45321989059448
1618935565.53173,-84.62013,43.468849897384644
1618935565.54735,-105.3788,43.48446989059448
1618935565.56298,-133.2237,43.500099897384644
1618935565.5786,-164.009,43.51571989059448
1618935565.59423,-192.8027,43.531349897384644
1618935565.60985,-215.4561,43.54696989059448
1618935565.62548,-229.6365,43.562599897384644
1618935565.64111,-222.1005,43.578229904174805
1618935565.65673,-190.4416,43.593849897384644
1618935565.67236,-142.8164,43.609479904174805
1618935565.68798,-93.74258,43.625099897384644
1618935565.70361,-54.834,43.640729904174805
1618935565.71923,-29.94184,43.656349897384644
1618935565.73486,-12.67167,43.671979904174805
1618935565.75049,2.735809,43.687609910964966
1618935565.76611,19.34424,43.703229904174805
1618935565.78174,37.49873,43.718859910964966
1618935565.79736,51.98048,43.734479904174805
1618935565.81299,58.8493,43.750109910964966
1618935565.82862,57.20119,43.76573991775513
1618935565.84424,49.49069,43.781359910964966
1618935565.85987,39.92283,43.79698991775513
1618935565.87549,32.41155,43.812609910964966
1618935565.89112,28.70869,43.82823991775513
1618935565.90674,28.96317,43.843859910964966
1618935565.92237,31.91595,43.85948991775513
1618935565.938,34.126,43.87511992454529
1618935565.95362,33.58698,43.89073991775513
1618935565.96925,30.44803,43.90636992454529
1618935565.98487,26.69494,43.92198991775513
1618935566.0005,24.55635,43.93761992454529
1618935566.01612,25.21914,43.95323991775513
1618935566.03175,28.01446,43.96886992454529
1618935566.04738,31.60685,43.98449993133545
1618935566.063,34.72427,44.00011992454529
1618935566.07863,35.6009,44.01574993133545
1618935566.09425,33.91516,44.03136992454529
1618935566.10988,30.83652,44.04699993133545
1618935566.1255,28.35325,44.06261992454529
1618935566.14113,28.07677,44.07824993133545
1618935566.15676,30.42744,44.09387993812561
1618935566.17238,34.31261,44.10949993133545
1618935566.18801,38.15476,44.12512993812561
1618935566.20363,40.56163,44.14074993133545
1618935566.21926,40.31827,44.15637993812561
1618935566.23488,37.35296,44.17199993133545
1618935566.25051,32.65456,44.18762993812561
1618935566.26614,27.70829,44.20325994491577
1618935566.28176,23.70547,44.21887993812561
1618935566.29739,21.05331,44.23450994491577
1618935566.31301,19.26068,44.25012993812561
1618935566.32864,17.61649,44.26575994491577
1618935566.34426,15.59512,44.28137993812561
1618935566.35989,12.93002,44.29700994491577
1618935566.37552,9.844299,44.31263995170593
1618935566.39114,6.810883,44.32825994491577
1618935566.40677,4.254028,44.34388995170593
1618935566.42239,2.295059,44.35950994491577
1618935566.43802,0.7583771,44.37513995170593
1618935566.45364,-0.7545166,44.39075994491577
1618935566.46927,-2.54274,44.40638995170593
1618935566.4849,-4.749878,44.422019958496094
1618935566.50052,-7.356949,44.43763995170593
1618935566.51615,-10.28201,44.453269958496094
1618935566.53177,-13.40567,44.46888995170593
1618935566.5474,-16.56027,44.484519958496094
1618935566.56302,-19.48108,44.50013995170593
1618935566.57865,-21.73206,44.515769958496094
1618935566.59428,-22.83258,44.531399965286255
1618935566.6099,-22.33359,44.547019958496094
1618935566.62553,-20.09,44.562649965286255
1618935566.64115,-16.27162,44.578269958496094
1618935566.65678,-11.34447,44.593899965286255
1618935566.6724,-5.908463,44.609519958496094
1618935566.68803,-0.5137177,44.625149965286255
1618935566.70366,4.460159,44.640779972076416
1618935566.71928,8.789795,44.656399965286255
1618935566.73491,12.30894,44.672029972076416
1618935566.75053,14.8924,44.687649965286255
1618935566.76616,16.41405,44.703279972076416
1618935566.78178,16.882,44.718899965286255
1618935566.79741,16.49048,44.734529972076416
1618935566.81304,15.62343,44.75015997886658
1618935566.82866,14.7558,44.765779972076416
1618935566.84429,14.28543,44.78140997886658
1618935566.85991,14.35765,44.797029972076416
1618935566.87554,14.83961,44.81265997886658
1618935566.89116,15.42218,44.828279972076416
1618935566.90679,15.72516,44.84390997886658
1618935566.92242,15.49631,44.85953998565674
1618935566.93804,14.68816,44.87515997886658
1618935566.95367,13.43053,44.89078998565674
1618935566.96929,12.00266,44.90640997886658
1618935566.98492,10.6792,44.92203998565674
1618935567.00054,9.653152,44.93765997886658
1618935567.01617,8.957825,44.95328998565674
1618935567.0318,8.488129,44.9689199924469
1618935567.04742,8.06514,44.98453998565674
1618935567.06305,7.48436,45.0001699924469
1618935567.07867,6.604385,45.01578998565674
1618935567.0943,5.357986,45.0314199924469
1618935567.10992,3.76239,45.04703998565674
1618935567.12555,1.866196,45.0626699924469
1618935567.14118,-0.2201691,45.07829999923706
1618935567.1568,-2.39679,45.0939199924469
1618935567.17243,-4.559891,45.10954999923706
1618935567.18805,-6.663391,45.1251699924469
1618935567.20368,-8.705704,45.14079999923706
1618935567.2193,-10.71741,45.1564199924469
1618935567.23493,-12.73447,45.17204999923706
1618935567.25056,-14.71394,45.18768000602722
1618935567.26618,-16.48999,45.20329999923706
1618935567.28181,-17.78201,45.21893000602722
