timestamp,value,norm_ts
1617991730.24667,38.41351,0.6525099277496338
1617991730.26229,44.37372,0.6681299209594727
1617991730.27792,48.96991,0.6837599277496338
1617991730.29354,50.75732,0.6993799209594727
1617991730.30917,49.70679,0.7150099277496338
1617991730.3248,47.03351,0.7306399345397949
1617991730.34042,44.53058,0.7462599277496338
1617991730.35605,43.56622,0.7618899345397949
1617991730.37167,44.36493,0.7775099277496338
1617991730.3873,45.87811,0.7931399345397949
1617991730.40293,46.17017,0.808769941329956
1617991730.41855,43.33856,0.8243899345397949
1617991730.43418,36.25665,0.840019941329956
1617991730.4498,25.20502,0.8556399345397949
1617991730.46543,11.80298,0.871269941329956
1617991730.48105,-1.338684,0.8868899345397949
1617991730.49668,-11.38318,0.902519941329956
1617991730.51231,-15.9325,0.9181499481201172
1617991730.52793,-13.73767,0.933769941329956
1617991730.54356,-5.01239,0.9493999481201172
1617991730.55918,8.549255,0.965019941329956
1617991730.57481,24.03998,0.9806499481201172
1617991730.59043,38.0437,0.996269941329956
1617991730.60606,47.37726,1.0118999481201172
1617991730.62169,49.83282,1.0275299549102783
1617991730.63731,44.7627,1.0431499481201172
1617991730.65294,33.02673,1.0587799549102783
1617991730.66856,16.51697,1.0743999481201172
1617991730.68419,-2.572205,1.0900299549102783
1617991730.69981,-22.46533,1.1056499481201172
1617991730.71544,-42.11554,1.1212799549102783
1617991730.73107,-61.05444,1.1369099617004395
1617991730.74669,-78.95923,1.1525299549102783
1617991730.76232,-95.2619,1.1681599617004395
1617991730.77794,-108.9778,1.1837799549102783
1617991730.79357,-119.1683,1.1994099617004395
1617991730.80919,-125.3566,1.2150299549102783
1617991730.82482,-127.8549,1.2306599617004395
1617991730.84045,-127.6169,1.2462899684906006
1617991730.85607,-125.7851,1.2619099617004395
1617991730.8717,-123.1044,1.2775399684906006
1617991730.88732,-119.7025,1.2931599617004395
1617991730.90295,-115.1769,1.3087899684906006
1617991730.91857,-108.983,1.3244099617004395
1617991730.9342,-100.9625,1.3400399684906006
1617991730.94983,-91.51141,1.3556699752807617
1617991730.96545,-81.47632,1.3712899684906006
1617991730.98108,-71.79889,1.3869199752807617
1617991730.9967,-63.1994,1.4025399684906006
1617991731.01233,-55.90558,1.4181699752807617
1617991731.02795,-49.74426,1.4337899684906006
1617991731.04358,-44.36029,1.4494199752807617
1617991731.05921,-39.36426,1.4650499820709229
1617991731.07483,-34.54718,1.4806699752807617
1617991731.09046,-29.84869,1.4962999820709229
1617991731.10608,-25.15076,1.5119199752807617
1617991731.12171,-20.24731,1.5275499820709229
1617991731.13733,-14.92212,1.5431699752807617
1617991731.15296,-9.045166,1.5587999820709229
1617991731.16859,-2.870789,1.574429988861084
1617991731.18421,2.879211,1.5900499820709229
1617991731.19984,7.182983,1.605679988861084
1617991731.21546,8.968689,1.6212999820709229
1617991731.23109,7.467102,1.636929988861084
1617991731.24671,2.386047,1.6525499820709229
1617991731.26234,-6.149109,1.668179988861084
1617991731.27797,-17.79675,1.6838099956512451
1617991731.29359,-32.16522,1.699429988861084
1617991731.30922,-48.79443,1.7150599956512451
1617991731.32484,-66.87634,1.730679988861084
1617991731.34047,-85.05737,1.7463099956512451
1617991731.35609,-101.305,1.761929988861084
1617991731.37172,-113.1106,1.7775599956512451
1617991731.38735,-118.0436,1.7931900024414062
1617991731.40297,-114.3141,1.8088099956512451
1617991731.4186,-101.1925,1.8244400024414062
1617991731.43422,-79.29663,1.8400599956512451
1617991731.44985,-50.50732,1.8556900024414062
1617991731.46547,-17.73547,1.8713099956512451
1617991731.4811,15.70044,1.8869400024414062
1617991731.49673,46.81158,1.9025700092315674
1617991731.51235,73.62695,1.9181900024414062
1617991731.52798,95.41162,1.9338200092315674
1617991731.5436,112.2353,1.9494400024414062
1617991731.55923,124.1157,1.9650700092315674
1617991731.57485,130.1917,1.9806900024414062
1617991731.59048,128.5917,1.9963200092315674
1617991731.60611,117.2861,2.0119500160217285
1617991731.62173,95.70447,2.0275700092315674
1617991731.63736,65.91376,2.0432000160217285
1617991731.65298,32.8067,2.0588200092315674
1617991731.66861,2.838196,2.0744500160217285
1617991731.68423,-18.32611,2.0900700092315674
1617991731.69986,-27.84857,2.1057000160217285
1617991731.71549,-26.47864,2.1213300228118896
1617991731.73111,-17.64923,2.1369500160217285
1617991731.74674,-5.57605,2.1525800228118896
1617991731.76236,6.598816,2.1682000160217285
1617991731.77799,17.55615,2.1838300228118896
1617991731.79361,27.20673,2.1994500160217285
1617991731.80924,35.65137,2.2150800228118896
1617991731.82487,42.37396,2.230710029602051
1617991731.84049,46.34644,2.2463300228118896
1617991731.85612,46.78537,2.261960029602051
1617991731.87174,44.18579,2.2775800228118896
1617991731.88737,40.46759,2.293210029602051
1617991731.90299,38.41354,2.3088300228118896
1617991731.91862,40.44437,2.324460029602051
1617991731.93425,47.50739,2.340090036392212
1617991731.94987,58.97253,2.355710029602051
1617991731.9655,73.03757,2.371340036392212
1617991731.98112,87.70419,2.386960029602051
1617991731.99675,101.7471,2.402590036392212
1617991732.01237,115.2642,2.418210029602051
1617991732.028,129.3281,2.433840036392212
1617991732.04363,145.3192,2.449469804763794
1617991732.05925,163.6909,2.465090036392212
1617991732.07488,183.0004,2.480719804763794
1617991732.0905,200.0369,2.496340036392212
1617991732.10613,210.5973,2.511969804763794
1617991732.12175,211.0041,2.527590036392212
1617991732.13738,199.4058,2.543219804763794
1617991732.15301,176.2689,2.558849811553955
1617991732.16863,144.0719,2.574469804763794
1617991732.18426,106.5071,2.590099811553955
1617991732.19988,67.86008,2.605719804763794
1617991732.21551,32.46844,2.621349811553955
1617991732.23113,4.358032,2.636969804763794
1617991732.24676,-13.71399,2.652599811553955
1617991732.26239,-21.67371,2.668229818344116
1617991732.27801,-23.03656,2.683849811553955
1617991732.29364,-24.84689,2.699479818344116
1617991732.30926,-35.47482,2.715099811553955
1617991732.32489,-61.28247,2.730729818344116
1617991732.34051,-103.2654,2.746349811553955
1617991732.35614,-156.05,2.761979818344116
1617991732.37177,-209.4325,2.7776098251342773
1617991732.38739,-252.3226,2.793229818344116
1617991732.40302,-276.7467,2.8088598251342773
1617991732.41864,-280.2785,2.824479818344116
1617991732.43427,-266.0066,2.8401098251342773
1617991732.44989,-240.1801,2.855729818344116
1617991732.46552,-209.3233,2.8713598251342773
1617991732.48115,-178.1442,2.8869898319244385
1617991732.49677,-148.9971,2.9026098251342773
1617991732.5124,-122.438,2.9182398319244385
1617991732.52802,-98.7428,2.9338598251342773
1617991732.54365,-78.44037,2.9494898319244385
1617991732.55927,-62.30481,2.9651098251342773
1617991732.5749,-50.79999,2.9807398319244385
1617991732.59053,-43.32629,2.9963698387145996
1617991732.60615,-38.0975,3.0119898319244385
1617991732.62178,-32.82785,3.0276198387145996
1617991732.6374,-25.84305,3.0432398319244385
1617991732.65303,-16.90616,3.0588698387145996
1617991732.66865,-7.544159,3.0744898319244385
1617991732.68428,-0.2844849,3.0901198387145996
1617991732.69991,2.559662,3.1057498455047607
1617991732.71553,0.09042358,3.1213698387145996
1617991732.73116,-6.664032,3.1369998455047607
1617991732.74678,-15.02673,3.1526198387145996
1617991732.76241,-21.73297,3.1682498455047607
1617991732.77803,-24.25479,3.1838698387145996
1617991732.79366,-21.5791,3.1994998455047607
1617991732.80929,-14.51544,3.215129852294922
1617991732.82491,-5.197327,3.2307498455047607
1617991732.84054,3.810791,3.246379852294922
1617991732.85616,10.54666,3.2619998455047607
1617991732.87179,14.16791,3.277629852294922
1617991732.88741,15.04642,3.2932498455047607
1617991732.90304,14.40009,3.308879852294922
1617991732.91867,13.62683,3.324509859085083
1617991732.93429,13.76495,3.340129852294922
1617991732.94992,15.32687,3.355759859085083
1617991732.96554,18.349,3.371379852294922
1617991732.98117,22.52744,3.387009859085083
1617991732.99679,27.27121,3.402629852294922
1617991733.01242,31.61981,3.418259859085083
1617991733.02805,34.186,3.433889865875244
1617991733.04367,33.45761,3.449509859085083
1617991733.0593,28.31961,3.465139865875244
1617991733.07492,18.49026,3.480759859085083
1617991733.09055,4.935913,3.496389865875244
1617991733.10618,-10.34116,3.5120198726654053
1617991733.1218,-24.96054,3.527639865875244
1617991733.13743,-36.94717,3.5432698726654053
1617991733.15305,-45.0889,3.558889865875244
1617991733.16868,-48.95233,3.5745198726654053
1617991733.1843,-48.37766,3.590139865875244
1617991733.19993,-43.1579,3.6057698726654053
1617991733.21556,-32.98145,3.6213998794555664
1617991733.23118,-17.70532,3.6370198726654053
1617991733.24681,2.151306,3.6526498794555664
1617991733.26243,25.11011,3.6682698726654053
1617991733.27806,48.75171,3.6838998794555664
1617991733.29368,70.27994,3.6995198726654053
1617991733.30931,87.07291,3.7151498794555664
1617991733.32494,97.43118,3.7307798862457275
1617991733.34056,100.8592,3.7463998794555664
1617991733.35619,98.14551,3.7620298862457275
1617991733.37181,91.15201,3.7776498794555664
1617991733.38744,82.19312,3.7932798862457275
1617991733.40306,73.39487,3.8088998794555664
1617991733.41869,66.17868,3.8245298862457275
1617991733.43432,61.10684,3.8401598930358887
1617991733.44994,58.09396,3.8557798862457275
1617991733.46557,56.9722,3.8714098930358887
1617991733.48119,58.05177,3.8870298862457275
1617991733.49682,62.21144,3.9026598930358887
1617991733.51244,70.65103,3.9182798862457275
1617991733.52807,84.0108,3.9339098930358887
1617991733.5437,101.6819,3.94953989982605
1617991733.55932,121.6125,3.9651598930358887
1617991733.57495,140.7348,3.98078989982605
1617991733.59057,155.9141,3.9964098930358887
1617991733.6062,165.0215,4.01203989982605
1617991733.62182,167.5928,4.027659893035889
1617991733.63745,164.6965,4.04328989982605
1617991733.65308,158.3849,4.058919906616211
1617991733.6687,150.8053,4.07453989982605
1617991733.68433,143.5565,4.090169906616211
1617991733.69995,137.4954,4.10578989982605
1617991733.71558,132.8286,4.121419906616211
1617991733.7312,129.4328,4.13703989982605
1617991733.74683,127.0257,4.152669906616211
1617991733.76246,125.2229,4.168299913406372
1617991733.77808,123.1105,4.183919906616211
1617991733.79371,119.1649,4.199549913406372
1617991733.80933,111.2356,4.215169906616211
1617991733.82496,97.02869,4.230799913406372
1617991733.84058,75.0582,4.246419906616211
1617991733.85621,45.48358,4.262049913406372
1617991733.87184,10.71622,4.277679920196533
1617991733.88746,-24.7861,4.293299913406372
1617991733.90309,-55.52164,4.308929920196533
1617991733.91871,-76.67822,4.324549913406372
1617991733.93434,-85.57581,4.340179920196533
1617991733.94996,-82.45721,4.355799913406372
1617991733.96559,-70.34024,4.371429920196533
1617991733.98122,-53.7713,4.387059926986694
1617991733.99684,-37.40991,4.402679920196533
1617991734.01247,-24.72461,4.418309926986694
1617991734.02809,-17.4552,4.433929920196533
1617991734.04372,-15.73584,4.449559926986694
1617991734.05934,-18.78696,4.465179920196533
1617991734.07497,-25.30496,4.480809926986694
1617991734.0906,-33.80933,4.4964399337768555
1617991734.10622,-42.7435,4.512059926986694
1617991734.12185,-50.47647,4.5276899337768555
1617991734.13747,-55.85217,4.543309926986694
1617991734.1531,-58.6409,4.5589399337768555
1617991734.16872,-59.93021,4.574559926986694
1617991734.18435,-61.82559,4.5901899337768555
1617991734.19998,-66.65857,4.605819940567017
1617991734.2156,-75.81665,4.6214399337768555
1617991734.23123,-88.97638,4.637069940567017
1617991734.24685,-104.1716,4.6526899337768555
1617991734.26248,-118.4868,4.668319940567017
1617991734.2781,-129.2496,4.6839399337768555
1617991734.29373,-134.8896,4.699569940567017
1617991734.30936,-135.1271,4.715199947357178
1617991734.32498,-130.5928,4.730819940567017
1617991734.34061,-122.2347,4.746449947357178
1617991734.35623,-110.9157,4.762069940567017
1617991734.37186,-97.5932,4.777699947357178
1617991734.38748,-83.64648,4.793319940567017
1617991734.40311,-70.90668,4.808949947357178
1617991734.41874,-61.28815,4.824579954147339
1617991734.43436,-55.98248,4.840199947357178
1617991734.44999,-54.71246,4.855829954147339
1617991734.46561,-55.57184,4.871449947357178
1617991734.48124,-55.63855,4.887079954147339
1617991734.49686,-52.04169,4.902699947357178
1617991734.51249,-43.17535,4.918329954147339
1617991734.52812,-29.26465,4.9339599609375
1617991734.54374,-12.18457,4.949579954147339
1617991734.55937,5.272827,4.9652099609375
1617991734.57499,20.37903,4.980829954147339
1617991734.59062,31.27307,4.9964599609375
1617991734.60624,37.28662,5.012079954147339
1617991734.62187,38.77295,5.0277099609375
1617991734.6375,36.79236,5.043339967727661
1617991734.65312,32.61835,5.0589599609375
1617991734.66875,27.40576,5.074589967727661
1617991734.68437,22.22107,5.0902099609375
1617991734.7,17.91956,5.105839967727661
1617991734.71562,15.21405,5.1214599609375
1617991734.73125,14.64441,5.137089967727661
1617991734.74688,16.46985,5.152719974517822
1617991734.7625,20.51123,5.168339967727661
1617991734.77813,26.0589,5.183969974517822
1617991734.79375,31.96466,5.199589967727661
1617991734.80938,36.80267,5.215219974517822
1617991734.825,39.31451,5.230839967727661
1617991734.84063,38.70209,5.246469974517822
1617991734.85626,34.84741,5.262099981307983
1617991734.87188,28.20575,5.277719974517822
1617991734.88751,19.50531,5.293349981307983
1617991734.90313,9.447815,5.308969974517822
1617991734.91876,-1.542053,5.324599981307983
1617991734.93438,-13.18744,5.340219974517822
1617991734.95001,-25.12689,5.355849981307983
1617991734.96564,-36.61334,5.3714799880981445
1617991734.98126,-46.49982,5.387099981307983
1617991734.99689,-53.46143,5.4027299880981445
1617991735.01251,-56.45526,5.418349981307983
1617991735.02814,-55.08008,5.4339799880981445
1617991735.04376,-49.7417,5.449599981307983
1617991735.05939,-41.42114,5.4652299880981445
1617991735.07502,-31.31616,5.480859994888306
1617991735.09064,-20.44452,5.4964799880981445
1617991735.10627,-9.346252,5.512109994888306
1617991735.12189,1.771484,5.5277299880981445
1617991735.13752,12.8598,5.543359994888306
1617991735.15314,23.8139,5.5589799880981445
1617991735.16877,34.33746,5.574609994888306
1617991735.1844,44.04376,5.590240001678467
1617991735.20002,52.64075,5.605859994888306
1617991735.21565,60.04718,5.621490001678467
1617991735.23127,66.29187,5.637109994888306
1617991735.2469,71.44244,5.652740001678467
1617991735.26253,75.29846,5.668370008468628
1617991735.27815,77.29163,5.683990001678467
1617991735.29378,76.67993,5.699620008468628
1617991735.3094,72.75507,5.715240001678467
1617991735.32503,65.2041,5.730870008468628
1617991735.34065,54.30261,5.746490001678467
1617991735.35628,40.84668,5.762120008468628
1617991735.37191,25.82623,5.777750015258789
1617991735.38753,10.07855,5.793370008468628
1617991735.40316,-5.952271,5.809000015258789
1617991735.41878,-22.17902,5.824620008468628
1617991735.43441,-38.53381,5.840250015258789
1617991735.45003,-54.68506,5.855870008468628
1617991735.46566,-69.82336,5.871500015258789
1617991735.48129,-82.75513,5.88713002204895
1617991735.49691,-92.22937,5.902750015258789
1617991735.51254,-97.37061,5.91838002204895
1617991735.52816,-97.97278,5.934000015258789
1617991735.54379,-94.54712,5.94963002204895
1617991735.55941,-88.0968,5.965250015258789
1617991735.57504,-79.828,5.98088002204895
1617991735.59067,-70.98456,5.996510028839111
1617991735.60629,-62.61066,6.01213002204895
1617991735.62192,-55.49579,6.027760028839111
1617991735.63754,-50.05164,6.04338002204895
1617991735.65317,-46.29211,6.059010028839111
1617991735.66879,-43.74847,6.07463002204895
1617991735.68442,-41.63403,6.090260028839111
1617991735.70005,-39.07806,6.1058900356292725
1617991735.71567,-35.42511,6.121510028839111
1617991735.7313,-30.56018,6.1371400356292725
1617991735.74692,-24.80194,6.152760028839111
1617991735.76255,-18.82544,6.1683900356292725
1617991735.77817,-13.29193,6.184010028839111
1617991735.7938,-8.580933,6.1996400356292725
1617991735.80943,-4.639526,6.2152698040008545
1617991735.82505,-1.090698,6.2308900356292725
1617991735.84068,2.520081,6.2465198040008545
1617991735.8563,6.549072,6.2621400356292725
1617991735.87193,11.03296,6.2777698040008545
1617991735.88755,15.73962,6.2933900356292725
1617991735.90318,20.22931,6.3090198040008545
1617991735.91881,24.00061,6.324649810791016
1617991735.93443,26.71252,6.3402698040008545
1617991735.95006,28.25702,6.355899810791016
1617991735.96568,28.82977,6.3715198040008545
1617991735.98131,28.83826,6.387149810791016
1617991735.99693,28.83093,6.4027698040008545
1617991736.01256,29.30103,6.418399810791016
1617991736.02819,30.52167,6.434029817581177
1617991736.04381,32.35327,6.449649810791016
1617991736.05944,34.24371,6.465279817581177
1617991736.07506,35.38062,6.480899810791016
1617991736.09069,34.97662,6.496529817581177
1617991736.10631,32.64172,6.512149810791016
1617991736.12194,28.53613,6.527779817581177
1617991736.13757,23.32654,6.543409824371338
1617991736.15319,17.89465,6.559029817581177
1617991736.16882,12.89954,6.574659824371338
1617991736.18444,8.342834,6.590279817581177
1617991736.20007,3.588623,6.605909824371338
1617991736.21569,-2.39447,6.621529817581177
1617991736.23132,-10.48389,6.637159824371338
1617991736.24695,-20.69653,6.652789831161499
1617991736.26257,-31.84412,6.668409824371338
1617991736.2782,-41.80859,6.684039831161499
1617991736.29382,-48.29797,6.699659824371338
1617991736.30945,-50.11176,6.715289831161499
1617991736.32507,-48.17841,6.730909824371338
1617991736.3407,-45.87787,6.746539831161499
1617991736.35633,-48.36755,6.76216983795166
1617991736.37195,-61.21161,6.777789831161499
1617991736.38758,-88.72827,6.79341983795166
1617991736.4032,-132.7641,6.809039831161499
1617991736.41883,-192.003,6.82466983795166
1617991736.43445,-261.6198,6.840289831161499
1617991736.45008,-333.8216,6.85591983795166
1617991736.46571,-398.835,6.871549844741821
1617991736.48133,-446.7902,6.88716983795166
1617991736.49696,-470.1889,6.902799844741821
1617991736.51258,-465.9091,6.91841983795166
1617991736.52821,-436.0691,6.934049844741821
1617991736.54383,-387.165,6.94966983795166
1617991736.55946,-327.7436,6.965299844741821
1617991736.57509,-265.6346,6.980929851531982
1617991736.59071,-206.0419,6.996549844741821
1617991736.60634,-151.1173,7.012179851531982
1617991736.62196,-100.8071,7.027799844741821
1617991736.63759,-54.4144,7.043429851531982
1617991736.65321,-11.36392,7.059049844741821
1617991736.66884,28.58984,7.074679851531982
1617991736.68447,65.64444,7.0903098583221436
1617991736.70009,100.3396,7.105929851531982
1617991736.71572,133.4006,7.1215598583221436
1617991736.73134,165.4488,7.137179851531982
1617991736.74697,196.7917,7.1528098583221436
1617991736.76259,227.7733,7.168429851531982
1617991736.77822,258.878,7.1840598583221436
1617991736.79385,290.8057,7.199689865112305
1617991736.80947,324.1298,7.2153098583221436
1617991736.8251,358.7508,7.230939865112305
1617991736.84072,393.5705,7.2465598583221436
1617991736.85635,426.5201,7.262189865112305
1617991736.87197,454.8644,7.2778098583221436
1617991736.8876,475.7291,7.293439865112305
1617991736.90323,486.6436,7.309069871902466
1617991736.91885,485.8137,7.324689865112305
1617991736.93448,472.5344,7.340319871902466
1617991736.9501,447.5308,7.355939865112305
1617991736.96573,412.9185,7.371569871902466
1617991736.98135,372.0594,7.387189865112305
1617991736.99698,328.5465,7.402819871902466
1617991737.01261,285.1732,7.418449878692627
1617991737.02823,243.0767,7.434069871902466
1617991737.04386,201.7854,7.449699878692627
1617991737.05948,159.9893,7.465319871902466
1617991737.07511,116.7444,7.480949878692627
1617991737.09073,72.44426,7.496569871902466
1617991737.10636,28.76208,7.512199878692627
1617991737.12199,-11.92426,7.527829885482788
1617991737.13761,-48.04353,7.543449878692627
1617991737.15324,-79.5607,7.559079885482788
1617991737.16886,-107.9996,7.574699878692627
1617991737.18449,-135.5861,7.590329885482788
1617991737.20011,-163.8038,7.605949878692627
1617991737.21574,-192.3629,7.621579885482788
1617991737.23137,-218.7333,7.637209892272949
1617991737.24699,-239.2039,7.652829885482788
1617991737.26262,-250.4087,7.668459892272949
1617991737.27824,-251.0162,7.684079885482788
1617991737.29387,-242.6093,7.699709892272949
1617991737.30949,-229.292,7.715329885482788
1617991737.32512,-216.3478,7.730959892272949
1617991737.34075,-208.4181,7.74658989906311
1617991737.35637,-207.9274,7.762209892272949
1617991737.372,-214.4706,7.77783989906311
1617991737.38762,-225.1736,7.793459892272949
1617991737.40325,-235.7387,7.80908989906311
1617991737.41887,-241.8793,7.824709892272949
1617991737.4345,-240.6845,7.84033989906311
1617991737.45013,-231.2462,7.8559699058532715
1617991737.46575,-214.9165,7.87158989906311
1617991737.48138,-194.8129,7.8872199058532715
1617991737.497,-174.9884,7.90283989906311
1617991737.51263,-159.4091,7.9184699058532715
1617991737.52825,-151.213,7.93408989906311
1617991737.54388,-151.9804,7.9497199058532715
1617991737.55951,-161.2869,7.965349912643433
1617991737.57513,-176.4911,7.9809699058532715
1617991737.59076,-192.6164,7.996599912643433
1617991737.60638,-203.1252,8.012219905853271
1617991737.62201,-201.2847,8.027849912643433
1617991737.63763,-182.2624,8.043469905853271
1617991737.65326,-145.1373,8.059099912643433
1617991737.66889,-93.72737,8.074729919433594
1617991737.68451,-35.68983,8.090349912643433
1617991737.70014,19.99452,8.105979919433594
1617991737.71576,65.90717,8.121599912643433
1617991737.73139,98.59174,8.137229919433594
1617991737.74702,119.0577,8.152859926223755
1617991737.76264,131.5186,8.168479919433594
1617991737.77827,141.0771,8.184109926223755
1617991737.79389,151.4818,8.199729919433594
1617991737.80952,163.9291,8.215359926223755
1617991737.82514,177.3204,8.230979919433594
1617991737.84077,189.196,8.246609926223755
1617991737.8564,196.8893,8.262239933013916
1617991737.87202,198.3405,8.277859926223755
1617991737.88765,192.3036,8.293489933013916
1617991737.90327,178.2741,8.309109926223755
1617991737.9189,156.6335,8.324739933013916
1617991737.93452,128.7874,8.340359926223755
1617991737.95015,97.26571,8.355989933013916
1617991737.96578,65.54299,8.371619939804077
1617991737.9814,37.12302,8.387239933013916
1617991737.99703,14.4207,8.402869939804077
1617991738.01265,-2.353592,8.418489933013916
1617991738.02828,-15.41087,8.434119939804077
1617991738.0439,-28.71593,8.449739933013916
1617991738.05953,-46.2827,8.465369939804077
1617991738.07516,-70.34108,8.480999946594238
1617991738.09078,-99.93439,8.496619939804077
1617991738.10641,-130.664,8.512249946594238
1617991738.12203,-155.7319,8.527869939804077
1617991738.13766,-167.7673,8.543499946594238
1617991738.15328,-161.0139,8.559119939804077
1617991738.16891,-133.0547,8.574749946594238
1617991738.18454,-85.70438,8.5903799533844
1617991738.20016,-24.35641,8.605999946594238
1617991738.21579,43.36339,8.6216299533844
1617991738.23141,109.7076,8.637249946594238
1617991738.24704,168.933,8.6528799533844
1617991738.26266,218.447,8.668499946594238
1617991738.27829,258.8699,8.6841299533844
1617991738.29392,293.0925,8.69975996017456
1617991738.30954,324.7711,8.7153799533844
1617991738.32517,356.814,8.73100996017456
1617991738.34079,390.4211,8.7466299533844
1617991738.35642,424.3392,8.76225996017456
1617991738.37204,454.8409,8.7778799533844
1617991738.38767,476.6685,8.79350996017456
1617991738.4033,484.4754,8.809139966964722
1617991738.41892,474.4877,8.82475996017456
1617991738.43455,445.53,8.840389966964722
1617991738.45017,398.9807,8.85600996017456
1617991738.4658,337.1631,8.871639966964722
1617991738.48142,262.2075,8.88725996017456
1617991738.49705,175.7386,8.902889966964722
1617991738.51268,80.04745,8.918519973754883
1617991738.5283,-19.97302,8.934139966964722
1617991738.54393,-116.6321,8.949769973754883
1617991738.55955,-201.2894,8.965389966964722
1617991738.57518,-267.4742,8.981019973754883
1617991738.5908,-313.3734,8.996639966964722
1617991738.60643,-341.9058,9.012269973754883
1617991738.62206,-358.234,9.027899980545044
1617991738.63768,-366.4265,9.043519973754883
1617991738.65331,-367.5469,9.059149980545044
1617991738.66893,-360.3109,9.074769973754883
1617991738.68456,-343.5891,9.090399980545044
1617991738.70018,-318.6985,9.106019973754883
1617991738.71581,-289.8157,9.121649980545044
1617991738.73144,-262.2071,9.137279987335205
1617991738.74706,-239.7509,9.152899980545044
1617991738.76269,-223.3714,9.168529987335205
1617991738.77831,-211.2933,9.184149980545044
1617991738.79394,-200.7056,9.199779987335205
1617991738.80956,-189.2823,9.215399980545044
1617991738.82519,-175.8253,9.231029987335205
1617991738.84082,-159.8881,9.246659994125366
1617991738.85644,-141.0546,9.262279987335205
1617991738.87207,-118.8257,9.277909994125366
1617991738.88769,-93.01288,9.293529987335205
1617991738.90332,-64.14505,9.309159994125366
1617991738.91894,-33.9093,9.324779987335205
1617991738.93457,-5.096222,9.340409994125366
1617991738.9502,19.40488,9.356040000915527
1617991738.96582,37.13855,9.371659994125366
1617991738.98145,46.81836,9.387290000915527
1617991738.99707,48.56207,9.402909994125366
1617991739.0127,43.58466,9.418540000915527
1617991739.02832,33.85391,9.434159994125366
1617991739.04395,21.59998,9.449790000915527
1617991739.05958,8.850891,9.465420007705688
1617991739.0752,-3.052063,9.481040000915527
1617991739.09083,-13.51935,9.496670007705688
1617991739.10645,-22.73428,9.512290000915527
1617991739.12208,-31.31274,9.527920007705688
1617991739.1377,-39.69977,9.543540000915527
1617991739.15333,-47.67264,9.559170007705688
1617991739.16896,-54.42169,9.57480001449585
1617991739.18458,-58.8606,9.590420007705688
1617991739.20021,-60.09619,9.60605001449585
1617991739.21583,-57.80801,9.621670007705688
1617991739.23146,-52.00653,9.63730001449585
1617991739.24708,-42.93726,9.652920007705688
1617991739.26271,-30.98758,9.66855001449585
1617991739.27834,-16.89517,9.68418002128601
1617991739.29396,-1.928986,9.69980001449585
1617991739.30959,12.09369,9.71543002128601
1617991739.32521,23.58002,9.73105001449585
1617991739.34084,32.18188,9.74668002128601
1617991739.35646,39.43359,9.76230001449585
1617991739.37209,48.63293,9.77793002128601
1617991739.38772,63.34412,9.793560028076172
1617991739.40334,85.62787,9.80918002128601
1617991739.41897,114.6995,9.824810028076172
1617991739.43459,146.9492,9.84043002128601
1617991739.45022,177.0689,9.856060028076172
1617991739.46584,200.0364,9.87168002128601
1617991739.48147,212.5425,9.887310028076172
1617991739.4971,213.5495,9.902940034866333
1617991739.51272,203.9987,9.918560028076172
1617991739.52835,185.9028,9.934190034866333
1617991739.54397,161.6705,9.949810028076172
1617991739.5596,133.7825,9.965440034866333
1617991739.57522,104.6249,9.981060028076172
1617991739.59085,76.51801,9.996690034866333
1617991739.60648,51.56842,10.012319803237915
1617991739.6221,31.31586,10.027940034866333
1617991739.63773,16.4422,10.043569803237915
1617991739.65335,6.758667,10.059190034866333
1617991739.66898,1.297119,10.074819803237915
1617991739.6846,-1.204773,10.090440034866333
1617991739.70023,-1.967041,10.106069803237915
1617991739.71586,-1.89502,10.121699810028076
1617991739.73148,-1.430725,10.137319803237915
1617991739.74711,-0.6759033,10.152949810028076
1617991739.76273,0.4968262,10.168569803237915
1617991739.77836,2.170837,10.184199810028076
1617991739.79398,4.289063,10.199819803237915
1617991739.80961,6.549866,10.215449810028076
1617991739.82524,8.575012,10.231079816818237
1617991739.84086,9.924133,10.246699810028076
1617991739.85649,10.29865,10.262329816818237
1617991739.87211,9.633301,10.277949810028076
1617991739.88774,8.21582,10.293579816818237
1617991739.90336,6.589233,10.309199810028076
1617991739.91899,5.346497,10.324829816818237
1617991739.93462,4.963928,10.340459823608398
1617991739.95024,5.603516,10.356079816818237
1617991739.96587,7.125732,10.371709823608398
1617991739.98149,9.213318,10.387329816818237
1617991739.99712,11.54773,10.402959823608398
1617991740.01274,13.93024,10.418579816818237
1617991740.02837,16.29041,10.434209823608398
1617991740.044,18.51624,10.44983983039856
1617991740.05962,20.4068,10.465459823608398
1617991740.07525,21.5733,10.48108983039856
1617991740.09087,21.56781,10.496709823608398
1617991740.1065,20.04749,10.51233983039856
1617991740.12212,16.91779,10.527959823608398
1617991740.13775,12.38916,10.54358983039856
1617991740.15338,6.974731,10.55921983718872
1617991740.169,1.327026,10.57483983039856
1617991740.18463,-3.868286,10.59046983718872
1617991740.20025,-7.98822,10.60608983039856
1617991740.21588,-10.52985,10.62171983718872
1617991740.23151,-11.23236,10.637349843978882
1617991740.24713,-10.08545,10.65296983718872
1617991740.26276,-7.380981,10.668599843978882
1617991740.27838,-3.601196,10.68421983718872
1617991740.29401,0.6730957,10.699849843978882
1617991740.30963,4.857971,10.71546983718872
1617991740.32526,8.492554,10.731099843978882
1617991740.34089,11.3139,10.746729850769043
1617991740.35651,13.28387,10.762349843978882
1617991740.37214,14.50641,10.777979850769043
1617991740.38776,15.23181,10.793599843978882
1617991740.40339,15.60382,10.809229850769043
1617991740.41901,15.66119,10.824849843978882
1617991740.43464,15.33398,10.840479850769043
1617991740.45027,14.52863,10.856109857559204
1617991740.46589,13.20868,10.871729850769043
1617991740.48152,11.4566,10.887359857559204
1617991740.49714,9.49469,10.902979850769043
1617991740.51277,7.519714,10.918609857559204
1617991740.52839,5.708679,10.934229850769043
1617991740.54402,4.130249,10.949859857559204
1617991740.55965,2.793884,10.965489864349365
1617991740.57527,1.654297,10.981109857559204
1617991740.5909,0.6792603,10.996739864349365
1617991740.60652,-0.1491089,11.012359857559204
1617991740.62215,-0.878479,11.027989864349365
1617991740.63777,-1.541748,11.043609857559204
1617991740.6534,-2.247498,11.059239864349365
1617991740.66903,-3.07605,11.074869871139526
1617991740.68465,-4.06366,11.090489864349365
1617991740.70028,-5.234497,11.106119871139526
1617991740.7159,-6.530579,11.121739864349365
1617991740.73153,-7.893799,11.137369871139526
1617991740.74715,-9.271301,11.152989864349365
1617991740.76278,-10.64758,11.168619871139526
1617991740.77841,-12.02026,11.184249877929688
1617991740.79403,-13.43311,11.199869871139526
1617991740.80966,-14.80988,11.215499877929688
1617991740.82528,-15.9516,11.231119871139526
1617991740.84091,-16.48944,11.246749877929688
1617991740.85653,-16.0108,11.262369871139526
1617991740.87216,-14.2663,11.277999877929688
1617991740.88779,-11.27142,11.293629884719849
1617991740.90341,-7.337219,11.309249877929688
1617991740.91904,-2.995972,11.324879884719849
1617991740.93466,1.207397,11.340499877929688
1617991740.95029,4.889648,11.356129884719849
1617991740.96591,7.894226,11.371749877929688
1617991740.98154,10.23938,11.387379884719849
1617991740.99717,12.01782,11.40300989151001
1617991741.01279,13.24475,11.418629884719849
1617991741.02842,13.87195,11.43425989151001
1617991741.04404,13.84381,11.449879884719849
1617991741.05967,13.20569,11.46550989151001
1617991741.07529,12.11816,11.481129884719849
1617991741.09092,10.87482,11.49675989151001
1617991741.10655,9.758179,11.512389898300171
1617991741.12217,8.939087,11.52800989151001
1617991741.1378,8.463867,11.543639898300171
1617991741.15342,8.225159,11.55925989151001
1617991741.16905,8.063171,11.574889898300171
1617991741.18467,7.925354,11.59050989151001
1617991741.2003,7.821655,11.606139898300171
1617991741.21593,7.828552,11.621769905090332
1617991741.23155,7.977112,11.637389898300171
1617991741.24718,8.184204,11.653019905090332
1617991741.2628,8.237183,11.668639898300171
1617991741.27843,7.881165,11.684269905090332
1617991741.29405,6.960022,11.699889898300171
1617991741.30968,5.434082,11.715519905090332
1617991741.32531,3.458984,11.731149911880493
1617991741.34093,1.296753,11.746769905090332
1617991741.35656,-0.7539063,11.762399911880493
1617991741.37218,-2.467651,11.778019905090332
1617991741.38781,-3.762512,11.793649911880493
1617991741.40343,-4.66748,11.809269905090332
1617991741.41906,-5.391235,11.824899911880493
1617991741.43469,-6.178711,11.840529918670654
1617991741.45031,-7.27887,11.856149911880493
1617991741.46594,-8.805664,11.871779918670654
1617991741.48156,-10.65784,11.887399911880493
1617991741.49719,-12.47394,11.903029918670654
1617991741.51281,-13.80823,11.918649911880493
1617991741.52844,-14.258,11.934279918670654
1617991741.54407,-13.60144,11.949909925460815
1617991741.55969,-11.86859,11.965529918670654
1617991741.57532,-9.299561,11.981159925460815
1617991741.59094,-6.266357,11.996779918670654
1617991741.60657,-3.125854,12.012409925460815
1617991741.62219,-0.1893311,12.028029918670654
1617991741.63782,2.394531,12.043659925460815
1617991741.65345,4.560059,12.059289932250977
1617991741.66907,6.304626,12.074909925460815
1617991741.6847,7.646729,12.090539932250977
1617991741.70032,8.624268,12.106159925460815
1617991741.71595,9.258606,12.121789932250977
1617991741.73157,9.542847,12.137409925460815
1617991741.7472,9.437744,12.153039932250977
1617991741.76283,8.901733,12.168669939041138
1617991741.77845,7.93811,12.184289932250977
1617991741.79408,6.680725,12.199919939041138
1617991741.8097,5.353333,12.215539932250977
1617991741.82533,4.228271,12.231169939041138
1617991741.84095,3.501831,12.246789932250977
1617991741.85658,3.218079,12.262419939041138
1617991741.87221,3.296692,12.278049945831299
1617991741.88783,3.542847,12.293669939041138
1617991741.90346,3.812683,12.309299945831299
1617991741.91908,4.102234,12.324919939041138
1617991741.93471,4.489136,12.340549945831299
1617991741.95033,4.981018,12.356169939041138
1617991741.96596,5.479614,12.371799945831299
1617991741.98159,5.706848,12.38742995262146
1617991741.99721,5.308655,12.403049945831299
1617991742.01284,4.090027,12.41867995262146
1617991742.02846,2.092773,12.434299945831299
1617991742.04409,-0.4614258,12.44992995262146
1617991742.05971,-3.169617,12.465549945831299
1617991742.07534,-5.650818,12.48117995262146
1617991742.09097,-7.751221,12.496809959411621
1617991742.10659,-9.49408,12.51242995262146
1617991742.12222,-11.09113,12.528059959411621
1617991742.13784,-12.8606,12.54367995262146
1617991742.15347,-15.04169,12.559309959411621
1617991742.16909,-17.7052,12.57492995262146
1617991742.18472,-20.6972,12.590559959411621
1617991742.20035,-23.56775,12.606189966201782
1617991742.21597,-25.72327,12.621809959411621
1617991742.2316,-26.62262,12.637439966201782
1617991742.24722,-25.90527,12.653059959411621
1617991742.26285,-23.52271,12.668689966201782
1617991742.27847,-19.78192,12.684309959411621
1617991742.2941,-15.20105,12.699939966201782
1617991742.30973,-10.44666,12.715569972991943
1617991742.32535,-6.058167,12.731189966201782
1617991742.34098,-2.379211,12.746819972991943
1617991742.3566,0.512207,12.762439966201782
1617991742.37223,2.763916,12.778069972991943
1617991742.38786,4.623596,12.793699979782104
1617991742.40348,6.265503,12.809319972991943
1617991742.41911,7.673584,12.824949979782104
1617991742.43473,8.77478,12.840569972991943
1617991742.45036,9.378113,12.856199979782104
1617991742.46598,9.389709,12.871819972991943
1617991742.48161,8.874146,12.887449979782104
1617991742.49724,7.969543,12.903079986572266
1617991742.51286,6.862427,12.918699979782104
1617991742.52849,5.731262,12.934329986572266
1617991742.54411,4.70105,12.949949979782104
1617991742.55974,3.865051,12.965579986572266
1617991742.57536,3.386597,12.981199979782104
1617991742.59099,3.375549,12.996829986572266
1617991742.60662,3.858093,13.012459993362427
1617991742.62224,4.785706,13.028079986572266
1617991742.63787,5.893311,13.043709993362427
1617991742.65349,6.893311,13.059329986572266
1617991742.66912,7.50354,13.074959993362427
1617991742.68474,7.532776,13.090579986572266
1617991742.70037,6.834839,13.106209993362427
1617991742.716,5.422852,13.121840000152588
1617991742.73162,3.322876,13.137459993362427
1617991742.74725,0.6313477,13.153090000152588
1617991742.76287,-2.434631,13.168709993362427
1617991742.7785,-5.640686,13.184340000152588
1617991742.79412,-8.694824,13.199959993362427
1617991742.80975,-11.33948,13.215590000152588
1617991742.82538,-13.43042,13.231220006942749
1617991742.841,-15.01917,13.246840000152588
1617991742.85663,-16.19977,13.262470006942749
1617991742.87225,-17.00189,13.278090000152588
1617991742.88788,-17.32404,13.293720006942749
1617991742.9035,-16.8764,13.309340000152588
1617991742.91913,-15.36273,13.324970006942749
1617991742.93476,-12.61127,13.34060001373291
1617991742.95038,-8.754517,13.356220006942749
1617991742.96601,-4.247375,13.37185001373291
1617991742.98163,0.2901611,13.387470006942749
1617991742.99726,4.308899,13.40310001373291
1617991743.01288,7.479675,13.418720006942749
1617991743.02851,9.730591,13.43435001373291
1617991743.04414,11.15051,13.449980020523071
1617991743.05976,11.89777,13.46560001373291
1617991743.07539,12.11005,13.481230020523071
1617991743.09101,11.88391,13.49685001373291
1617991743.10664,11.28528,13.512480020523071
1617991743.12226,10.41119,13.52810001373291
1617991743.13789,9.487488,13.543730020523071
1617991743.15352,8.72821,13.559360027313232
1617991743.16914,8.231567,13.574980020523071
1617991743.18477,8.052673,13.590610027313232
1617991743.20039,8.072815,13.606230020523071
1617991743.21602,8.134216,13.621860027313232
1617991743.23164,8.176819,13.637480020523071
1617991743.24727,8.140869,13.653110027313232
1617991743.2629,8.072754,13.668740034103394
1617991743.27852,8.018616,13.684360027313232
1617991743.29415,7.880371,13.699990034103394
1617991743.30977,7.460144,13.715610027313232
1617991743.3254,6.617249,13.731240034103394
1617991743.34102,5.279968,13.746860027313232
1617991743.35665,3.50708,13.762490034103394
1617991743.37228,1.555054,13.778119802474976
1617991743.3879,-0.3772583,13.793740034103394
1617991743.40353,-2.202087,13.809369802474976
1617991743.41915,-3.930603,13.824990034103394
1617991743.43478,-5.749268,13.840619802474976
1617991743.4504,-7.834839,13.856240034103394
1617991743.46603,-10.21436,13.871869802474976
1617991743.48166,-12.77094,13.887499809265137
1617991743.49728,-15.24896,13.903119802474976
1617991743.51291,-17.24713,13.918749809265137
1617991743.52853,-18.32172,13.934369802474976
1617991743.54416,-18.099,13.949999809265137
1617991743.55978,-16.37299,13.965619802474976
1617991743.57541,-13.19061,13.981249809265137
1617991743.59104,-8.866638,13.996879816055298
1617991743.60666,-3.766235,14.012499809265137
1617991743.62229,1.589355,14.028129816055298
1617991743.63791,6.731628,14.043749809265137
1617991743.65354,11.35468,14.059379816055298
1617991743.66916,15.21722,14.074999809265137
1617991743.68479,18.22101,14.090629816055298
1617991743.70042,20.37958,14.106259822845459
1617991743.71604,21.71893,14.121879816055298
1617991743.73167,22.33331,14.137509822845459
1617991743.74729,22.3924,14.153129816055298
1617991743.76292,22.02997,14.168759822845459
1617991743.77854,21.35059,14.184379816055298
1617991743.79417,20.508,14.200009822845459
1617991743.8098,19.57318,14.21563982963562
1617991743.82542,18.63513,14.231259822845459
1617991743.84105,17.78363,14.24688982963562
1617991743.85667,17.01984,14.262509822845459
1617991743.8723,16.40704,14.27813982963562
1617991743.88792,15.94629,14.293759822845459
1617991743.90355,15.54828,14.30938982963562
1617991743.91918,15.09601,14.325019836425781
1617991743.9348,14.53302,14.34063982963562
1617991743.95043,13.73401,14.356269836425781
1617991743.96605,12.66541,14.37188982963562
1617991743.98168,11.34406,14.387519836425781
1617991743.9973,9.792603,14.40313982963562
1617991744.01293,8.086975,14.418769836425781
1617991744.02856,6.269165,14.434399843215942
1617991744.04418,4.285583,14.450019836425781
1617991744.05981,2.067322,14.465649843215942
1617991744.07543,-0.4943237,14.481269836425781
1617991744.09106,-3.507751,14.496899843215942
1617991744.10668,-7.05127,14.512519836425781
1617991744.12231,-11.06348,14.528149843215942
1617991744.13794,-15.38562,14.543779850006104
1617991744.15356,-19.71704,14.559399843215942
1617991744.16919,-23.62482,14.575029850006104
1617991744.18481,-26.70197,14.590649843215942
1617991744.20044,-28.58618,14.606279850006104
1617991744.21606,-29.15576,14.621899843215942
1617991744.23169,-28.60529,14.637529850006104
1617991744.24732,-27.40747,14.653159856796265
1617991744.26294,-26.13239,14.668779850006104
1617991744.27857,-25.34064,14.684409856796265
1617991744.29419,-25.33966,14.700029850006104
1617991744.30982,-26.16284,14.715659856796265
1617991744.32544,-27.67041,14.731279850006104
1617991744.34107,-29.65869,14.746909856796265
1617991744.3567,-32.07294,14.762539863586426
1617991744.37232,-34.94482,14.778159856796265
1617991744.38795,-38.29346,14.793789863586426
1617991744.40357,-42.00983,14.809409856796265
1617991744.4192,-45.75751,14.825039863586426
1617991744.43482,-48.95343,14.840659856796265
1617991744.45045,-50.94861,14.856289863586426
1617991744.46608,-51.22449,14.871919870376587
1617991744.4817,-49.4859,14.887539863586426
1617991744.49733,-45.7326,14.903169870376587
1617991744.51295,-40.1687,14.918789863586426
1617991744.52858,-33.06403,14.934419870376587
1617991744.5442,-24.79163,14.950039863586426
1617991744.55983,-15.72217,14.965669870376587
1617991744.57546,-6.299805,14.981299877166748
1617991744.59108,3.032166,14.996919870376587
1617991744.60671,11.79187,15.012549877166748
1617991744.62233,19.5954,15.028169870376587
1617991744.63796,26.17017,15.043799877166748
1617991744.65358,31.43652,15.059419870376587
1617991744.66921,35.49042,15.075049877166748
1617991744.68484,38.51276,15.09067988395691
1617991744.70046,40.66217,15.106299877166748
1617991744.71609,42.02728,15.12192988395691
1617991744.73171,42.64923,15.137549877166748
1617991744.74734,42.58832,15.15317988395691
1617991744.76296,42.12805,15.168799877166748
1617991744.77859,41.65332,15.18442988395691
1617991744.79422,41.64905,15.20005989074707
1617991744.80984,42.52277,15.21567988395691
1617991744.82547,44.52356,15.23130989074707
1617991744.84109,47.59448,15.24692988395691
1617991744.85672,51.40649,15.26255989074707
1617991744.87234,55.41608,15.27817988395691
1617991744.88797,59.01678,15.29380989074707
1617991744.9036,61.66473,15.309439897537231
1617991744.91922,62.96277,15.32505989074707
1617991744.93485,62.71875,15.340689897537231
1617991744.95047,60.95276,15.35630989074707
1617991744.9661,57.82532,15.371939897537231
1617991744.98172,53.56818,15.38755989074707
1617991744.99735,48.41028,15.403189897537231
1617991745.01298,42.55157,15.418819904327393
1617991745.0286,36.25409,15.434439897537231
1617991745.04423,29.83752,15.450069904327393
1617991745.05985,23.70972,15.465689897537231
1617991745.07548,18.28949,15.481319904327393
1617991745.09111,13.92548,15.496949911117554
1617991745.10673,10.69067,15.512569904327393
1617991745.12236,8.477356,15.528199911117554
1617991745.13798,6.995667,15.543819904327393
1617991745.15361,5.905396,15.559449911117554
1617991745.16923,4.945374,15.575069904327393
1617991745.18486,3.928894,15.590699911117554
1617991745.20049,2.7995,15.606329917907715
1617991745.21611,1.639404,15.621949911117554
1617991745.23174,0.6221313,15.637579917907715
1617991745.24736,-0.1806641,15.653199911117554
1617991745.26299,-0.68573,15.668829917907715
1617991745.27861,-0.9342651,15.684449911117554
1617991745.29424,-1.012512,15.700079917907715
1617991745.30987,-1.088074,15.715709924697876
1617991745.32549,-1.338989,15.731329917907715
1617991745.34112,-1.912415,15.746959924697876
1617991745.35674,-2.863342,15.762579917907715
1617991745.37237,-4.059875,15.778209924697876
1617991745.38799,-5.229126,15.793829917907715
1617991745.40362,-5.996887,15.809459924697876
1617991745.41925,-6.044983,15.825089931488037
1617991745.43487,-5.20105,15.840709924697876
1617991745.4505,-3.564636,15.856339931488037
1617991745.46612,-1.456238,15.871959924697876
1617991745.48175,0.6741943,15.887589931488037
1617991745.49737,2.383423,15.903209924697876
1617991745.513,3.44104,15.918839931488037
1617991745.52863,3.853027,15.934469938278198
1617991745.54425,3.868652,15.950089931488037
1617991745.55988,3.796204,15.965719938278198
1617991745.5755,3.905151,15.981339931488037
1617991745.59113,4.414063,15.996969938278198
1617991745.60675,5.410156,16.012589931488037
1617991745.62238,6.815308,16.0282199382782
1617991745.63801,8.463745,16.04384994506836
1617991745.65363,9.975891,16.0594699382782
1617991745.66926,11.01587,16.07509994506836
1617991745.68488,11.3125,16.0907199382782
1617991745.70051,10.71399,16.10634994506836
1617991745.71613,9.261414,16.1219699382782
1617991745.73176,7.210083,16.13759994506836
1617991745.74739,4.838135,16.15322995185852
1617991745.76301,2.380432,16.16884994506836
1617991745.77864,0.01342773,16.18447995185852
1617991745.79426,-2.175476,16.20009994506836
1617991745.80989,-4.077698,16.21572995185852
1617991745.82551,-5.548157,16.23134994506836
1617991745.84114,-6.434143,16.24697995185852
1617991745.85677,-6.656738,16.26260995864868
1617991745.87239,-6.319763,16.27822995185852
1617991745.88802,-5.728027,16.29385995864868
1617991745.90364,-5.347656,16.30947995185852
1617991745.91927,-5.643188,16.32510995864868
1617991745.93489,-6.873962,16.34072995185852
1617991745.95052,-9.007141,16.35635995864868
1617991745.96615,-11.77063,16.371989965438843
1617991745.98177,-14.73853,16.38760995864868
1617991745.9974,-17.50269,16.403239965438843
1617991746.01302,-19.76031,16.41885995864868
1617991746.02865,-21.27472,16.434489965438843
1617991746.04427,-21.88922,16.45010995864868
1617991746.0599,-21.46515,16.465739965438843
1617991746.07553,-19.95282,16.481369972229004
1617991746.09115,-17.49921,16.496989965438843
1617991746.10678,-14.47253,16.512619972229004
1617991746.1224,-11.45709,16.528239965438843
1617991746.13803,-8.979584,16.543869972229004
1617991746.15365,-7.404114,16.559489965438843
1617991746.16928,-6.720154,16.575119972229004
1617991746.18491,-6.624817,16.590749979019165
1617991746.20053,-6.677979,16.606369972229004
1617991746.21616,-6.598389,16.621999979019165
1617991746.23178,-6.338531,16.637619972229004
1617991746.24741,-6.054169,16.653249979019165
1617991746.26303,-6.002075,16.668869972229004
1617991746.27866,-6.259674,16.684499979019165
1617991746.29429,-6.721649,16.700129985809326
1617991746.30991,-7.08548,16.715749979019165
1617991746.32554,-7.013306,16.731379985809326
1617991746.34116,-6.289001,16.746999979019165
1617991746.35679,-4.847626,16.762629985809326
1617991746.37241,-2.802307,16.778249979019165
1617991746.38804,-0.2612305,16.793879985809326
1617991746.40367,2.680328,16.809509992599487
1617991746.41929,5.924194,16.825129985809326
1617991746.43492,9.304626,16.840759992599487
1617991746.45054,12.5936,16.856379985809326
1617991746.46617,15.57349,16.872009992599487
1617991746.48179,18.08893,16.887629985809326
1617991746.49742,20.2048,16.903259992599487
1617991746.51305,22.06989,16.91888999938965
1617991746.52867,23.9006,16.934509992599487
1617991746.5443,25.77606,16.95013999938965
1617991746.55992,27.58792,16.965759992599487
1617991746.57555,29.04672,16.98138999938965
1617991746.59117,29.79755,16.997009992599487
1617991746.6068,29.57486,17.01263999938965
1617991746.62243,28.2496,17.02827000617981
1617991746.63805,25.87839,17.04388999938965
1617991746.65368,22.66992,17.05952000617981
1617991746.6693,19.11295,17.07513999938965
1617991746.68493,15.88242,17.09077000617981
1617991746.70055,13.83478,17.10638999938965
1617991746.71618,13.73602,17.12202000617981
1617991746.73181,15.96625,17.13765001296997
1617991746.74743,20.3045,17.15327000617981
1617991746.76306,25.78082,17.16890001296997
1617991746.77868,31.08084,17.18452000617981
1617991746.79431,34.85992,17.20015001296997
1617991746.80993,36.31952,17.21577000617981
1617991746.82556,35.44366,17.23140001296997
1617991746.84119,32.92337,17.247030019760132
1617991746.85681,29.83954,17.26265001296997
1617991746.87244,27.15781,17.278280019760132
1617991746.88806,25.39761,17.29390001296997
1617991746.90369,24.43634,17.309530019760132
1617991746.91931,23.66812,17.32515001296997
1617991746.93494,22.12592,17.340780019760132
1617991746.95057,18.92749,17.356410026550293
1617991746.96619,13.53149,17.372030019760132
1617991746.98182,5.762909,17.387660026550293
1617991746.99744,-3.969666,17.403280019760132
1617991747.01307,-14.80795,17.418910026550293
1617991747.02869,-25.51907,17.434530019760132
1617991747.04432,-34.81046,17.450160026550293
1617991747.05995,-41.70752,17.465790033340454
1617991747.07557,-45.87123,17.481410026550293
1617991747.0912,-47.75151,17.497040033340454
1617991747.10682,-48.26826,17.512660026550293
1617991747.12245,-48.34792,17.528290033340454
1617991747.13807,-48.35097,17.543910026550293
1617991747.1537,-47.84799,17.559540033340454
1617991747.16933,-45.87415,17.575169801712036
1617991747.18495,-41.60155,17.590790033340454
1617991747.20058,-34.9496,17.606419801712036
1617991747.2162,-26.88954,17.622040033340454
1617991747.23183,-19.23117,17.637669801712036
1617991747.24746,-13.86084,17.653299808502197
1617991747.26308,-12.10033,17.668919801712036
1617991747.27871,-14.15671,17.684549808502197
1617991747.29433,-19.12735,17.700169801712036
1617991747.30996,-25.46097,17.715799808502197
1617991747.32558,-31.4521,17.731419801712036
1617991747.34121,-35.78928,17.747049808502197
1617991747.35684,-37.71681,17.76267981529236
1617991747.37246,-37.05666,17.778299808502197
1617991747.38809,-33.87686,17.79392981529236
1617991747.40371,-28.39426,17.809549808502197
1617991747.41934,-20.83734,17.82517981529236
1617991747.43496,-11.43506,17.840799808502197
1617991747.45059,-0.461235,17.85642981529236
1617991747.46622,11.95356,17.87205982208252
1617991747.48184,25.86291,17.88767981529236
1617991747.49747,41.63373,17.90330982208252
1617991747.51309,59.9147,17.91892981529236
1617991747.52872,81.27763,17.93455982208252
1617991747.54434,105.8019,17.95017981529236
1617991747.55997,132.7961,17.96580982208252
1617991747.5756,160.8048,17.98143982887268
1617991747.59122,187.8854,17.99705982208252
1617991747.60685,212.0652,18.01268982887268
1617991747.62247,231.7333,18.02830982208252
1617991747.6381,245.7908,18.04393982887268
1617991747.65372,253.7039,18.05955982208252
1617991747.66935,255.5579,18.07518982887268
1617991747.68498,252.0296,18.090819835662842
1617991747.7006,244.2222,18.10643982887268
1617991747.71623,233.5022,18.122069835662842
1617991747.73185,220.9715,18.13768982887268
1617991747.74748,207.1396,18.153319835662842
1617991747.7631,191.8031,18.16893982887268
1617991747.77873,174.0254,18.184569835662842
1617991747.79436,152.6578,18.200199842453003
1617991747.80998,126.7633,18.215819835662842
1617991747.82561,96.08864,18.231449842453003
1617991747.84123,61.25801,18.247069835662842
1617991747.85686,23.76497,18.262699842453003
1617991747.87248,-14.33311,18.278319835662842
1617991747.88811,-51.03508,18.293949842453003
1617991747.90374,-84.77672,18.309579849243164
1617991747.91936,-115.0393,18.325199842453003
1617991747.93499,-142.3391,18.340829849243164
1617991747.95061,-167.7906,18.356449842453003
1617991747.96624,-192.352,18.372079849243164
1617991747.98186,-216.0816,18.387699842453003
1617991747.99749,-238.1166,18.403329849243164
1617991748.01312,-256.9171,18.418959856033325
1617991748.02874,-271.1544,18.434579849243164
1617991748.04437,-280.3315,18.450209856033325
1617991748.05999,-285.1383,18.465829849243164
1617991748.07562,-287.3518,18.481459856033325
1617991748.09124,-289.4941,18.497079849243164
1617991748.10687,-294.5099,18.512709856033325
1617991748.1225,-305.114,18.528339862823486
1617991748.13812,-322.778,18.543959856033325
1617991748.15375,-346.5023,18.559589862823486
1617991748.16937,-372.129,18.575209856033325
1617991748.185,-392.769,18.590839862823486
1617991748.20062,-400.8672,18.606459856033325
1617991748.21625,-391.0359,18.622089862823486
1617991748.23188,-362.4162,18.637719869613647
1617991748.2475,-319.2458,18.653339862823486
1617991748.26313,-269.153,18.668969869613647
1617991748.27875,-220.1666,18.684589862823486
1617991748.29438,-177.7639,18.700219869613647
1617991748.31,-143.6719,18.715839862823486
1617991748.32563,-116.6382,18.731469869613647
1617991748.34126,-94.4537,18.74709987640381
1617991748.35688,-75.73553,18.762719869613647
1617991748.37251,-60.37125,18.77834987640381
1617991748.38813,-48.8674,18.793969869613647
1617991748.40376,-40.99731,18.80959987640381
1617991748.41938,-35.15002,18.825219869613647
1617991748.43501,-28.72852,18.84084987640381
1617991748.45064,-19.09134,18.85647988319397
1617991748.46626,-4.495178,18.87209987640381
1617991748.48189,15.69745,18.88772988319397
1617991748.49751,41.02942,18.90334987640381
1617991748.51314,70.41714,18.91897988319397
1617991748.52876,102.2059,18.93459987640381
1617991748.54439,133.9701,18.95022988319397
1617991748.56002,162.6851,18.96585988998413
1617991748.57564,185.0115,18.98147988319397
1617991748.59127,198.2513,18.99710988998413
1617991748.60689,201.3006,19.01272988319397
1617991748.62252,195.0533,19.02835988998413
1617991748.63814,181.9943,19.04397988319397
1617991748.65377,165.1866,19.05960988998413
1617991748.6694,147.2842,19.075239896774292
1617991748.68502,129.9242,19.09085988998413
1617991748.70065,114.0643,19.106489896774292
1617991748.71627,100.3426,19.12210988998413
1617991748.7319,89.45132,19.137739896774292
1617991748.74752,81.96082,19.15335988998413
1617991748.76315,77.94508,19.168989896774292
1617991748.77878,76.52594,19.184619903564453
1617991748.7944,76.02625,19.200239896774292
1617991748.81003,74.62495,19.215869903564453
1617991748.82565,71.08926,19.231489896774292
1617991748.84128,65.31921,19.247119903564453
1617991748.8569,58.17043,19.262739896774292
1617991748.87253,51.0972,19.278369903564453
1617991748.88816,45.32564,19.293999910354614
1617991748.90378,41.36251,19.309619903564453
1617991748.91941,38.88571,19.325249910354614
1617991748.93503,36.97514,19.340869903564453
1617991748.95066,34.70152,19.356499910354614
1617991748.96628,31.41045,19.372119903564453
1617991748.98191,27.08089,19.387749910354614
1617991748.99754,22.16762,19.403379917144775
1617991749.01316,17.41543,19.418999910354614
1617991749.02879,13.54034,19.434629917144775
1617991749.04441,10.91904,19.450249910354614
1617991749.06004,9.590515,19.465879917144775
1617991749.07566,9.224358,19.481499910354614
1617991749.09129,9.36544,19.497129917144775
1617991749.10692,9.528641,19.512759923934937
1617991749.12254,9.424805,19.528379917144775
1617991749.13817,8.996422,19.544009923934937
1617991749.15379,8.36261,19.559629917144775
1617991749.16942,7.770515,19.575259923934937
1617991749.18504,7.381615,19.590879917144775
1617991749.20067,7.264999,19.606509923934937
1617991749.2163,7.281754,19.622139930725098
1617991749.23192,7.227264,19.637759923934937
1617991749.24755,6.863144,19.653389930725098
1617991749.26317,6.058609,19.669009923934937
1617991749.2788,4.853851,19.684639930725098
1617991749.29442,3.433624,19.700259923934937
1617991749.31005,2.065407,19.715889930725098
1617991749.32568,1.060654,19.73151993751526
1617991749.3413,0.6628571,19.747139930725098
1617991749.35693,0.9027405,19.76276993751526
1617991749.37255,1.615379,19.778389930725098
1617991749.38818,2.486259,19.79401993751526
1617991749.4038,3.300369,19.809639930725098
1617991749.41943,3.977806,19.82526993751526
1617991749.43506,4.626419,19.84089994430542
1617991749.45068,5.388306,19.85651993751526
1617991749.46631,6.314331,19.87214994430542
1617991749.48193,7.287949,19.88776993751526
1617991749.49756,8.002899,19.90339994430542
1617991749.51319,8.138794,19.91902995109558
1617991749.52881,7.53331,19.93464994430542
1617991749.54444,6.282898,19.95027995109558
1617991749.56006,4.677811,19.96589994430542
1617991749.57569,3.082794,19.98152995109558
1617991749.59131,1.793655,19.99714994430542
1617991749.60694,0.9275818,20.01277995109558
1617991749.62257,0.4737701,20.028409957885742
1617991749.63819,0.3265991,20.04402995109558
1617991749.65382,0.3809204,20.059659957885742
1617991749.66944,0.510788,20.07527995109558
1617991749.68507,0.5743256,20.090909957885742
1617991749.70069,0.4227448,20.10652995109558
1617991749.71632,-0.06010437,20.122159957885742
1617991749.73195,-0.8968506,20.137789964675903
1617991749.74757,-2.011902,20.153409957885742
1617991749.7632,-3.258804,20.169039964675903
1617991749.77882,-4.519913,20.184659957885742
1617991749.79445,-5.646667,20.200289964675903
1617991749.81007,-6.560608,20.215909957885742
1617991749.8257,-7.183365,20.231539964675903
1617991749.84133,-7.460678,20.247169971466064
1617991749.85695,-7.379745,20.262789964675903
1617991749.87258,-7.003769,20.278419971466064
1617991749.8882,-6.521194,20.294039964675903
1617991749.90383,-6.148605,20.309669971466064
1617991749.91945,-6.07959,20.325289964675903
1617991749.93508,-6.364517,20.340919971466064
1617991749.95071,-6.86908,20.356549978256226
1617991749.96633,-7.395111,20.372169971466064
1617991749.98196,-7.796646,20.387799978256226
1617991749.99758,-8.064911,20.403419971466064
1617991750.01321,-8.392563,20.419049978256226
1617991750.02883,-9.058929,20.434669971466064
1617991750.04446,-10.21461,20.450299978256226
1617991750.06009,-11.81097,20.465929985046387
1617991750.07571,-13.58112,20.481549978256226
1617991750.09134,-15.03024,20.497179985046387
1617991750.10696,-15.68039,20.512799978256226
1617991750.12259,-15.17386,20.528429985046387
1617991750.13821,-13.44066,20.544049978256226
1617991750.15384,-10.72972,20.559679985046387
1617991750.16947,-7.510712,20.575309991836548
1617991750.18509,-4.255325,20.590929985046387
1617991750.20072,-1.378204,20.606559991836548
1617991750.21634,0.8750458,20.622179985046387
1617991750.23197,2.455124,20.637809991836548
1617991750.24759,3.426407,20.653429985046387
1617991750.26322,3.983505,20.669059991836548
1617991750.27885,4.319092,20.68468999862671
1617991750.29447,4.569778,20.700309991836548
1617991750.3101,4.813232,20.71593999862671
1617991750.32572,5.055817,20.731559991836548
1617991750.34135,5.27504,20.74718999862671
1617991750.35697,5.420471,20.762809991836548
1617991750.3726,5.463654,20.77843999862671
1617991750.38823,5.448166,20.79407000541687
1617991750.40385,5.357727,20.80968999862671
1617991750.41948,5.220276,20.82532000541687
1617991750.4351,4.945663,20.84093999862671
1617991750.45073,4.475708,20.85657000541687
1617991750.46635,3.838577,20.87218999862671
1617991750.48198,3.113205,20.88782000541687
1617991750.49761,2.490402,20.90345001220703
1617991750.51323,2.165268,20.91907000541687
1617991750.52886,2.237915,20.93470001220703
1617991750.54448,2.555481,20.95032000541687
1617991750.56011,2.910431,20.96595001220703
1617991750.57573,2.990524,20.98157000541687
1617991750.59136,2.684143,20.99720001220703
1617991750.60699,2.085831,21.012830018997192
1617991750.62261,1.388382,21.02845001220703
1617991750.63824,0.843399,21.044080018997192
1617991750.65386,0.5600281,21.05970001220703
1617991750.66949,0.513092,21.075330018997192
1617991750.68511,0.567749,21.09095001220703
1617991750.70074,0.7041473,21.106580018997192
1617991750.71637,0.9217834,21.122210025787354
1617991750.73199,1.396301,21.137830018997192
1617991750.74762,2.173645,21.153460025787354
1617991750.76324,3.171326,21.169080018997192
1617991750.77887,4.085938,21.184710025787354
1617991750.79449,4.545959,21.200330018997192
1617991750.81012,4.288239,21.215960025787354
1617991750.82575,3.25,21.231590032577515
1617991750.84137,1.677704,21.247210025787354
1617991750.857,-0.09350586,21.262840032577515
1617991750.87262,-1.782974,21.278460025787354
1617991750.88825,-3.278763,21.294090032577515
1617991750.90387,-4.629303,21.309710025787354
1617991750.9195,-6.001114,21.325340032577515
1617991750.93513,-7.471832,21.340969800949097
1617991750.95075,-9.018448,21.356590032577515
1617991750.96638,-10.5007,21.372219800949097
1617991750.982,-11.75818,21.387840032577515
1617991750.99763,-12.71819,21.403469800949097
1617991751.01325,-13.4278,21.419090032577515
1617991751.02888,-13.93251,21.434719800949097
1617991751.04451,-14.28198,21.450349807739258
1617991751.06013,-14.45149,21.465969800949097
1617991751.07576,-14.44855,21.481599807739258
1617991751.09138,-14.3923,21.497219800949097
1617991751.10701,-14.4473,21.512849807739258
1617991751.12263,-14.79298,21.528469800949097
1617991751.13826,-15.48695,21.544099807739258
1617991751.15389,-16.29901,21.55972981452942
1617991751.16951,-16.79526,21.575349807739258
1617991751.18514,-16.52711,21.59097981452942
1617991751.20076,-15.17511,21.606599807739258
1617991751.21639,-12.7921,21.62222981452942
1617991751.23201,-9.694656,21.637849807739258
1617991751.24764,-6.381851,21.65347981452942
1617991751.26327,-3.340652,21.66910982131958
1617991751.27889,-0.9422302,21.68472981452942
1617991751.29452,0.6776733,21.70035982131958
1617991751.31014,1.594254,21.71597981452942
1617991751.32577,1.976059,21.73160982131958
1617991751.34139,2.079819,21.74722981452942
1617991751.35702,2.122879,21.76285982131958
1617991751.37265,2.259338,21.77848982810974
1617991751.38827,2.574539,21.79410982131958
1617991751.4039,3.070175,21.80973982810974
1617991751.41952,3.675873,21.82535982131958
1617991751.43515,4.326462,21.84098982810974
1617991751.45077,4.929031,21.85660982131958
1617991751.4664,5.401382,21.87223982810974
1617991751.48203,5.672897,21.887869834899902
1617991751.49765,5.698135,21.90348982810974
1617991751.51328,5.447983,21.919119834899902
1617991751.5289,4.987808,21.93473982810974
1617991751.54453,4.468842,21.950369834899902
1617991751.56015,4.043091,21.96598982810974
1617991751.57578,3.85939,21.981619834899902
1617991751.59141,3.917038,21.997249841690063
1617991751.60703,4.114502,22.012869834899902
1617991751.62266,4.284592,22.028499841690063
1617991751.63828,4.210968,22.044119834899902
1617991751.65391,3.769791,22.059749841690063
1617991751.66953,2.962402,22.075369834899902
1617991751.68516,1.896179,22.090999841690063
1617991751.70079,0.7051239,22.106629848480225
1617991751.71641,-0.4536896,22.122249841690063
1617991751.73204,-1.473221,22.137879848480225
1617991751.74766,-2.346786,22.153499841690063
1617991751.76329,-3.129242,22.169129848480225
1617991751.77891,-3.951462,22.184749841690063
1617991751.79454,-4.950287,22.200379848480225
1617991751.81017,-6.096603,22.216009855270386
1617991751.82579,-7.304138,22.231629848480225
1617991751.84142,-8.394012,22.247259855270386
1617991751.85704,-9.156479,22.262879848480225
1617991751.87267,-9.500351,22.278509855270386
1617991751.88829,-9.501755,22.294129848480225
1617991751.90392,-9.304764,22.309759855270386
1617991751.91955,-9.186798,22.325389862060547
1617991751.93517,-9.333237,22.341009855270386
1617991751.9508,-9.793884,22.356639862060547
1617991751.96642,-10.49684,22.372259855270386
1617991751.98205,-11.36208,22.387889862060547
1617991751.99767,-12.26381,22.403509855270386
1617991752.0133,-13.22757,22.419139862060547
1617991752.02893,-14.36934,22.434769868850708
1617991752.04455,-15.77046,22.450389862060547
1617991752.06018,-17.45807,22.466019868850708
1617991752.0758,-19.20398,22.481639862060547
1617991752.09143,-20.619,22.497269868850708
1617991752.10706,-21.22807,22.51289987564087
1617991752.12268,-20.7141,22.528519868850708
1617991752.13831,-18.98019,22.54414987564087
1617991752.15393,-16.26331,22.559769868850708
1617991752.16956,-13.0025,22.57539987564087
1617991752.18518,-9.579498,22.591019868850708
1617991752.20081,-6.353027,22.60664987564087
1617991752.21644,-3.496994,22.62227988243103
1617991752.23206,-1.076385,22.63789987564087
1617991752.24769,0.916687,22.65352988243103
1617991752.26331,2.418701,22.66914987564087
1617991752.27894,3.385437,22.68477988243103
1617991752.29456,3.733398,22.70039987564087
1617991752.31019,3.456589,22.71602988243103
1617991752.32582,2.652939,22.73165988922119
1617991752.34144,1.448242,22.74727988243103
1617991752.35707,-0.02928162,22.76290988922119
1617991752.37269,-1.674042,22.77852988243103
1617991752.38832,-3.377411,22.79415988922119
1617991752.40394,-5.027481,22.80977988243103
1617991752.41957,-6.423508,22.82540988922119
1617991752.4352,-7.387451,22.841039896011353
1617991752.45082,-7.78215,22.85665988922119
1617991752.46645,-7.503799,22.872289896011353
1617991752.48207,-6.641754,22.88790988922119
1617991752.4977,-5.338074,22.903539896011353
1617991752.51332,-3.859283,22.91915988922119
1617991752.52895,-2.428284,22.934789896011353
1617991752.54458,-1.209869,22.950419902801514
1617991752.5602,-0.2803955,22.966039896011353
1617991752.57583,0.2637787,22.981669902801514
1617991752.59145,0.4080353,22.997289896011353
1617991752.60708,0.150116,23.012919902801514
1617991752.6227,-0.5087738,23.028539896011353
1617991752.63833,-1.477142,23.044169902801514
1617991752.65396,-2.657135,23.059799909591675
1617991752.66958,-3.952927,23.075419902801514
1617991752.68521,-5.269867,23.091049909591675
1617991752.70083,-6.632172,23.106669902801514
1617991752.71646,-8.060791,23.122299909591675
1617991752.73208,-9.617401,23.137919902801514
1617991752.74771,-11.29834,23.153549909591675
1617991752.76334,-13.01242,23.169179916381836
1617991752.77896,-14.67287,23.184799909591675
1617991752.79459,-16.22331,23.200429916381836
1617991752.81021,-17.65318,23.216049909591675
1617991752.82584,-19.0274,23.231679916381836
1617991752.84146,-20.5011,23.247299909591675
1617991752.85709,-22.20935,23.262929916381836
1617991752.87272,-24.25604,23.278559923171997
1617991752.88834,-26.56738,23.294179916381836
1617991752.90397,-28.91855,23.309809923171997
1617991752.91959,-30.89886,23.325429916381836
1617991752.93522,-32.04694,23.341059923171997
1617991752.95084,-31.96555,23.356679916381836
1617991752.96647,-30.39232,23.372309923171997
1617991752.9821,-27.31538,23.387939929962158
1617991752.99772,-22.95995,23.403559923171997
1617991753.01335,-17.73569,23.419189929962158
1617991753.02897,-12.12105,23.434809923171997
1617991753.0446,-6.639267,23.450439929962158
1617991753.06022,-1.706703,23.466059923171997
1617991753.07585,2.321571,23.481689929962158
1617991753.09148,5.250465,23.49731993675232
1617991753.1071,7.075027,23.512939929962158
1617991753.12273,7.857376,23.52856993675232
1617991753.13835,7.774055,23.544189929962158
1617991753.15398,6.985268,23.55981993675232
1617991753.1696,5.666603,23.575439929962158
1617991753.18523,4.002182,23.59106993675232
1617991753.20086,2.189056,23.60669994354248
1617991753.21648,0.4057693,23.62231993675232
1617991753.23211,-1.14592,23.63794994354248
1617991753.24773,-2.312408,23.65356993675232
1617991753.26336,-3.018127,23.66919994354248
1617991753.27898,-3.168793,23.68481993675232
1617991753.29461,-2.694778,23.70044994354248
1617991753.31024,-1.526768,23.71607995033264
1617991753.32586,0.3440132,23.73169994354248
1617991753.34149,2.813377,23.74732995033264
1617991753.35711,5.610703,23.76294994354248
1617991753.37274,8.35569,23.77857995033264
1617991753.38836,10.61518,23.79419994354248
1617991753.40399,12.03941,23.80982995033264
1617991753.41962,12.48904,23.825459957122803
1617991753.43524,11.97498,23.84107995033264
1617991753.45087,10.6864,23.856709957122803
1617991753.46649,8.808374,23.87232995033264
1617991753.48212,6.614004,23.887959957122803
1617991753.49774,4.333379,23.90357995033264
1617991753.51337,2.140217,23.919209957122803
1617991753.529,0.1508751,23.934839963912964
1617991753.54462,-1.645026,23.950459957122803
1617991753.56025,-3.330632,23.966089963912964
1617991753.57587,-5.097615,23.981709957122803
1617991753.5915,-7.130276,23.997339963912964
1617991753.60712,-9.499512,24.012959957122803
1617991753.62275,-12.13603,24.028589963912964
1617991753.63838,-14.85115,24.044219970703125
1617991753.654,-17.38383,24.059839963912964
1617991753.66963,-19.54619,24.075469970703125
1617991753.68525,-21.29337,24.091089963912964
1617991753.70088,-22.73677,24.106719970703125
1617991753.7165,-24.19517,24.122339963912964
1617991753.73213,-26.05546,24.137969970703125
1617991753.74776,-28.51973,24.153599977493286
1617991753.76338,-31.57324,24.169219970703125
1617991753.77901,-34.83591,24.184849977493286
1617991753.79463,-37.63191,24.200469970703125
1617991753.81026,-39.11689,24.216099977493286
1617991753.82588,-38.6092,24.231719970703125
1617991753.84151,-35.81689,24.247349977493286
1617991753.85714,-30.92832,24.262979984283447
1617991753.87276,-24.55811,24.278599977493286
1617991753.88839,-17.54059,24.294229984283447
1617991753.90401,-10.61757,24.309849977493286
1617991753.91964,-4.338234,24.325479984283447
1617991753.93526,1.078064,24.341099977493286
1617991753.95089,5.737427,24.356729984283447
1617991753.96652,9.880096,24.37235999107361
1617991753.98214,13.76169,24.387979984283447
1617991753.99777,17.61101,24.40360999107361
1617991754.01339,21.5139,24.419229984283447
1617991754.02902,25.39529,24.43485999107361
1617991754.04464,29.18233,24.450479984283447
1617991754.06027,32.77176,24.46610999107361
1617991754.0759,36.16896,24.48173999786377
1617991754.09152,39.48373,24.49735999107361
1617991754.10715,42.98557,24.51298999786377
1617991754.12277,46.97751,24.52860999107361
1617991754.1384,51.67438,24.54423999786377
1617991754.15402,57.17926,24.55985999107361
1617991754.16965,63.42598,24.57548999786377
1617991754.18528,70.2755,24.59112000465393
1617991754.2009,77.65503,24.60673999786377
1617991754.21653,85.52275,24.62237000465393
1617991754.23215,93.82541,24.63798999786377
1617991754.24778,102.4895,24.65362000465393
1617991754.2634,111.3587,24.66923999786377
1617991754.27903,120.2125,24.68487000465393
1617991754.29466,128.8011,24.700500011444092
1617991754.31028,137.0046,24.71612000465393
1617991754.32591,144.8025,24.731750011444092
1617991754.34153,152.36,24.74737000465393
1617991754.35716,159.8299,24.763000011444092
1617991754.37279,167.3426,24.778630018234253
1617991754.38841,174.8493,24.794250011444092
1617991754.40404,182.3784,24.809880018234253
1617991754.41966,189.9355,24.825500011444092
1617991754.43529,197.6066,24.841130018234253
1617991754.45091,205.4606,24.856750011444092
1617991754.46654,213.2564,24.872380018234253
1617991754.48217,220.1817,24.888010025024414
1617991754.49779,224.8584,24.903630018234253
1617991754.51342,225.627,24.919260025024414
1617991754.52904,220.9771,24.934880018234253
1617991754.54467,210.3374,24.950510025024414
1617991754.56029,194.0372,24.966130018234253
1617991754.57592,173.332,24.981760025024414
1617991754.59155,149.8127,24.997390031814575
1617991754.60717,124.8914,25.013010025024414
1617991754.6228,99.65528,25.028640031814575
1617991754.63842,75.04004,25.044260025024414
1617991754.65405,52.14714,25.059890031814575
1617991754.66967,32.24433,25.075510025024414
1617991754.6853,16.55304,25.091140031814575
1617991754.70093,5.57,25.106770038604736
1617991754.71655,-1.189426,25.122390031814575
1617991754.73218,-5.310097,25.138020038604736
1617991754.7478,-8.938255,25.153640031814575
1617991754.76343,-13.88819,25.169270038604736
1617991754.77905,-20.99727,25.184890031814575
1617991754.79468,-29.83457,25.200520038604736
1617991754.81031,-39.09003,25.21614980697632
1617991754.82593,-47.45706,25.231770038604736
1617991754.84156,-54.45874,25.24739980697632
1617991754.85718,-60.86533,25.263020038604736
1617991754.87281,-68.56108,25.27864980697632
1617991754.88843,-79.85657,25.294270038604736
1617991754.90406,-96.49606,25.30989980697632
1617991754.91969,-118.9758,25.32552981376648
1617991754.93531,-146.2874,25.34114980697632
1617991754.95094,-176.2616,25.35677981376648
1617991754.96656,-206.2734,25.37239980697632
1617991754.98219,-234.1135,25.38802981376648
1617991754.99781,-258.3895,25.40364980697632
1617991755.01344,-278.6089,25.41927981376648
1617991755.02907,-295.1811,25.43490982055664
1617991755.04469,-309.1373,25.45052981376648
1617991755.06032,-322.2526,25.46615982055664
1617991755.07594,-336.8593,25.48177981376648
1617991755.09157,-355.1915,25.49740982055664
1617991755.10719,-378.3352,25.51302981376648
1617991755.12282,-404.9668,25.52865982055664
1617991755.13845,-430.7588,25.5442898273468
1617991755.15407,-449.0897,25.55990982055664
1617991755.1697,-453.1476,25.5755398273468
1617991755.18532,-438.4446,25.59115982055664
1617991755.20095,-404.9664,25.6067898273468
1617991755.21657,-357.2911,25.62240982055664
1617991755.2322,-303.0563,25.6380398273468
1617991755.24783,-250.2062,25.653669834136963
1617991755.26345,-204.4047,25.6692898273468
1617991755.27908,-167.947,25.684919834136963
1617991755.2947,-140.2088,25.7005398273468
1617991755.31033,-119.1082,25.716169834136963
1617991755.32595,-102.598,25.7317898273468
1617991755.34158,-89.38719,25.747419834136963
1617991755.35721,-78.67819,25.763049840927124
1617991755.37283,-69.60513,25.778669834136963
1617991755.38846,-60.82352,25.794299840927124
1617991755.40408,-50.6468,25.809919834136963
1617991755.41971,-37.57747,25.825549840927124
1617991755.43533,-20.90669,25.841169834136963
1617991755.45096,-0.8247452,25.856799840927124
1617991755.46659,21.9335,25.872429847717285
1617991755.48221,46.68932,25.888049840927124
1617991755.49784,73.10288,25.903679847717285
1617991755.51346,100.9589,25.919299840927124
1617991755.52909,129.5694,25.934929847717285
1617991755.54471,157.1594,25.950549840927124
1617991755.56034,180.9557,25.966179847717285
1617991755.57597,197.7773,25.981809854507446
1617991755.59159,205.2508,25.997429847717285
1617991755.60722,202.7317,26.013059854507446
1617991755.62284,191.5946,26.028679847717285
1617991755.63847,174.6831,26.044309854507446
1617991755.65409,155.2348,26.059929847717285
1617991755.66972,135.9173,26.075559854507446
1617991755.68535,118.2447,26.091189861297607
1617991755.70097,102.7174,26.106809854507446
1617991755.7166,89.19824,26.122439861297607
1617991755.73222,77.3298,26.138059854507446
1617991755.74785,66.59473,26.153689861297607
1617991755.76347,56.30054,26.169309854507446
1617991755.7791,45.72638,26.184939861297607
1617991755.79473,34.30864,26.20056986808777
1617991755.81035,22.03333,26.216189861297607
1617991755.82598,9.609665,26.23181986808777
1617991755.8416,-1.608322,26.247439861297607
1617991755.85723,-10.04929,26.26306986808777
1617991755.87285,-14.45157,26.278689861297607
1617991755.88848,-14.32578,26.29431986808777
1617991755.90411,-10.21088,26.30994987487793
1617991755.91973,-3.413177,26.32556986808777
1617991755.93536,4.284241,26.34119987487793
1617991755.95098,11.28653,26.35681986808777
1617991755.96661,16.53458,26.37244987487793
1617991755.98223,19.74353,26.38806986808777
1617991755.99786,21.27374,26.40369987487793
1617991756.01349,21.80212,26.41932988166809
1617991756.02911,22.07156,26.43494987487793
1617991756.04474,22.47552,26.45057988166809
1617991756.06036,23.11038,26.46619987487793
1617991756.07599,23.78647,26.48182988166809
1617991756.09161,24.31335,26.49744987487793
1617991756.10724,24.68564,26.51307988166809
1617991756.12287,25.06744,26.528709888458252
1617991756.13849,25.73358,26.54432988166809
1617991756.15412,26.84549,26.559959888458252
1617991756.16974,28.46347,26.57557988166809
1617991756.18537,30.49664,26.591209888458252
1617991756.20099,32.83514,26.60682988166809
1617991756.21662,35.33395,26.622459888458252
1617991756.23225,37.89365,26.638089895248413
1617991756.24787,40.43042,26.653709888458252
1617991756.2635,42.7915,26.669339895248413
1617991756.27912,44.77863,26.684959888458252
1617991756.29475,46.13403,26.700589895248413
1617991756.31037,46.69501,26.716209888458252
1617991756.326,46.3764,26.731839895248413
1617991756.34163,45.31232,26.747469902038574
1617991756.35725,43.7738,26.763089895248413
1617991756.37288,42.10883,26.778719902038574
1617991756.3885,40.67346,26.794339895248413
1617991756.40413,39.64673,26.809969902038574
1617991756.41975,39.10889,26.825589895248413
1617991756.43538,38.89301,26.841219902038574
1617991756.45101,38.78149,26.856849908828735
1617991756.46663,38.52814,26.872469902038574
1617991756.48226,38.0849,26.888099908828735
1617991756.49788,37.43475,26.903719902038574
1617991756.51351,36.5874,26.919349908828735
1617991756.52913,35.49274,26.934969902038574
1617991756.54476,33.99512,26.950599908828735
1617991756.56039,32.01196,26.966229915618896
1617991756.57601,29.46246,26.981849908828735
1617991756.59164,26.46594,26.997479915618896
1617991756.60726,23.25122,27.013099908828735
1617991756.62289,20.07092,27.028729915618896
1617991756.63852,17.08954,27.044359922409058
1617991756.65414,14.31067,27.059979915618896
1617991756.66977,11.64258,27.075609922409058
1617991756.68539,8.867004,27.091229915618896
1617991756.70102,5.835938,27.106859922409058
1617991756.71664,2.442688,27.122479915618896
1617991756.73227,-1.280151,27.138109922409058
1617991756.7479,-5.220093,27.15373992919922
1617991756.76352,-9.230652,27.169359922409058
1617991756.77915,-13.20648,27.18498992919922
1617991756.79477,-17.14313,27.200609922409058
1617991756.8104,-21.05688,27.21623992919922
1617991756.82602,-25.04242,27.231859922409058
1617991756.84165,-29.19592,27.24748992919922
1617991756.85728,-33.61627,27.26311993598938
1617991756.8729,-38.37469,27.27873992919922
1617991756.88853,-43.35577,27.29436993598938
1617991756.90415,-48.28687,27.30998992919922
1617991756.91978,-52.50873,27.32561993598938
1617991756.9354,-55.13501,27.34123992919922
1617991756.95103,-55.17029,27.35686993598938
1617991756.96666,-51.93048,27.37249994277954
1617991756.98228,-45.25244,27.38811993598938
1617991756.99791,-35.71527,27.40374994277954
1617991757.01353,-24.48254,27.41936993598938
1617991757.02916,-12.94226,27.43499994277954
1617991757.04478,-2.36377,27.45061993598938
1617991757.06041,6.476746,27.46624994277954
1617991757.07604,13.30725,27.481879949569702
1617991757.09166,18.29315,27.49749994277954
1617991757.10729,21.7702,27.513129949569702
1617991757.12291,24.16937,27.52874994277954
1617991757.13854,25.79559,27.544379949569702
1617991757.15416,26.88928,27.55999994277954
1617991757.16979,27.63147,27.575629949569702
1617991757.18542,28.18964,27.591259956359863
1617991757.20104,28.67676,27.606879949569702
1617991757.21667,29.19727,27.622509956359863
1617991757.23229,29.84668,27.638129949569702
1617991757.24792,30.63519,27.653759956359863
1617991757.26354,31.58405,27.669379949569702
1617991757.27917,32.69482,27.685009956359863
1617991757.2948,33.97534,27.700639963150024
1617991757.31042,35.45862,27.716259956359863
1617991757.32605,37.26782,27.731889963150024
1617991757.34167,39.4043,27.747509956359863
1617991757.3573,41.82452,27.763139963150024
1617991757.37292,44.34613,27.778759956359863
1617991757.38855,46.59741,27.794389963150024
1617991757.40418,48.19476,27.810019969940186
1617991757.4198,48.81171,27.825639963150024
1617991757.43543,48.32538,27.841269969940186
1617991757.45105,46.85516,27.856889963150024
1617991757.46668,44.74432,27.872519969940186
1617991757.4823,42.35913,27.888139963150024
1617991757.49793,39.98981,27.903769969940186
1617991757.51356,37.75372,27.919399976730347
1617991757.52918,35.58484,27.935019969940186
1617991757.54481,33.34705,27.950649976730347
1617991757.56043,30.94318,27.966269969940186
1617991757.57606,28.38135,27.981899976730347
1617991757.59168,25.78461,27.997519969940186
1617991757.60731,23.27954,28.013149976730347
1617991757.62294,20.92798,28.028779983520508
1617991757.63856,18.61572,28.044399976730347
1617991757.65419,16.10376,28.060029983520508
1617991757.66981,13.09985,28.075649976730347
1617991757.68544,9.477966,28.091279983520508
1617991757.70106,5.309082,28.106899976730347
1617991757.71669,0.859436,28.122529983520508
1617991757.73232,-3.432617,28.13815999031067
1617991757.74794,-7.109009,28.153779983520508
1617991757.76357,-9.915405,28.16940999031067
1617991757.77919,-11.86475,28.185029983520508
1617991757.79482,-13.2594,28.20065999031067
1617991757.81044,-14.6167,28.216279983520508
1617991757.82607,-16.43103,28.23190999031067
1617991757.8417,-19.07495,28.24753999710083
1617991757.85732,-22.67786,28.26315999031067
1617991757.87295,-27.03821,28.27878999710083
1617991757.88857,-31.67883,28.29440999031067
1617991757.9042,-35.84485,28.31003999710083
1617991757.91982,-38.68384,28.32565999031067
1617991757.93545,-39.35754,28.34128999710083
1617991757.95108,-37.3252,28.35692000389099
1617991757.9667,-32.44324,28.37253999710083
1617991757.98233,-25.0979,28.38817000389099
1617991757.99795,-16.12451,28.40378999710083
1617991758.01358,-6.586548,28.41942000389099
1617991758.0292,2.482422,28.43503999710083
1617991758.04483,10.32861,28.45067000389099
1617991758.06046,16.54993,28.466300010681152
1617991758.07608,21.18237,28.48192000389099
1617991758.09171,24.40137,28.497550010681152
1617991758.10733,26.51892,28.51317000389099
1617991758.12296,27.75549,28.528800010681152
1617991758.13858,28.21875,28.54442000389099
1617991758.15421,27.9198,28.560050010681152
1617991758.16984,26.8988,28.575680017471313
1617991758.18546,25.30798,28.591300010681152
1617991758.20109,23.4093,28.606930017471313
1617991758.21671,21.60767,28.622550010681152
1617991758.23234,20.26685,28.638180017471313
1617991758.24796,19.63904,28.653800010681152
1617991758.26359,19.80151,28.669430017471313
1617991758.27922,20.69556,28.685060024261475
1617991758.29484,22.17529,28.700680017471313
1617991758.31047,24.13953,28.716310024261475
1617991758.32609,26.46436,28.731930017471313
1617991758.34172,28.94946,28.747560024261475
1617991758.35734,31.30273,28.763180017471313
1617991758.37297,33.16931,28.778810024261475
1617991758.3886,34.1731,28.794440031051636
1617991758.40422,34.1123,28.810060024261475
1617991758.41985,33.03259,28.825690031051636
1617991758.43547,31.20447,28.841310024261475
1617991758.4511,28.96167,28.856940031051636
1617991758.46672,26.52563,28.872560024261475
1617991758.48235,23.92468,28.888190031051636
1617991758.49798,20.99634,28.903820037841797
1617991758.5136,17.56995,28.919440031051636
1617991758.52923,13.54773,28.935070037841797
1617991758.54485,9.056152,28.950690031051636
1617991758.56048,4.333496,28.966320037841797
1617991758.5761,-0.2382813,28.981940031051636
1617991758.59173,-4.40918,28.997570037841797
1617991758.60736,-8.098145,29.01319980621338
1617991758.62298,-11.35571,29.028820037841797
1617991758.63861,-14.40271,29.04444980621338
1617991758.65423,-17.57446,29.060070037841797
1617991758.66986,-21.17615,29.07569980621338
1617991758.68548,-25.36414,29.091320037841797
1617991758.70111,-30.07898,29.10694980621338
1617991758.71674,-34.85681,29.12257981300354
1617991758.73236,-38.94995,29.13819980621338
1617991758.74799,-41.4314,29.15382981300354
1617991758.76361,-41.39929,29.16944980621338
1617991758.77924,-38.28857,29.18507981300354
1617991758.79486,-32.15796,29.20069980621338
1617991758.81049,-23.6239,29.21632981300354
1617991758.82612,-13.73645,29.2319598197937
1617991758.84174,-3.687622,29.24757981300354
1617991758.85737,5.55127,29.2632098197937
1617991758.87299,13.41968,29.27882981300354
1617991758.88862,19.72144,29.2944598197937
1617991758.90424,24.50085,29.31007981300354
1617991758.91987,27.91406,29.3257098197937
1617991758.9355,30.07629,29.341339826583862
1617991758.95112,31.11853,29.3569598197937
1617991758.96675,31.17114,29.372589826583862
1617991758.98237,30.44385,29.3882098197937
1617991758.998,29.19678,29.403839826583862
1617991759.01362,27.72571,29.4194598197937
1617991759.02925,26.25562,29.435089826583862
1617991759.04488,24.93298,29.450719833374023
1617991759.0605,23.85669,29.466339826583862
1617991759.07613,23.11084,29.481969833374023
1617991759.09175,22.81165,29.497589826583862
1617991759.10738,22.98254,29.513219833374023
1617991759.123,23.6261,29.528839826583862
1617991759.13863,24.63452,29.544469833374023
1617991759.15426,25.86609,29.560099840164185
1617991759.16988,27.09729,29.575719833374023
1617991759.18551,28.11438,29.591349840164185
1617991759.20113,28.72705,29.606969833374023
1617991759.21676,28.81519,29.622599840164185
1617991759.23239,28.36694,29.638229846954346
1617991759.24801,27.42224,29.653849840164185
1617991759.26364,26.05286,29.669479846954346
1617991759.27926,24.34619,29.685099840164185
1617991759.29489,22.38904,29.700729846954346
1617991759.31051,20.20081,29.716349840164185
1617991759.32614,17.74719,29.731979846954346
1617991759.34177,15.00793,29.747609853744507
1617991759.35739,11.95129,29.763229846954346
1617991759.37302,8.618896,29.778859853744507
1617991759.38864,5.120361,29.794479846954346
1617991759.40427,1.619751,29.810109853744507
1617991759.41989,-1.744385,29.825729846954346
1617991759.43552,-4.802856,29.841359853744507
1617991759.45115,-7.488647,29.856989860534668
1617991759.46677,-9.842529,29.872609853744507
1617991759.4824,-11.98279,29.888239860534668
1617991759.49802,-14.1908,29.903859853744507
1617991759.51365,-16.77832,29.919489860534668
1617991759.52927,-20.01453,29.935109853744507
1617991759.5449,-23.98999,29.950739860534668
1617991759.56053,-28.50513,29.96636986732483
1617991759.57615,-32.99951,29.981989860534668
1617991759.59178,-36.62109,29.99761986732483
1617991759.6074,-38.43506,30.013239860534668
1617991759.62303,-37.67798,30.02886986732483
1617991759.63865,-34.1571,30.044489860534668
1617991759.65428,-28.18994,30.06011986732483
1617991759.66991,-20.62708,30.07574987411499
1617991759.68553,-12.54419,30.09136986732483
1617991759.70116,-4.913086,30.10699987411499
1617991759.71678,1.640747,30.12261986732483
1617991759.73241,6.850952,30.13824987411499
1617991759.74803,10.82556,30.15386986732483
1617991759.76366,13.8053,30.16949987411499
1617991759.77929,16.00854,30.18512988090515
1617991759.79491,17.57178,30.20074987411499
1617991759.81054,18.65454,30.21637988090515
1617991759.82616,19.34143,30.23199987411499
1617991759.84179,19.72021,30.24762988090515
1617991759.85741,19.93396,30.26324987411499
1617991759.87304,20.06274,30.27887988090515
1617991759.88867,20.13416,30.294509887695312
1617991759.90429,20.17554,30.31012988090515
1617991759.91992,20.19531,30.325759887695312
1617991759.93554,20.27856,30.34137988090515
1617991759.95117,20.5592,30.357009887695312
1617991759.96679,21.10205,30.37262988090515
1617991759.98242,21.92566,30.388259887695312
1617991759.99805,22.92151,30.403889894485474
1617991760.01367,23.88416,30.419509887695312
1617991760.0293,24.6051,30.435139894485474
1617991760.04492,24.95227,30.450759887695312
1617991760.06055,24.84143,30.466389894485474
1617991760.07617,24.2926,30.482009887695312
1617991760.0918,23.4165,30.497639894485474
1617991760.10743,22.33496,30.513269901275635
1617991760.12305,21.20203,30.528889894485474
1617991760.13868,20.1283,30.544519901275635
1617991760.1543,19.17419,30.560139894485474
1617991760.16993,18.29187,30.575769901275635
1617991760.18555,17.40967,30.591389894485474
1617991760.20118,16.36401,30.607019901275635
1617991760.21681,15.01538,30.622649908065796
1617991760.23243,13.21051,30.638269901275635
1617991760.24806,10.84888,30.653899908065796
1617991760.26368,7.901062,30.669519901275635
1617991760.27931,4.416809,30.685149908065796
1617991760.29493,0.5613403,30.700769901275635
1617991760.31056,-3.414551,30.716399908065796
1617991760.32619,-7.177856,30.732029914855957
1617991760.34181,-10.49567,30.747649908065796
1617991760.35744,-13.2359,30.763279914855957
1617991760.37306,-15.53973,30.778899908065796
1617991760.38869,-17.66589,30.794529914855957
1617991760.40431,-19.90015,30.810149908065796
1617991760.41994,-22.49359,30.825779914855957
1617991760.43557,-25.50586,30.841409921646118
1617991760.45119,-28.77106,30.857029914855957
1617991760.46682,-31.88971,30.872659921646118
1617991760.48244,-34.27911,30.888279914855957
1617991760.49807,-35.25684,30.903909921646118
1617991760.51369,-34.27179,30.919529914855957
1617991760.52932,-31.09369,30.935159921646118
1617991760.54495,-25.89783,30.95078992843628
1617991760.56057,-19.2771,30.966409921646118
1617991760.5762,-12.13544,30.98203992843628
1617991760.59182,-5.38855,30.997659921646118
1617991760.60745,0.2750854,31.01328992843628
1617991760.62307,4.516907,31.028909921646118
1617991760.6387,7.339661,31.04453992843628
1617991760.65433,8.988525,31.06016993522644
1617991760.66995,9.793701,31.07578992843628
1617991760.68558,10.10071,31.09141993522644
1617991760.7012,10.19366,31.10703992843628
1617991760.71683,10.28821,31.12266993522644
1617991760.73245,10.50159,31.13828992843628
1617991760.74808,10.88556,31.15391993522644
1617991760.76371,11.43762,31.1695499420166
1617991760.77933,12.10345,31.18516993522644
1617991760.79496,12.8764,31.2007999420166
1617991760.81058,13.74756,31.21641993522644
1617991760.82621,14.69861,31.2320499420166
1617991760.84183,15.68848,31.24766993522644
1617991760.85746,16.69141,31.2632999420166
1617991760.87309,17.67896,31.278929948806763
1617991760.88871,18.6391,31.2945499420166
1617991760.90434,19.53699,31.310179948806763
1617991760.91996,20.24463,31.3257999420166
1617991760.93559,20.63849,31.341429948806763
1617991760.95121,20.59601,31.3570499420166
1617991760.96684,20.03918,31.372679948806763
1617991760.98247,19.01495,31.388309955596924
1617991760.99809,17.69513,31.403929948806763
1617991761.01372,16.29626,31.419559955596924
1617991761.02934,14.9978,31.435179948806763
1617991761.04497,13.85327,31.450809955596924
1617991761.06059,12.78186,31.466429948806763
1617991761.07622,11.65875,31.482059955596924
1617991761.09185,10.39197,31.497689962387085
1617991761.10747,8.947205,31.513309955596924
1617991761.1231,7.378296,31.528939962387085
1617991761.13872,5.745239,31.544559955596924
1617991761.15435,4.093994,31.560189962387085
1617991761.16997,2.380859,31.575809955596924
1617991761.1856,0.5169067,31.591439962387085
1617991761.20123,-1.610535,31.607069969177246
1617991761.21685,-4.088623,31.622689962387085
1617991761.23248,-6.903992,31.638319969177246
1617991761.2481,-9.916382,31.653939962387085
1617991761.26373,-12.8775,31.669569969177246
1617991761.27935,-15.55475,31.685189962387085
1617991761.29498,-17.78583,31.700819969177246
1617991761.31061,-19.53253,31.716449975967407
1617991761.32623,-20.89868,31.732069969177246
1617991761.34186,-22.08624,31.747699975967407
1617991761.35748,-23.34283,31.763319969177246
1617991761.37311,-24.80243,31.778949975967407
1617991761.38874,-26.43152,31.79457998275757
1617991761.40436,-27.95801,31.810199975967407
1617991761.41999,-28.97058,31.82582998275757
1617991761.43561,-29.02277,31.841449975967407
1617991761.45124,-27.71503,31.85707998275757
1617991761.46686,-24.87115,31.872699975967407
1617991761.48249,-20.62189,31.88832998275757
1617991761.49812,-15.38,31.90395998954773
1617991761.51374,-9.706238,31.91957998275757
1617991761.52937,-4.275879,31.93520998954773
1617991761.54499,0.3810425,31.95082998275757
1617991761.56062,3.938843,31.96645998954773
1617991761.57624,6.343323,31.98207998275757
1617991761.59187,7.806946,31.99770998954773
1617991761.6075,8.641357,32.01333999633789
1617991761.62312,9.142883,32.02895998954773
1617991761.63875,9.470276,32.04458999633789
1617991761.65437,9.71936,32.06020998954773
1617991761.67,9.862549,32.07583999633789
1617991761.68562,9.900757,32.09145998954773
1617991761.70125,9.890503,32.10708999633789
1617991761.71688,9.85437,32.12272000312805
1617991761.7325,9.818848,32.13833999633789
1617991761.74813,9.756348,32.15397000312805
1617991761.76375,9.617004,32.16958999633789
1617991761.77938,9.365417,32.18522000312805
1617991761.795,9.031616,32.20083999633789
1617991761.81063,8.675842,32.21647000312805
1617991761.82626,8.421692,32.23210000991821
1617991761.84188,8.387695,32.24772000312805
1617991761.85751,8.587891,32.26335000991821
1617991761.87313,9.027649,32.27897000312805
1617991761.88876,9.648438,32.29460000991821
1617991761.90438,10.33228,32.31022000312805
1617991761.92001,10.88013,32.32585000991821
1617991761.93564,11.07831,32.341480016708374
1617991761.95126,10.74286,32.35710000991821
1617991761.96689,9.860474,32.372730016708374
1617991761.98251,8.606995,32.38835000991821
1617991761.99814,7.177612,32.403980016708374
1617991762.01376,5.833618,32.41960000991821
1617991762.02939,4.62439,32.435230016708374
1617991762.04502,3.477478,32.450860023498535
1617991762.06064,2.176941,32.466480016708374
1617991762.07627,0.5568848,32.482110023498535
1617991762.09189,-1.453552,32.497730016708374
1617991762.10752,-3.729431,32.513360023498535
1617991762.12314,-6.046936,32.528980016708374
1617991762.13877,-8.184326,32.544610023498535
1617991762.1544,-9.900146,32.560240030288696
1617991762.17002,-11.06915,32.575860023498535
1617991762.18565,-11.72308,32.591490030288696
1617991762.20127,-12.02344,32.607110023498535
1617991762.2169,-12.21661,32.622740030288696
1617991762.23252,-12.65546,32.638360023498535
1617991762.24815,-13.65826,32.653990030288696
1617991762.26378,-15.42914,32.66962003707886
1617991762.2794,-17.99585,32.685240030288696
1617991762.29503,-21.11066,32.70087003707886
1617991762.31065,-24.3031,32.716490030288696
1617991762.32628,-26.96539,32.73212003707886
1617991762.3419,-28.44293,32.747740030288696
1617991762.35753,-28.19928,32.76337003707886
1617991762.37316,-25.98828,32.77899980545044
1617991762.38878,-21.91357,32.79462003707886
1617991762.40441,-16.43298,32.81024980545044
1617991762.42003,-10.29498,32.82587003707886
1617991762.43566,-4.32959,32.84149980545044
1617991762.45128,0.7161255,32.85712003707886
1617991762.46691,4.336121,32.87274980545044
1617991762.48254,6.345215,32.8883798122406
1617991762.49816,6.892639,32.90399980545044
1617991762.51379,6.3255,32.9196298122406
1617991762.52941,5.145081,32.93524980545044
1617991762.54504,3.817963,32.9508798122406
1617991762.56066,2.658569,32.96649980545044
1617991762.57629,1.902222,32.9821298122406
1617991762.59192,1.558929,32.99775981903076
1617991762.60754,1.590332,33.0133798122406
1617991762.62317,1.882324,33.02900981903076
1617991762.63879,2.326538,33.0446298122406
1617991762.65442,2.779907,33.06025981903076
1617991762.67004,3.165009,33.0758798122406
1617991762.68567,3.459015,33.09150981903076
1617991762.7013,3.617493,33.10713982582092
1617991762.71692,3.744141,33.12275981903076
1617991762.73255,3.91391,33.13838982582092
1617991762.74817,4.254364,33.15400981903076
1617991762.7638,4.821106,33.16963982582092
1617991762.77942,5.624176,33.18525981903076
1617991762.79505,6.585846,33.20088982582092
1617991762.81068,7.563171,33.216519832611084
1617991762.8263,8.397217,33.23213982582092
1617991762.84193,8.910278,33.247769832611084
1617991762.85755,9.00943,33.26338982582092
1617991762.87318,8.573792,33.279019832611084
1617991762.8888,7.574707,33.29463982582092
1617991762.90443,5.941956,33.310269832611084
1617991762.92006,3.672546,33.325899839401245
1617991762.93568,0.8346558,33.341519832611084
1617991762.95131,-2.385468,33.357149839401245
1617991762.96693,-5.646942,33.372769832611084
1617991762.98256,-8.641388,33.388399839401245
1617991762.99818,-11.09424,33.404019832611084
1617991763.01381,-12.96423,33.419649839401245
1617991763.02944,-14.35016,33.435279846191406
1617991763.04506,-15.44,33.450899839401245
1617991763.06069,-16.49942,33.466529846191406
1617991763.07631,-17.66208,33.482149839401245
1617991763.09194,-19.02545,33.497779846191406
1617991763.10756,-20.61249,33.513399839401245
1617991763.12319,-22.40591,33.529029846191406
1617991763.13882,-24.25552,33.54465985298157
1617991763.15444,-25.88733,33.560279846191406
1617991763.17007,-26.88254,33.57590985298157
1617991763.18569,-26.74005,33.591529846191406
1617991763.20132,-25.15857,33.60715985298157
1617991763.21694,-22.08286,33.622779846191406
1617991763.23257,-17.88104,33.63840985298157
1617991763.2482,-13.13223,33.65403985977173
1617991763.26382,-8.533875,33.66965985298157
1617991763.27945,-4.596313,33.68528985977173
1617991763.29507,-1.548401,33.70090985298157
1617991763.3107,0.5767212,33.71653985977173
1617991763.32632,1.920166,33.73215985298157
1617991763.34195,2.589539,33.74778985977173
1617991763.35758,2.696411,33.76341986656189
1617991763.3732,2.267029,33.77903985977173
1617991763.38883,1.466309,33.79466986656189
1617991763.40445,0.4379883,33.81028985977173
1617991763.42008,-0.571228,33.82591986656189
1617991763.4357,-1.304413,33.84153985977173
1617991763.45133,-1.650452,33.85716986656189
1617991763.46696,-1.59726,33.87279987335205
1617991763.48258,-1.279327,33.88841986656189
1617991763.49821,-0.8881531,33.90404987335205
1617991763.51383,-0.6379395,33.91966986656189
1617991763.52946,-0.6449585,33.93529987335205
1617991763.54508,-0.9436951,33.95091986656189
1617991763.56071,-1.450073,33.96654987335205
1617991763.57634,-1.973083,33.98217988014221
1617991763.59196,-2.281219,33.99779987335205
1617991763.60759,-2.246185,34.01342988014221
1617991763.62321,-1.931793,34.02904987335205
1617991763.63884,-1.545044,34.04467988014221
1617991763.65446,-1.393219,34.06029987335205
1617991763.67009,-1.737762,34.07592988014221
1617991763.68572,-2.673859,34.09155988693237
1617991763.70134,-4.145142,34.10717988014221
1617991763.71697,-5.939911,34.12280988693237
1617991763.73259,-7.823792,34.13842988014221
1617991763.74822,-9.586639,34.15405988693237
1617991763.76384,-11.10675,34.16967988014221
1617991763.77947,-12.39899,34.18530988693237
1617991763.7951,-13.46173,34.200939893722534
1617991763.81072,-14.40433,34.21655988693237
1617991763.82635,-15.39679,34.232189893722534
1617991763.84197,-16.65689,34.24780988693237
1617991763.8576,-18.34402,34.263439893722534
1617991763.87322,-20.59406,34.27905988693237
1617991763.88885,-23.30078,34.294689893722534
1617991763.90448,-26.16629,34.310319900512695
1617991763.9201,-28.75961,34.325939893722534
1617991763.93573,-30.46231,34.341569900512695
1617991763.95135,-30.74475,34.357189893722534
1617991763.96698,-29.19684,34.372819900512695
1617991763.9826,-25.77252,34.388439893722534
1617991763.99823,-20.73523,34.404069900512695
1617991764.01386,-14.67029,34.419699907302856
1617991764.02948,-8.335175,34.435319900512695
1617991764.04511,-2.457367,34.450949907302856
1617991764.06073,2.319916,34.466569900512695
1617991764.07636,5.698975,34.482199907302856
1617991764.09199,7.639282,34.49782991409302
1617991764.10761,8.421722,34.513449907302856
1617991764.12324,8.454987,34.52907991409302
1617991764.13886,8.094727,34.544699907302856
1617991764.15449,7.548492,34.56032991409302
1617991764.17011,6.835358,34.575949907302856
1617991764.18574,5.91507,34.59157991409302
1617991764.20137,4.660858,34.60720992088318
1617991764.21699,3.169006,34.62282991409302
1617991764.23262,1.627686,34.63845992088318
1617991764.24824,0.3020325,34.65407991409302
1617991764.26387,-0.521759,34.66970992088318
1617991764.27949,-0.7922974,34.68532991409302
1617991764.29512,-0.5587463,34.70095992088318
1617991764.31075,0.0296936,34.71658992767334
1617991764.32637,0.8835449,34.73220992088318
1617991764.342,1.814575,34.74783992767334
1617991764.35762,2.728607,34.76345992088318
1617991764.37325,3.506577,34.77908992767334
1617991764.38887,4.04303,34.79470992088318
1617991764.4045,4.236816,34.81033992767334
1617991764.42013,3.980408,34.8259699344635
1617991764.43575,3.284241,34.84158992767334
1617991764.45138,2.137878,34.8572199344635
1617991764.467,0.65802,34.87283992767334
1617991764.48263,-1.061066,34.8884699344635
1617991764.49825,-2.887619,34.90408992767334
1617991764.51388,-4.660629,34.9197199344635
1617991764.52951,-6.226501,34.93534994125366
1617991764.54513,-7.441238,34.9509699344635
1617991764.56076,-8.323532,34.96659994125366
1617991764.57638,-8.969254,34.9822199344635
1617991764.59201,-9.549179,34.99784994125366
1617991764.60763,-10.30038,35.0134699344635
1617991764.62326,-11.38913,35.02909994125366
1617991764.63889,-12.87799,35.04472994804382
1617991764.65451,-14.69717,35.06034994125366
1617991764.67014,-16.60545,35.07597994804382
1617991764.68576,-18.10329,35.09159994125366
1617991764.70139,-18.60997,35.10722994804382
1617991764.71701,-17.53609,35.12284994125366
1617991764.73264,-14.48793,35.13847994804382
1617991764.74827,-9.454254,35.154109954833984
1617991764.76389,-2.759048,35.16972994804382
1617991764.77952,5.014786,35.185359954833984
1617991764.79514,13.20198,35.20097994804382
1617991764.81077,21.21461,35.216609954833984
1617991764.82639,28.65262,35.23222994804382
1617991764.84202,35.38376,35.247859954833984
1617991764.85765,41.41364,35.263489961624146
1617991764.87327,46.90115,35.279109954833984
1617991764.8889,52.12955,35.294739961624146
1617991764.90452,57.3895,35.310359954833984
1617991764.92015,62.90562,35.325989961624146
1617991764.93577,68.72493,35.341609954833984
1617991764.9514,74.70824,35.357239961624146
1617991764.96703,80.6331,35.37286996841431
1617991764.98265,86.37624,35.388489961624146
1617991764.99828,91.96985,35.40411996841431
1617991765.0139,97.65775,35.419739961624146
1617991765.02953,103.779,35.43536996841431
1617991765.04515,110.5919,35.450989961624146
1617991765.06078,118.216,35.46661996841431
1617991765.07641,126.4778,35.48224997520447
1617991765.09203,135.1013,35.49786996841431
1617991765.10766,143.7356,35.51349997520447
1617991765.12328,152.0793,35.52911996841431
1617991765.13891,159.8939,35.54474997520447
1617991765.15453,166.9676,35.56036996841431
1617991765.17016,173.1262,35.57599997520447
1617991765.18579,178.1136,35.59162998199463
1617991765.20141,181.6798,35.60724997520447
1617991765.21704,183.4558,35.62287998199463
1617991765.23266,182.9693,35.63849997520447
1617991765.24829,179.6633,35.65412998199463
1617991765.26391,172.9871,35.66974997520447
1617991765.27954,162.6987,35.68537998199463
1617991765.29517,149.1863,35.70100998878479
1617991765.31079,133.7008,35.71662998199463
1617991765.32642,118.176,35.73225998878479
1617991765.34204,104.8872,35.74787998199463
1617991765.35767,95.66984,35.76350998878479
1617991765.37329,91.269,35.77912998199463
1617991765.38892,91.03022,35.79475998878479
1617991765.40455,93.09171,35.81038999557495
1617991765.42017,95.08228,35.82600998878479
1617991765.4358,94.93187,35.84163999557495
1617991765.45142,91.49017,35.85725998878479
1617991765.46705,84.62099,35.87288999557495
1617991765.48267,74.9601,35.88850998878479
1617991765.4983,63.33078,35.90413999557495
1617991765.51393,50.23497,35.91977000236511
1617991765.52955,35.66623,35.93538999557495
1617991765.54518,19.20087,35.95102000236511
1617991765.5608,0.4335632,35.96663999557495
1617991765.57643,-20.67877,35.98227000236511
1617991765.59205,-43.64536,35.99788999557495
1617991765.60768,-67.61237,36.01352000236511
1617991765.62331,-91.74933,36.02915000915527
1617991765.63893,-115.6552,36.04477000236511
1617991765.65456,-139.5328,36.06040000915527
1617991765.67018,-163.9698,36.07602000236511
1617991765.68581,-189.5551,36.09165000915527
1617991765.70143,-216.179,36.10727000236511
1617991765.71706,-242.8418,36.12290000915527
1617991765.73269,-267.788,36.138530015945435
1617991765.74831,-289.1325,36.15415000915527
1617991765.76394,-305.5188,36.169780015945435
1617991765.77956,-316.759,36.18540000915527
1617991765.79519,-323.8422,36.201030015945435
1617991765.81081,-328.6091,36.21665000915527
1617991765.82644,-333.3077,36.232280015945435
1617991765.84207,-340.1644,36.247910022735596
1617991765.85769,-350.884,36.263530015945435
1617991765.87332,-365.9952,36.279160022735596
1617991765.88894,-384.1223,36.294780015945435
1617991765.90457,-401.495,36.310410022735596
1617991765.92019,-412.4117,36.326030015945435
1617991765.93582,-410.8428,36.341660022735596
1617991765.95145,-392.6776,36.35729002952576
1617991765.96707,-357.6264,36.372910022735596
1617991765.9827,-309.7359,36.38854002952576
1617991765.99832,-256.0197,36.404160022735596
1617991766.01395,-203.9192,36.41979002952576
1617991766.02957,-158.943,36.435410022735596
1617991766.0452,-123.4596,36.45104002952576
1617991766.06083,-97.19031,36.46667003631592
1617991766.07645,-78.53589,36.48229002952576
1617991766.09208,-65.86749,36.49792003631592
1617991766.1077,-57.94037,36.51354002952576
1617991766.12333,-53.44135,36.52917003631592
1617991766.13895,-50.40308,36.54479002952576
1617991766.15458,-45.97693,36.56042003631592
1617991766.17021,-36.92752,36.5760498046875
1617991766.18583,-20.53497,36.59167003631592
1617991766.20146,4.533569,36.6072998046875
1617991766.21708,37.52313,36.62292003631592
1617991766.23271,75.46591,36.6385498046875
1617991766.24834,113.656,36.65417981147766
1617991766.26396,146.7593,36.6697998046875
1617991766.27959,170.2571,36.68542981147766
1617991766.29521,181.7534,36.7010498046875
1617991766.31084,181.6002,36.71667981147766
1617991766.32646,172.5818,36.7322998046875
1617991766.34209,158.6337,36.74792981147766
1617991766.35772,143.2402,36.76355981826782
1617991766.37334,128.3583,36.77917981147766
1617991766.38897,114.378,36.79480981826782
1617991766.40459,100.8985,36.81042981147766
1617991766.42022,87.69034,36.82605981826782
1617991766.43584,75.18774,36.84167981147766
1617991766.45147,64.32462,36.85730981826782
1617991766.4671,55.81293,36.87293982505798
1617991766.48272,49.48889,36.88855981826782
1617991766.49835,44.24615,36.90418982505798
1617991766.51397,38.4689,36.91980981826782
1617991766.5296,30.92004,36.93543982505798
1617991766.54522,21.44363,36.95105981826782
1617991766.56085,11.09442,36.96668982505798
1617991766.57648,1.718414,36.982319831848145
1617991766.5921,-4.778381,36.99793982505798
1617991766.60773,-7.217957,37.013569831848145
1617991766.62335,-5.64624,37.02918982505798
1617991766.63898,-1.141418,37.044819831848145
1617991766.6546,4.677795,37.06043982505798
1617991766.67023,10.2334,37.076069831848145
1617991766.68586,14.57231,37.091699838638306
1617991766.70148,17.50366,37.107319831848145
1617991766.71711,19.32808,37.122949838638306
1617991766.73273,20.53981,37.138569831848145
1617991766.74836,21.49675,37.154199838638306
1617991766.76398,22.25902,37.169819831848145
1617991766.77961,22.65729,37.185449838638306
1617991766.79524,22.61101,37.20107984542847
1617991766.81086,22.03055,37.216699838638306
1617991766.82649,21.05666,37.23232984542847
1617991766.84211,19.95268,37.247949838638306
1617991766.85774,19.01904,37.26357984542847
1617991766.87336,18.50613,37.279199838638306
1617991766.88899,18.53749,37.29482984542847
1617991766.90462,19.07375,37.31045985221863
1617991766.92024,19.98607,37.32607984542847
1617991766.93587,21.16978,37.34170985221863
1617991766.95149,22.54312,37.35732984542847
1617991766.96712,24.17804,37.37295985221863
1617991766.98274,26.0789,37.38857984542847
1617991766.99837,28.22328,37.40420985221863
1617991767.014,30.4688,37.41983985900879
1617991767.02962,32.55823,37.43545985221863
1617991767.04525,34.18559,37.45108985900879
1617991767.06087,35.22063,37.46670985221863
1617991767.0765,35.61816,37.48233985900879
1617991767.09212,35.36539,37.49795985221863
1617991767.10775,34.63885,37.51358985900879
1617991767.12338,33.54501,37.52921986579895
1617991767.139,32.24402,37.54483985900879
1617991767.15463,30.946,37.56046986579895
1617991767.17025,29.81219,37.57608985900879
1617991767.18588,28.952,37.59171986579895
1617991767.2015,28.50254,37.60733985900879
1617991767.21713,28.51416,37.62296986579895
1617991767.23276,28.9232,37.63859987258911
1617991767.24838,29.67075,37.65421986579895
1617991767.26401,30.63725,37.66984987258911
1617991767.27963,31.61357,37.68546986579895
1617991767.29526,32.48126,37.70109987258911
1617991767.31088,33.07113,37.71671986579895
1617991767.32651,33.201,37.73234987258911
1617991767.34214,32.80714,37.74797987937927
1617991767.35776,31.8419,37.76359987258911
1617991767.37339,30.20694,37.77922987937927
1617991767.38901,27.91849,37.79484987258911
1617991767.40464,25.09843,37.81047987937927
1617991767.42026,22.03465,37.82609987258911
1617991767.43589,19.18989,37.84172987937927
1617991767.45152,17.08443,37.857359886169434
1617991767.46714,16.12997,37.87297987937927
1617991767.48277,16.49423,37.888609886169434
1617991767.49839,18.04436,37.90422987937927
1617991767.51402,20.32056,37.919859886169434
1617991767.52964,22.76101,37.93547987937927
1617991767.54527,24.7254,37.951109886169434
1617991767.5609,25.66039,37.966739892959595
1617991767.57652,25.20704,37.982359886169434
1617991767.59215,23.16644,37.997989892959595
1617991767.60777,19.66345,38.013609886169434
1617991767.6234,14.95313,38.029239892959595
1617991767.63902,9.413879,38.044859886169434
1617991767.65465,3.437195,38.060489892959595
1617991767.67028,-2.64579,38.076119899749756
1617991767.6859,-8.574074,38.091739892959595
1617991767.70153,-14.04887,38.107369899749756
1617991767.71715,-18.74426,38.122989892959595
1617991767.73278,-22.39156,38.138619899749756
1617991767.7484,-24.73707,38.154239892959595
1617991767.76403,-25.71825,38.169869899749756
1617991767.77966,-25.47224,38.18549990653992
1617991767.79528,-24.27106,38.201119899749756
1617991767.81091,-22.42513,38.21674990653992
1617991767.82653,-20.23245,38.232369899749756
1617991767.84216,-17.85413,38.24799990653992
1617991767.85778,-15.41474,38.263619899749756
1617991767.87341,-13.01264,38.27924990653992
1617991767.88904,-10.74711,38.29487991333008
1617991767.90466,-8.701653,38.31049990653992
1617991767.92029,-6.956337,38.32612991333008
1617991767.93591,-5.55954,38.34174990653992
1617991767.95154,-4.591583,38.35737991333008
1617991767.96716,-4.111252,38.37299990653992
1617991767.98279,-4.137375,38.38862991333008
1617991767.99842,-4.7052,38.40425992012024
1617991768.01404,-5.782318,38.41987991333008
1617991768.02967,-7.311829,38.43550992012024
1617991768.04529,-9.200287,38.45112991333008
1617991768.06092,-11.32632,38.46675992012024
1617991768.07654,-13.56425,38.48237991333008
1617991768.09217,-15.88974,38.49800992012024
1617991768.1078,-18.26762,38.5136399269104
1617991768.12342,-20.74701,38.52925992012024
1617991768.13905,-23.40604,38.5448899269104
1617991768.15467,-26.21477,38.56050992012024
1617991768.1703,-28.95682,38.5761399269104
1617991768.18592,-31.3127,38.59175992012024
1617991768.20155,-32.76059,38.6073899269104
1617991768.21718,-32.74706,38.62301993370056
1617991768.2328,-30.87199,38.6386399269104
1617991768.24843,-27.03357,38.65426993370056
1617991768.26405,-21.42943,38.6698899269104
1617991768.27968,-14.62732,38.68551993370056
1617991768.2953,-7.36351,38.7011399269104
1617991768.31093,-0.3829498,38.71676993370056
1617991768.32656,5.654388,38.73239994049072
1617991768.34218,10.39198,38.74801993370056
1617991768.35781,13.73485,38.76364994049072
1617991768.37343,15.78549,38.77926993370056
1617991768.38906,16.6823,38.79489994049072
1617991768.40468,16.67912,38.81051993370056
1617991768.42031,15.97206,38.82614994049072
1617991768.43594,14.91881,38.841779947280884
1617991768.45156,13.84058,38.85739994049072
1617991768.46719,13.05398,38.873029947280884
1617991768.48281,12.78717,38.88864994049072
1617991768.49844,13.08304,38.904279947280884
1617991768.51407,13.78538,38.919909954071045
1617991768.52969,14.60147,38.935529947280884
1617991768.54532,15.27116,38.951159954071045
1617991768.56094,15.61012,38.966779947280884
1617991768.57657,15.67133,38.982409954071045
1617991768.59219,15.54758,38.998029947280884
1617991768.60782,15.33068,39.013659954071045
1617991768.62345,15.12223,39.029289960861206
1617991768.63907,14.90665,39.044909954071045
1617991768.6547,14.62083,39.060539960861206
1617991768.67032,14.25967,39.076159954071045
1617991768.68595,13.80164,39.091789960861206
1617991768.70157,13.17353,39.107409954071045
1617991768.7172,12.29544,39.123039960861206
1617991768.73283,11.00607,39.13866996765137
1617991768.74845,9.105713,39.154289960861206
1617991768.76408,6.558388,39.16991996765137
1617991768.7797,3.489609,39.185539960861206
1617991768.79533,0.1868515,39.20116996765137
1617991768.81095,-2.983955,39.216789960861206
1617991768.82658,-5.745117,39.23241996765137
1617991768.84221,-8.034828,39.24804997444153
1617991768.85783,-9.987404,39.26366996765137
1617991768.87346,-11.79166,39.27929997444153
1617991768.88908,-13.70904,39.29491996765137
1617991768.90471,-15.85424,39.31054997444153
1617991768.92033,-18.16371,39.32616996765137
1617991768.93596,-20.38693,39.34179997444153
1617991768.95159,-22.16856,39.35742998123169
1617991768.96721,-23.05621,39.37304997444153
1617991768.98284,-22.64793,39.38867998123169
1617991768.99846,-20.72223,39.40429997444153
1617991769.01409,-17.2647,39.41992998123169
1617991769.02971,-12.58307,39.43554997444153
1617991769.04534,-7.225449,39.45117998123169
1617991769.06097,-1.784882,39.46680998802185
1617991769.07659,3.179588,39.48242998123169
1617991769.09222,7.325478,39.49805998802185
1617991769.10784,10.46091,39.51367998123169
1617991769.12347,12.56374,39.52930998802185
1617991769.13909,13.71796,39.54492998123169
1617991769.15472,14.05525,39.56055998802185
1617991769.17035,13.78158,39.57618999481201
1617991769.18597,13.16664,39.59180998802185
1617991769.2016,12.48713,39.60743999481201
1617991769.21722,11.90324,39.62305998802185
1617991769.23285,11.55075,39.63868999481201
1617991769.24847,11.38951,39.65430998802185
1617991769.2641,11.36798,39.66993999481201
1617991769.27973,11.44077,39.68557000160217
1617991769.29535,11.64758,39.70118999481201
1617991769.31098,12.03325,39.71682000160217
1617991769.3266,12.64745,39.73243999481201
1617991769.34223,13.42588,39.74807000160217
1617991769.35785,14.19485,39.76368999481201
1617991769.37348,14.80325,39.77932000160217
1617991769.38911,15.15164,39.794950008392334
1617991769.40473,15.19669,39.81057000160217
1617991769.42036,14.95368,39.826200008392334
1617991769.43598,14.4393,39.84182000160217
1617991769.45161,13.66788,39.857450008392334
1617991769.46723,12.60654,39.87307000160217
1617991769.48286,11.25208,39.888700008392334
1617991769.49849,9.672363,39.904330015182495
1617991769.51411,7.990738,39.919950008392334
1617991769.52974,6.377441,39.935580015182495
1617991769.54536,4.912354,39.951200008392334
1617991769.56099,3.627579,39.966830015182495
1617991769.57661,2.422241,39.982450008392334
1617991769.59224,1.17514,39.998080015182495
1617991769.60787,-0.208374,40.013710021972656
1617991769.62349,-1.806931,40.029330015182495
1617991769.63912,-3.548843,40.044960021972656
1617991769.65474,-5.347397,40.060580015182495
1617991769.67037,-7.067474,40.076210021972656
1617991769.68599,-8.68512,40.091830015182495
1617991769.70162,-10.20074,40.107460021972656
1617991769.71725,-11.76363,40.12309002876282
1617991769.73287,-13.51566,40.138710021972656
1617991769.7485,-15.48787,40.15434002876282
1617991769.76412,-17.50812,40.169960021972656
1617991769.77975,-19.19856,40.18559002876282
1617991769.79537,-20.03642,40.201210021972656
1617991769.811,-19.55157,40.21684002876282
1617991769.82663,-17.49225,40.23247003555298
1617991769.84225,-13.9059,40.24809002876282
1617991769.85788,-9.179108,40.26372003555298
1617991769.8735,-3.905914,40.27934002876282
1617991769.88913,1.239014,40.29497003555298
1617991769.90475,5.676086,40.31059002876282
1617991769.92038,9.017075,40.32622003555298
1617991769.93601,11.04895,40.34184980392456
1617991769.95163,11.80708,40.35747003555298
1617991769.96726,11.53299,40.37309980392456
1617991769.98288,10.5748,40.38872003555298
1617991769.99851,9.361099,40.40434980392456
1617991770.01413,8.263153,40.41997003555298
1617991770.02976,7.513519,40.43559980392456
1617991770.04539,7.170975,40.45122981071472
1617991770.06101,7.181061,40.46684980392456
1617991770.07664,7.439011,40.48247981071472
1617991770.09226,7.841232,40.49809980392456
1617991770.10789,8.371613,40.51372981071472
1617991770.12351,8.913925,40.52934980392456
1617991770.13914,9.424149,40.54497981071472
1617991770.15477,9.83844,40.56060981750488
1617991770.17039,10.16968,40.57622981071472
1617991770.18602,10.50215,40.59185981750488
1617991770.20164,10.96198,40.60747981071472
1617991770.21727,11.67393,40.62310981750488
1617991770.23289,12.61411,40.63872981071472
1617991770.24852,13.59514,40.65435981750488
1617991770.26415,14.32185,40.669989824295044
1617991770.27977,14.51909,40.68560981750488
1617991770.2954,14.00905,40.701239824295044
1617991770.31102,12.88527,40.71685981750488
1617991770.32665,11.38554,40.732489824295044
1617991770.34227,9.810135,40.74810981750488
1617991770.3579,8.372253,40.763739824295044
1617991770.37353,7.171112,40.779369831085205
1617991770.38915,6.11705,40.794989824295044
1617991770.40478,5.06749,40.810619831085205
1617991770.4204,3.974228,40.826239824295044
1617991770.43603,2.857697,40.841869831085205
1617991770.45165,1.865326,40.857489824295044
1617991770.46728,1.166092,40.873119831085205
1617991770.48291,0.8560944,40.888749837875366
1617991770.49853,0.8555145,40.904369831085205
1617991770.51416,1.010193,40.919999837875366
1617991770.52978,1.065979,40.935619831085205
1617991770.54541,0.8104858,40.951249837875366
1617991770.56103,0.2328644,40.966869831085205
1617991770.57666,-0.5265808,40.982499837875366
1617991770.59229,-1.170959,40.99812984466553
1617991770.60791,-1.196701,41.013749837875366
1617991770.62354,-0.1497345,41.02937984466553
1617991770.63916,2.319702,41.044999837875366
1617991770.65479,6.301285,41.06062984466553
1617991770.67041,11.63368,41.076249837875366
1617991770.68604,17.91934,41.09187984466553
1617991770.70167,24.77008,41.10750985145569
1617991770.71729,31.8726,41.12312984466553
1617991770.73292,39.04671,41.13875985145569
1617991770.74854,46.27356,41.15437984466553
1617991770.76417,53.50125,41.17000985145569
1617991770.77979,60.60828,41.18562984466553
1617991770.79542,67.33859,41.20125985145569
1617991770.81105,73.43652,41.21688985824585
1617991770.82667,78.75534,41.23250985145569
1617991770.8423,83.4213,41.24813985824585
1617991770.85792,87.86465,41.26375985145569
1617991770.87355,92.70773,41.27938985824585
1617991770.88917,98.50726,41.29500985145569
1617991770.9048,105.5475,41.31063985824585
1617991770.92043,113.6485,41.32626986503601
1617991770.93605,122.2451,41.34188985824585
1617991770.95168,130.6345,41.35751986503601
1617991770.9673,138.3062,41.37313985824585
1617991770.98293,145.1297,41.38876986503601
1617991770.99855,151.3951,41.40438985824585
1617991771.01418,157.6873,41.42001986503601
1617991771.02981,164.4895,41.43564987182617
1617991771.04543,171.9962,41.45126986503601
1617991771.06106,179.9754,41.46689987182617
1617991771.07668,187.7189,41.48251986503601
1617991771.09231,193.9612,41.49814987182617
1617991771.10793,197.0019,41.51376986503601
1617991771.12356,194.7396,41.52939987182617
1617991771.13919,185.2794,41.54502987861633
1617991771.15481,167.6349,41.56064987182617
1617991771.17044,142.5351,41.57627987861633
1617991771.18606,112.7153,41.59189987182617
1617991771.20169,82.40918,41.60752987861633
1617991771.21732,56.11328,41.623159885406494
1617991771.23294,36.94684,41.63877987861633
