timestamp,value,norm_ts
1618853583.70688,-91.02728,0.32488012313842773
1618853583.7225,-92.02777,0.3405001163482666
1618853583.73813,-92.09314,0.35613012313842773
1618853583.75375,-91.41345,0.3717501163482666
1618853583.76938,-90.52661,0.38738012313842773
1618853583.785,-90.17365,0.4030001163482666
1618853583.80063,-90.98596,0.41863012313842773
1618853583.81626,-93.15442,0.43426012992858887
1618853583.83188,-96.22913,0.44988012313842773
1618853583.84751,-99.26764,0.46551012992858887
1618853583.86313,-101.1727,0.48113012313842773
1618853583.87876,-101.2505,0.49676012992858887
1618853583.89438,-99.57153,0.5123801231384277
1618853583.91001,-96.99048,0.5280101299285889
1618853583.92564,-94.76337,0.54364013671875
1618853583.94126,-93.87177,0.5592601299285889
1618853583.95689,-94.47931,0.57489013671875
1618853583.97251,-95.85675,0.5905101299285889
1618853583.98814,-96.79053,0.60614013671875
1618853584.00376,-96.51294,0.6217601299285889
1618853584.01939,-95.50134,0.63739013671875
1618853584.03502,-95.86682,0.6530201435089111
1618853584.05064,-100.8632,0.66864013671875
1618853584.06627,-113.9834,0.6842701435089111
1618853584.08189,-137.4303,0.69989013671875
1618853584.09752,-170.8955,0.7155201435089111
1618853584.11314,-210.8607,0.73114013671875
1618853584.12877,-250.8011,0.7467701435089111
1618853584.1444,-282.2883,0.7623999118804932
1618853584.16002,-296.9601,0.7780201435089111
1618853584.17565,-288.913,0.7936499118804932
1618853584.19127,-256.7842,0.8092701435089111
1618853584.2069,-204.7542,0.8248999118804932
1618853584.22253,-141.8104,0.8405299186706543
1618853584.23815,-79.39587,0.8561499118804932
1618853584.25378,-28.09827,0.8717799186706543
1618853584.2694,5.271973,0.8873999118804932
1618853584.28503,19.10681,0.9030299186706543
1618853584.30065,16.30481,0.9186499118804932
1618853584.31628,2.108643,0.9342799186706543
1618853584.33191,-18.44055,0.9499099254608154
1618853584.34753,-42.17285,0.9655299186706543
1618853584.36316,-67.81982,0.9811599254608154
1618853584.37878,-95.05872,0.9967799186706543
1618853584.39441,-123.2294,1.0124099254608154
1618853584.41003,-150.6179,1.0280299186706543
1618853584.42566,-174.6907,1.0436599254608154
1618853584.44129,-192.8118,1.0592899322509766
1618853584.45691,-202.8613,1.0749099254608154
1618853584.47254,-203.4131,1.0905399322509766
1618853584.48816,-193.5522,1.1061599254608154
1618853584.50379,-172.9492,1.1217899322509766
1618853584.51941,-142.4009,1.1374099254608154
1618853584.53504,-104.4965,1.1530399322509766
1618853584.55067,-63.77649,1.1686699390411377
1618853584.56629,-26.09418,1.1842899322509766
1618853584.58192,3.051086,1.1999199390411377
1618853584.59754,20.31183,1.2155399322509766
1618853584.61317,25.61298,1.2311699390411377
1618853584.62879,21.87097,1.2467899322509766
1618853584.64442,13.66998,1.2624199390411377
1618853584.66005,5.448425,1.2780499458312988
1618853584.67567,0.1810913,1.2936699390411377
1618853584.6913,-1.034119,1.3092999458312988
1618853584.70692,1.463501,1.3249199390411377
1618853584.72255,6.644043,1.3405499458312988
1618853584.73817,13.43195,1.3561699390411377
1618853584.7538,20.93396,1.3717999458312988
1618853584.76943,28.40039,1.38742995262146
1618853584.78505,35.14539,1.4030499458312988
1618853584.80068,40.60333,1.41867995262146
1618853584.8163,44.54504,1.4342999458312988
1618853584.83193,47.18799,1.44992995262146
1618853584.84755,49.10345,1.4655499458312988
1618853584.86318,50.96082,1.48117995262146
1618853584.87881,53.086,1.496809959411621
1618853584.89443,55.18134,1.51242995262146
1618853584.91006,56.31482,1.528059959411621
1618853584.92568,55.31165,1.54367995262146
1618853584.94131,51.22876,1.559309959411621
1618853584.95693,43.84668,1.57492995262146
1618853584.97256,33.7782,1.590559959411621
1618853584.98819,22.1972,1.6061899662017822
1618853585.00381,10.38281,1.621809959411621
1618853585.01944,-0.7689209,1.6374399662017822
1618853585.03506,-10.94861,1.653059959411621
1618853585.05069,-20.27344,1.6686899662017822
1618853585.06631,-28.88739,1.684309959411621
1618853585.08194,-36.53073,1.6999399662017822
1618853585.09757,-42.30902,1.7155699729919434
1618853585.11319,-44.85669,1.7311899662017822
1618853585.12882,-42.80722,1.7468199729919434
1618853585.14444,-35.3699,1.7624399662017822
1618853585.16007,-22.77313,1.7780699729919434
1618853585.17569,-6.279053,1.7936899662017822
1618853585.19132,12.03595,1.8093199729919434
1618853585.20695,29.93088,1.8249499797821045
1618853585.22257,45.4614,1.8405699729919434
1618853585.2382,57.38043,1.8561999797821045
1618853585.25382,65.18921,1.8718199729919434
1618853585.26945,69.01611,1.8874499797821045
1618853585.28507,69.35715,1.9030699729919434
1618853585.3007,66.87253,1.9186999797821045
1618853585.31633,62.29274,1.9343299865722656
1618853585.33195,56.37936,1.9499499797821045
1618853585.34758,49.93666,1.9655799865722656
1618853585.3632,43.71198,1.9811999797821045
1618853585.37883,38.3336,1.9968299865722656
1618853585.39445,34.19937,2.0124499797821045
1618853585.41008,31.45299,2.0280799865722656
1618853585.42571,30.04137,2.0437099933624268
1618853585.44133,29.70979,2.0593299865722656
1618853585.45696,30.05275,2.0749599933624268
1618853585.47258,30.54796,2.0905799865722656
1618853585.48821,30.653,2.1062099933624268
1618853585.50383,29.86932,2.1218299865722656
1618853585.51946,27.92953,2.1374599933624268
1618853585.53509,24.81084,2.153090000152588
1618853585.55071,20.73248,2.1687099933624268
1618853585.56634,15.96626,2.184340000152588
1618853585.58196,10.65823,2.1999599933624268
1618853585.59759,4.763908,2.215590000152588
1618853585.61321,-1.911362,2.2312099933624268
1618853585.62884,-9.591469,2.246840000152588
1618853585.64447,-18.37886,2.262470006942749
1618853585.66009,-28.16361,2.278090000152588
1618853585.67572,-38.59312,2.293720006942749
1618853585.69134,-49.05387,2.309340000152588
1618853585.70697,-58.57706,2.324970006942749
1618853585.72259,-65.87022,2.340590000152588
1618853585.73822,-69.45128,2.356220006942749
1618853585.75385,-68.03534,2.37185001373291
1618853585.76947,-61.00068,2.387470006942749
1618853585.7851,-48.72277,2.40310001373291
1618853585.80072,-32.50888,2.418720006942749
1618853585.81635,-14.23653,2.43435001373291
1618853585.83197,4.238693,2.449970006942749
1618853585.8476,21.54596,2.46560001373291
1618853585.86323,36.9329,2.4812300205230713
1618853585.87885,50.1116,2.49685001373291
1618853585.89448,60.90862,2.5124800205230713
1618853585.9101,69.09581,2.52810001373291
1618853585.92573,74.3856,2.5437300205230713
1618853585.94135,76.63269,2.55935001373291
1618853585.95698,76.02167,2.5749800205230713
1618853585.97261,73.14682,2.5906100273132324
1618853585.98823,68.86053,2.6062300205230713
1618853586.00386,64.03831,2.6218600273132324
1618853586.01948,59.3689,2.6374800205230713
1618853586.03511,55.21477,2.6531100273132324
1618853586.05073,51.7117,2.6687300205230713
1618853586.06636,48.87488,2.6843600273132324
1618853586.08199,46.67896,2.6999900341033936
1618853586.09761,45.13911,2.7156100273132324
1618853586.11324,44.21643,2.7312400341033936
1618853586.12886,43.75793,2.7468600273132324
1618853586.14449,43.40506,2.7624900341033936
1618853586.16011,42.64737,2.7781100273132324
1618853586.17574,40.95605,2.7937400341033936
1618853586.19137,37.9592,2.8093700408935547
1618853586.20699,33.59955,2.8249900341033936
1618853586.22262,28.10748,2.8406200408935547
1618853586.23824,21.89542,2.8562400341033936
1618853586.25387,15.32687,2.8718700408935547
1618853586.26949,8.540802,2.8874900341033936
1618853586.28512,1.364563,2.9031200408935547
1618853586.30075,-6.607391,2.918750047683716
1618853586.31637,-15.83981,2.9343700408935547
1618853586.332,-26.55014,2.950000047683716
1618853586.34762,-38.4339,2.9656200408935547
1618853586.36325,-50.4707,2.981250047683716
1618853586.37887,-60.97955,2.9968700408935547
1618853586.3945,-67.9357,3.012500047683716
1618853586.41013,-69.48529,3.028130054473877
1618853586.42575,-64.47565,3.043750047683716
1618853586.44138,-52.87012,3.059380054473877
1618853586.457,-35.77344,3.075000047683716
1618853586.47263,-15.14221,3.090630054473877
1618853586.48826,6.707031,3.106260061264038
1618853586.50388,27.6091,3.121880054473877
1618853586.51951,45.94171,3.137510061264038
1618853586.53513,60.69998,3.153130054473877
1618853586.55076,71.45297,3.168760061264038
1618853586.56638,78.22571,3.184380054473877
1618853586.58201,81.34048,3.200010061264038
1618853586.59764,81.36105,3.215640068054199
1618853586.61326,79.0148,3.231260061264038
1618853586.62889,75.11536,3.246890068054199
1618853586.64451,70.48138,3.262510061264038
1618853586.66014,65.84381,3.278140068054199
1618853586.67576,61.72729,3.293760061264038
1618853586.69139,58.4187,3.309390068054199
1618853586.70702,55.98383,3.3250200748443604
1618853586.72264,54.289,3.340640068054199
1618853586.73827,53.14996,3.3562700748443604
1618853586.75389,52.4021,3.371890068054199
1618853586.76952,51.91888,3.3875200748443604
1618853586.78514,51.57648,3.403140068054199
1618853586.80077,51.1908,3.4187700748443604
1618853586.8164,50.44861,3.4344000816345215
1618853586.83202,48.95898,3.4500200748443604
1618853586.84765,46.35876,3.4656500816345215
1618853586.86327,42.44354,3.4812700748443604
1618853586.8789,37.25897,3.4969000816345215
1618853586.89452,31.11322,3.5125200748443604
1618853586.91015,24.42902,3.5281500816345215
1618853586.92578,17.63239,3.5437800884246826
1618853586.9414,10.97681,3.5594000816345215
1618853586.95703,4.442993,3.5750300884246826
1618853586.97265,-2.222168,3.5906500816345215
1618853586.98828,-9.417175,3.6062800884246826
1618853587.0039,-17.47791,3.6219000816345215
1618853587.01953,-26.38342,3.6375300884246826
1618853587.03516,-35.50067,3.6531600952148438
1618853587.05078,-43.52509,3.6687800884246826
1618853587.06641,-48.64886,3.6844100952148438
1618853587.08203,-49.00909,3.7000300884246826
1618853587.09766,-43.28656,3.7156600952148438
1618853587.11328,-31.15387,3.7312800884246826
1618853587.12891,-13.45728,3.7469100952148438
1618853587.14454,7.956787,3.762540102005005
1618853587.16016,30.71558,3.7781600952148438
1618853587.17579,52.48822,3.793790102005005
1618853587.19141,71.40179,3.8094100952148438
1618853587.20704,86.30524,3.825040102005005
1618853587.22266,96.72974,3.8406600952148438
1618853587.23829,102.7545,3.856290102005005
1618853587.25392,104.8205,3.871920108795166
1618853587.26954,103.6151,3.887540102005005
1618853587.28517,99.95844,3.903170108795166
1618853587.30079,94.77435,3.918790102005005
1618853587.31642,88.99188,3.934420108795166
1618853587.33204,83.42859,3.950040102005005
1618853587.34767,78.66748,3.965670108795166
1618853587.3633,74.95459,3.981300115585327
1618853587.37892,72.15869,3.996920108795166
1618853587.39455,69.88574,4.012550115585327
1618853587.41017,67.65076,4.028170108795166
1618853587.4258,65.0863,4.043800115585327
1618853587.44142,62.03723,4.059420108795166
1618853587.45705,58.49713,4.075050115585327
1618853587.47268,54.39868,4.090680122375488
1618853587.4883,49.42883,4.106300115585327
1618853587.50393,43.01849,4.121930122375488
1618853587.51955,34.50812,4.137550115585327
1618853587.53518,23.44116,4.153180122375488
1618853587.5508,9.806763,4.168800115585327
1618853587.56643,-5.858704,4.184430122375488
1618853587.58206,-22.63269,4.200060129165649
1618853587.59768,-39.42896,4.215680122375488
1618853587.61331,-55.31512,4.231310129165649
1618853587.62893,-69.72327,4.246930122375488
1618853587.64456,-82.52112,4.262560129165649
1618853587.66018,-93.99207,4.278180122375488
1618853587.67581,-104.6425,4.293810129165649
1618853587.69144,-114.9415,4.3094401359558105
1618853587.70706,-124.9587,4.325060129165649
1618853587.72269,-134.1508,4.3406901359558105
1618853587.73831,-141.2667,4.356310129165649
1618853587.75394,-144.5974,4.3719401359558105
1618853587.76956,-142.4147,4.387560129165649
1618853587.78519,-133.5522,4.4031901359558105
1618853587.80082,-117.8109,4.418820142745972
1618853587.81644,-96.09631,4.4344401359558105
1618853587.83207,-70.23901,4.450070142745972
1618853587.84769,-42.57025,4.4656901359558105
1618853587.86332,-15.47656,4.481320142745972
1618853587.87894,9.019287,4.4969401359558105
1618853587.89457,29.4585,4.512570142745972
1618853587.9102,45.04681,4.528200149536133
1618853587.92582,55.56732,4.543820142745972
1618853587.94145,61.29425,4.559450149536133
1618853587.95707,62.87854,4.575070142745972
1618853587.9727,61.24896,4.590700149536133
1618853587.98832,57.55707,4.606320142745972
1618853588.00395,53.01947,4.621950149536133
1618853588.01958,48.67902,4.637579917907715
1618853588.0352,45.18292,4.653200149536133
1618853588.05083,42.59778,4.668829917907715
1618853588.06645,40.54016,4.684450149536133
1618853588.08208,38.39471,4.700079917907715
1618853588.0977,35.70721,4.715700149536133
1618853588.11333,32.41736,4.731329917907715
1618853588.12896,28.83917,4.746959924697876
1618853588.14458,25.45233,4.762579917907715
1618853588.16021,22.53815,4.778209924697876
1618853588.17583,19.91699,4.793829917907715
1618853588.19146,16.93573,4.809459924697876
1618853588.20708,12.73932,4.825079917907715
1618853588.22271,6.632019,4.840709924697876
1618853588.23834,-1.563171,4.856339931488037
1618853588.25396,-11.41388,4.871959924697876
1618853588.26959,-22.00781,4.887589931488037
1618853588.28521,-32.30896,4.903209924697876
1618853588.30084,-41.46307,4.918839931488037
1618853588.31646,-49.03564,4.934459924697876
1618853588.33209,-55.00763,4.950089931488037
1618853588.34772,-59.64423,4.965719938278198
1618853588.36334,-63.3476,4.981339931488037
1618853588.37897,-66.49915,4.996969938278198
1618853588.39459,-69.41638,5.012589931488037
1618853588.41022,-72.36005,5.028219938278198
1618853588.42584,-75.45386,5.043839931488037
1618853588.44147,-78.48883,5.059469938278198
1618853588.4571,-80.72534,5.075099945068359
1618853588.47272,-80.86713,5.090719938278198
1618853588.48835,-77.31427,5.106349945068359
1618853588.50397,-68.69855,5.121969938278198
1618853588.5196,-54.48822,5.137599945068359
1618853588.53522,-35.30096,5.153219938278198
1618853588.55085,-12.89874,5.168849945068359
1618853588.56648,10.36395,5.1844799518585205
1618853588.5821,32.19934,5.200099945068359
1618853588.59773,50.99835,5.2157299518585205
1618853588.61335,66.10638,5.231349945068359
1618853588.62898,77.61755,5.2469799518585205
1618853588.6446,85.992,5.262599945068359
1618853588.66023,91.66278,5.2782299518585205
1618853588.67586,94.8183,5.293859958648682
1618853588.69148,95.49615,5.3094799518585205
1618853588.70711,93.81903,5.325109958648682
1618853588.72273,90.20154,5.3407299518585205
1618853588.73836,85.34479,5.356359958648682
1618853588.75398,80.09351,5.3719799518585205
1618853588.76961,75.19659,5.387609958648682
1618853588.78524,71.039,5.403239965438843
1618853588.80086,67.62299,5.418859958648682
1618853588.81649,64.63751,5.434489965438843
1618853588.83211,61.6933,5.450109958648682
1618853588.84774,58.534,5.465739965438843
1618853588.86336,55.14294,5.481359958648682
1618853588.87899,51.70496,5.496989965438843
1618853588.89462,48.49756,5.512619972229004
1618853588.91024,45.7049,5.528239965438843
1618853588.92587,43.32141,5.543869972229004
1618853588.94149,41.12567,5.559489965438843
1618853588.95712,38.75342,5.575119972229004
1618853588.97274,35.77936,5.590739965438843
1618853588.98837,31.88971,5.606369972229004
1618853589.004,26.97888,5.621999979019165
1618853589.01962,21.17267,5.637619972229004
1618853589.03525,14.81989,5.653249979019165
1618853589.05087,8.357544,5.668869972229004
1618853589.0665,2.19751,5.684499979019165
1618853589.08213,-3.453674,5.700129985809326
1618853589.09775,-8.689392,5.715749979019165
1618853589.11338,-13.89655,5.731379985809326
1618853589.129,-19.63293,5.746999979019165
1618853589.14463,-26.44373,5.762629985809326
1618853589.16025,-34.60553,5.778249979019165
1618853589.17588,-43.91547,5.793879985809326
1618853589.19151,-53.57281,5.809509992599487
1618853589.20713,-62.2243,5.825129985809326
1618853589.22276,-68.16913,5.840759992599487
1618853589.23838,-69.77472,5.856379985809326
1618853589.25401,-65.96399,5.872009992599487
1618853589.26963,-56.50854,5.887629985809326
1618853589.28526,-42.19391,5.903259992599487
1618853589.30089,-24.58868,5.918889999389648
1618853589.31651,-5.644409,5.934509992599487
1618853589.33214,12.77808,5.950139999389648
1618853589.34776,29.25366,5.965759992599487
1618853589.36339,42.93243,5.981389999389648
1618853589.37901,53.47943,5.997009992599487
1618853589.39464,60.86951,6.012639999389648
1618853589.41027,65.26654,6.02827000617981
1618853589.42589,66.94202,6.043889999389648
1618853589.44152,66.32916,6.05952000617981
1618853589.45714,64.08838,6.075139999389648
1618853589.47277,61.09125,6.09077000617981
1618853589.48839,58.34497,6.106389999389648
1618853589.50402,56.76935,6.12202000617981
1618853589.51965,57.01666,6.137650012969971
1618853589.53527,59.27698,6.15327000617981
1618853589.5509,63.25214,6.168900012969971
1618853589.56652,68.23578,6.18452000617981
1618853589.58215,73.39825,6.200150012969971
1618853589.59777,78.11526,6.21577000617981
1618853589.6134,82.23434,6.231400012969971
1618853589.62903,86.11697,6.247030019760132
1618853589.64465,90.4353,6.262650012969971
1618853589.66028,95.76935,6.278280019760132
1618853589.6759,102.0847,6.293900012969971
1618853589.69153,108.456,6.309530019760132
1618853589.70715,113.0771,6.325150012969971
1618853589.72278,113.6968,6.340780019760132
1618853589.73841,108.3083,6.356410026550293
1618853589.75403,95.82541,6.372030019760132
1618853589.76966,76.50897,6.387660026550293
1618853589.78528,51.95621,6.403280019760132
1618853589.80091,24.66977,6.418910026550293
1618853589.81653,-2.55835,6.434530019760132
1618853589.83216,-27.35886,6.450160026550293
1618853589.84779,-48.33228,6.465790033340454
1618853589.86341,-65.28476,6.481410026550293
1618853589.87904,-79.13608,6.497040033340454
1618853589.89466,-91.53229,6.512660026550293
1618853589.91029,-104.212,6.528290033340454
1618853589.92591,-118.4163,6.543910026550293
1618853589.94154,-134.3829,6.559540033340454
1618853589.95717,-151.1529,6.575170040130615
1618853589.97279,-166.7483,6.590790033340454
1618853589.98842,-178.5852,6.606420040130615
1618853590.00404,-184.1654,6.622040033340454
1618853590.01967,-181.6854,6.637670040130615
1618853590.03529,-170.5374,6.653290033340454
1618853590.05092,-151.4507,6.668920040130615
1618853590.06655,-126.3041,6.684550046920776
1618853590.08217,-97.61057,6.700170040130615
1618853590.0978,-67.93828,6.715800046920776
1618853590.11342,-39.45268,6.731420040130615
1618853590.12905,-13.74237,6.747050046920776
1618853590.14467,8.07428,6.762670040130615
1618853590.1603,25.26678,6.778300046920776
1618853590.17593,37.52859,6.7939300537109375
1618853590.19155,45.20648,6.809550046920776
1618853590.20718,49.54816,6.8251800537109375
1618853590.2228,52.65649,6.840800046920776
1618853590.23843,57.0018,6.8564300537109375
1618853590.25405,64.55052,6.872050046920776
1618853590.26968,75.96492,6.8876800537109375
1618853590.28531,90.12407,6.903310060501099
1618853590.30093,104.3112,6.9189300537109375
1618853590.31656,115.0258,6.934560060501099
1618853590.33218,119.1322,6.9501800537109375
1618853590.34781,114.8874,6.965810060501099
1618853590.36343,102.5214,6.9814300537109375
1618853590.37906,84.21477,6.997060060501099
1618853590.39469,63.48407,7.01269006729126
1618853590.41031,44.22324,7.028310060501099
1618853590.42594,29.6485,7.04394006729126
1618853590.44156,21.51639,7.059560060501099
1618853590.45719,19.83231,7.07519006729126
1618853590.47281,23.11461,7.090810060501099
1618853590.48844,29.03378,7.10644006729126
1618853590.50407,35.1815,7.122070074081421
1618853590.51969,39.72793,7.13769006729126
1618853590.53532,41.73285,7.153320074081421
1618853590.55094,41.12991,7.16894006729126
1618853590.56657,38.52807,7.184570074081421
1618853590.58219,34.87714,7.20019006729126
1618853590.59782,31.08393,7.215820074081421
1618853590.61345,27.6659,7.231450080871582
1618853590.62907,24.56422,7.247070074081421
1618853590.6447,21.13371,7.262700080871582
1618853590.66032,16.41068,7.278320074081421
1618853590.67595,9.484049,7.293950080871582
1618853590.69157,-0.2194061,7.309570074081421
1618853590.7072,-12.84029,7.325200080871582
1618853590.72283,-28.16698,7.340830087661743
1618853590.73845,-45.68572,7.356450080871582
1618853590.75408,-64.55807,7.372080087661743
1618853590.7697,-83.42228,7.387700080871582
1618853590.78533,-100.3493,7.403330087661743
1618853590.80095,-113.1176,7.418950080871582
1618853590.81658,-119.9425,7.434580087661743
1618853590.83221,-120.2503,7.450210094451904
1618853590.84783,-115.1266,7.465830087661743
1618853590.86346,-106.9622,7.481460094451904
1618853590.87908,-98.42764,7.497080087661743
1618853590.89471,-91.35125,7.512710094451904
1618853590.91033,-85.99145,7.528330087661743
1618853590.92596,-81.30672,7.543960094451904
1618853590.94159,-75.81142,7.559590101242065
1618853590.95721,-68.56978,7.575210094451904
1618853590.97284,-59.66035,7.590840101242065
1618853590.98846,-49.97762,7.606460094451904
1618853591.00409,-40.61017,7.622090101242065
1618853591.01971,-32.18485,7.637710094451904
1618853591.03534,-24.65422,7.653340101242065
1618853591.05097,-17.51315,7.668970108032227
1618853591.06659,-10.2961,7.684590101242065
1618853591.08222,-2.915894,7.700220108032227
1618853591.09784,4.216507,7.715840101242065
1618853591.11347,10.36375,7.731470108032227
1618853591.12909,14.75075,7.747090101242065
1618853591.14472,16.81395,7.762720108032227
1618853591.16035,16.34283,7.778350114822388
1618853591.17597,13.47557,7.793970108032227
1618853591.1916,8.729813,7.809600114822388
1618853591.20722,2.868881,7.825220108032227
1618853591.22285,-3.226303,7.840850114822388
1618853591.23847,-8.804565,7.856470108032227
1618853591.2541,-13.40295,7.872100114822388
1618853591.26973,-17.01523,7.887730121612549
1618853591.28535,-20.01563,7.903350114822388
1618853591.30098,-23.07503,7.918980121612549
1618853591.3166,-26.9155,7.934600114822388
1618853591.33223,-32.09146,7.950230121612549
1618853591.34786,-38.7905,7.96586012840271
1618853591.36348,-46.61858,7.981480121612549
1618853591.37911,-54.52409,7.99711012840271
1618853591.39473,-60.89186,8.012730121612549
1618853591.41036,-63.87236,8.02836012840271
1618853591.42598,-61.8862,8.043980121612549
1618853591.44161,-54.21744,8.05961012840271
1618853591.45724,-41.32483,8.075240135192871
1618853591.47286,-24.79601,8.09086012840271
1618853591.48849,-6.928741,8.106490135192871
1618853591.50411,9.941193,8.12211012840271
1618853591.51974,24.01129,8.137740135192871
1618853591.53536,34.2975,8.15336012840271
1618853591.55099,40.58847,8.168990135192871
1618853591.56662,43.22388,8.184620141983032
1618853591.58224,42.76617,8.200240135192871
1618853591.59787,39.92538,8.215870141983032
1618853591.61349,35.47276,8.231490135192871
1618853591.62912,30.25162,8.247120141983032
1618853591.64474,25.09564,8.262740135192871
1618853591.66037,20.67198,8.278370141983032
1618853591.676,17.33624,8.294000148773193
1618853591.69162,15.10251,8.309620141983032
1618853591.70725,13.76396,8.325250148773193
1618853591.72287,13.05406,8.340870141983032
1618853591.7385,12.83795,8.356500148773193
1618853591.75412,13.11263,8.372120141983032
1618853591.76975,13.89056,8.387750148773193
1618853591.78538,15.03748,8.403379917144775
1618853591.801,16.13858,8.419000148773193
1618853591.81663,16.55682,8.434629917144775
1618853591.83225,15.63779,8.450250148773193
1618853591.84788,12.96399,8.465879917144775
1618853591.8635,8.59787,8.481500148773193
1618853591.87913,3.062683,8.497129917144775
1618853591.89476,-2.798279,8.512759923934937
1618853591.91038,-8.173126,8.528379917144775
1618853591.92601,-12.55344,8.544009923934937
1618853591.94163,-15.96432,8.559629917144775
1618853591.95726,-18.94562,8.575259923934937
1618853591.97288,-22.36087,8.590879917144775
1618853591.98851,-27.09,8.606509923934937
1618853592.00414,-33.67722,8.622139930725098
1618853592.01976,-42.03317,8.637759923934937
1618853592.03539,-51.28619,8.653389930725098
1618853592.05101,-59.8241,8.669009923934937
1618853592.06664,-65.62326,8.684639930725098
1618853592.08226,-66.78036,8.700259923934937
1618853592.09789,-62.10083,8.715889930725098
1618853592.11352,-51.52789,8.731519937515259
1618853592.12914,-36.22,8.747139930725098
1618853592.14477,-18.23376,8.762769937515259
1618853592.16039,0.08395386,8.778389930725098
1618853592.17602,16.69244,8.794019937515259
1618853592.19164,30.2605,8.809639930725098
1618853592.20727,40.17975,8.825269937515259
1618853592.2229,46.36722,8.84089994430542
1618853592.23852,49.0032,8.856519937515259
1618853592.25415,48.37329,8.87214994430542
1618853592.26977,44.88239,8.887769937515259
1618853592.2854,39.16147,8.90339994430542
1618853592.30102,32.09702,8.919019937515259
1618853592.31665,24.74677,8.93464994430542
1618853592.33228,18.13562,8.950279951095581
1618853592.3479,13.00626,8.96589994430542
1618853592.36353,9.640991,8.981529951095581
1618853592.37915,7.875153,8.99714994430542
1618853592.39478,7.214874,9.012779951095581
1618853592.4104,7.080902,9.02839994430542
1618853592.42603,7.047302,9.044029951095581
1618853592.44166,6.89325,9.059659957885742
1618853592.45728,6.624817,9.075279951095581
1618853592.47291,6.27597,9.090909957885742
1618853592.48853,5.73465,9.106529951095581
1618853592.50416,4.668274,9.122159957885742
1618853592.51978,2.612,9.137779951095581
1618853592.53541,-0.8459778,9.153409957885742
1618853592.55104,-5.792389,9.169039964675903
1618853592.56666,-11.90814,9.184659957885742
1618853592.58229,-18.53372,9.200289964675903
1618853592.59791,-24.89612,9.215909957885742
1618853592.61354,-30.41327,9.231539964675903
1618853592.62916,-34.85382,9.247159957885742
1618853592.64479,-38.41473,9.262789964675903
1618853592.66042,-41.61966,9.278419971466064
1618853592.67604,-45.16644,9.294039964675903
1618853592.69167,-49.66711,9.309669971466064
1618853592.70729,-55.51617,9.325289964675903
1618853592.72292,-62.5697,9.340919971466064
1618853592.73854,-70.02707,9.356539964675903
1618853592.75417,-76.3718,9.372169971466064
1618853592.7698,-79.63681,9.387799978256226
1618853592.78542,-77.87338,9.403419971466064
1618853592.80105,-69.8511,9.419049978256226
1618853592.81667,-55.56497,9.434669971466064
1618853592.8323,-36.39987,9.450299978256226
1618853592.84792,-14.81509,9.465919971466064
1618853592.86355,6.366089,9.481549978256226
1618853592.87918,24.7739,9.497179985046387
1618853592.8948,39.01041,9.512799978256226
1618853592.91043,48.77789,9.528429985046387
1618853592.92605,54.57492,9.544049978256226
1618853592.94168,57.17603,9.559679985046387
1618853592.9573,57.27512,9.575299978256226
1618853592.97293,55.31656,9.590929985046387
1618853592.98856,51.61871,9.606559991836548
1618853593.00418,46.59512,9.622179985046387
1618853593.01981,40.89426,9.637809991836548
1618853593.03543,35.29901,9.653429985046387
1618853593.05106,30.5386,9.669059991836548
1618853593.06668,27.02271,9.684679985046387
1618853593.08231,24.75943,9.700309991836548
1618853593.09794,23.40033,9.715939998626709
1618853593.11356,22.44077,9.731559991836548
1618853593.12919,21.42496,9.747189998626709
1618853593.14481,20.12689,9.762809991836548
1618853593.16044,18.54337,9.778439998626709
1618853593.17606,16.85297,9.794059991836548
1618853593.19169,15.25528,9.809689998626709
1618853593.20732,13.81158,9.82532000541687
1618853593.22294,12.31577,9.840939998626709
1618853593.23857,10.3172,9.85657000541687
1618853593.25419,7.242493,9.872189998626709
1618853593.26982,2.628662,9.88782000541687
1618853593.28544,-3.601746,9.903439998626709
1618853593.30107,-11.00595,9.91907000541687
1618853593.3167,-18.69962,9.934700012207031
1618853593.33232,-25.62335,9.95032000541687
1618853593.34795,-30.97174,9.965950012207031
1618853593.36357,-34.49612,9.98157000541687
1618853593.3792,-36.61017,9.997200012207031
1618853593.39482,-38.16867,10.01282000541687
1618853593.41045,-40.16537,10.028450012207031
1618853593.42608,-43.33322,10.044080018997192
1618853593.4417,-47.93484,10.059700012207031
1618853593.45733,-53.62778,10.075330018997192
1618853593.47295,-59.51291,10.090950012207031
1618853593.48858,-64.24496,10.106580018997192
1618853593.5042,-66.22339,10.122200012207031
1618853593.51983,-63.93268,10.137830018997192
1618853593.53546,-56.3335,10.153460025787354
1618853593.55108,-43.31802,10.169080018997192
1618853593.56671,-25.90372,10.184710025787354
1618853593.58233,-6.136902,10.200330018997192
1618853593.59796,13.39279,10.215960025787354
1618853593.61359,30.25815,10.231590032577515
1618853593.62921,42.84143,10.247210025787354
1618853593.64484,50.60599,10.262840032577515
1618853593.66046,53.97595,10.278460025787354
1618853593.67609,53.94501,10.294090032577515
1618853593.69171,51.61429,10.309710025787354
1618853593.70734,47.93893,10.325340032577515
1618853593.72297,43.59485,10.340970039367676
1618853593.73859,39.10233,10.356590032577515
1618853593.75422,34.84256,10.372220039367676
1618853593.76984,31.11044,10.387840032577515
1618853593.78547,28.05731,10.403470039367676
1618853593.80109,25.66791,10.419090032577515
1618853593.81672,23.82104,10.434720039367676
1618853593.83235,22.33075,10.450350046157837
1618853593.84797,21.05698,10.465970039367676
1618853593.8636,19.95059,10.481600046157837
1618853593.87922,19.01749,10.497220039367676
1618853593.89485,18.31519,10.512850046157837
1618853593.91047,17.88022,10.528470039367676
1618853593.9261,17.63995,10.544100046157837
1618853593.94173,17.36255,10.559730052947998
1618853593.95735,16.64679,10.575350046157837
1618853593.97298,14.99149,10.590980052947998
1618853593.9886,11.97491,10.606600046157837
1618853594.00423,7.424957,10.622230052947998
1618853594.01985,1.586975,10.637850046157837
1618853594.03548,-4.916962,10.653480052947998
1618853594.05111,-11.28839,10.66911005973816
1618853594.06673,-16.86923,10.684730052947998
1618853594.08236,-21.34152,10.70036005973816
1618853594.09798,-24.83554,10.715980052947998
1618853594.11361,-27.8508,10.73161005973816
1618853594.12923,-31.01849,10.747230052947998
1618853594.14486,-34.89877,10.76286005973816
1618853594.16049,-39.76288,10.77849006652832
1618853594.17611,-45.46454,10.79411005973816
1618853594.19174,-51.36792,10.80974006652832
1618853594.20736,-56.3241,10.82536005973816
1618853594.22299,-58.85138,10.84099006652832
1618853594.23861,-57.43811,10.85661005973816
1618853594.25424,-51.02817,10.87224006652832
1618853594.26987,-39.41153,10.887870073318481
1618853594.28549,-23.48114,10.90349006652832
1618853594.30112,-5.064941,10.919120073318481
1618853594.31674,13.55008,10.93474006652832
1618853594.33237,30.20831,10.950370073318481
1618853594.34799,43.35367,10.96599006652832
1618853594.36362,52.29141,10.981620073318481
1618853594.37925,57.04996,10.997250080108643
1618853594.39487,58.10934,11.012870073318481
1618853594.4105,56.116,11.028500080108643
1618853594.42612,51.72571,11.044120073318481
1618853594.44175,45.62012,11.059750080108643
1618853594.45737,38.51843,11.075370073318481
1618853594.473,31.17743,11.091000080108643
1618853594.48863,24.28308,11.106630086898804
1618853594.50425,18.33676,11.122250080108643
1618853594.51988,13.54312,11.137880086898804
1618853594.5355,9.842957,11.153500080108643
1618853594.55113,7.040527,11.169130086898804
1618853594.56675,4.891174,11.184750080108643
1618853594.58238,3.234619,11.200380086898804
1618853594.59801,1.99054,11.216010093688965
1618853594.61363,1.10083,11.231630086898804
1618853594.62926,0.3866577,11.247260093688965
1618853594.64488,-0.4769897,11.262880086898804
1618853594.66051,-1.988464,11.278510093688965
1618853594.67613,-4.611816,11.294130086898804
1618853594.69176,-8.644287,11.309760093688965
1618853594.70739,-14.03021,11.325390100479126
1618853594.72301,-20.33429,11.341010093688965
1618853594.73864,-26.90503,11.356640100479126
1618853594.75426,-33.09937,11.372260093688965
1618853594.76989,-38.54797,11.387890100479126
1618853594.78551,-43.26862,11.403510093688965
1618853594.80114,-47.68817,11.419140100479126
1618853594.81677,-52.40112,11.434770107269287
1618853594.83239,-57.93365,11.450390100479126
1618853594.84802,-64.54364,11.466020107269287
1618853594.86364,-72.02765,11.481640100479126
1618853594.87927,-79.68188,11.497270107269287
1618853594.89489,-86.24988,11.512890100479126
1618853594.91052,-90.08655,11.528520107269287
1618853594.92615,-89.50061,11.544150114059448
1618853594.94177,-83.21674,11.559770107269287
1618853594.9574,-70.86676,11.575400114059448
1618853594.97302,-53.27557,11.591020107269287
1618853594.98865,-32.35138,11.606650114059448
1618853595.00427,-10.59222,11.622270107269287
1618853595.0199,9.558777,11.637900114059448
1618853595.03553,26.32129,11.65353012084961
1618853595.05115,38.81573,11.669150114059448
1618853595.06678,46.95914,11.68478012084961
1618853595.0824,51.12238,11.700400114059448
1618853595.09803,51.79431,11.71603012084961
1618853595.11365,49.47583,11.731650114059448
1618853595.12928,44.71823,11.74728012084961
1618853595.14491,38.31323,11.76291012763977
1618853595.16053,31.30206,11.77853012084961
1618853595.17616,24.82065,11.79416012763977
1618853595.19178,19.82773,11.80978012084961
1618853595.20741,16.76852,11.82541012763977
1618853595.22303,15.53098,11.84103012084961
1618853595.23866,15.55872,11.85666012763977
1618853595.25429,16.19901,11.872290134429932
1618853595.26991,16.95016,11.88791012763977
1618853595.28554,17.64258,11.903540134429932
1618853595.30116,18.26178,11.91916012763977
1618853595.31679,18.74884,11.934790134429932
1618853595.33241,18.7923,11.95041012763977
1618853595.34804,17.83618,11.966040134429932
1618853595.36367,15.30157,11.981670141220093
1618853595.37929,10.86044,11.997290134429932
1618853595.39492,4.723846,12.012920141220093
1618853595.41054,-2.420227,12.028540134429932
1618853595.42617,-9.587555,12.044170141220093
1618853595.44179,-15.89792,12.059790134429932
1618853595.45742,-20.88828,12.075420141220093
1618853595.47305,-24.65558,12.091050148010254
1618853595.48867,-27.81302,12.106670141220093
1618853595.5043,-31.21329,12.122300148010254
1618853595.51992,-35.66809,12.137920141220093
1618853595.53555,-41.67838,12.153550148010254
1618853595.55117,-49.29825,12.169170141220093
1618853595.5668,-57.97232,12.184800148010254
1618853595.58243,-66.58362,12.200429916381836
1618853595.59805,-73.47778,12.216050148010254
1618853595.61368,-76.74326,12.231679916381836
1618853595.6293,-74.62143,12.247300148010254
1618853595.64493,-66.01837,12.262929916381836
1618853595.66055,-51.00223,12.278550148010254
1618853595.67618,-30.939,12.294179916381836
1618853595.69181,-8.223999,12.309809923171997
1618853595.70743,14.37619,12.325429916381836
1618853595.72306,34.4711,12.341059923171997
1618853595.73868,50.58527,12.356679916381836
1618853595.75431,62.28128,12.372309923171997
1618853595.76993,69.84674,12.387929916381836
1618853595.78556,73.88004,12.403559923171997
1618853595.80119,74.90131,12.419189929962158
1618853595.81681,73.32703,12.434809923171997
1618853595.83244,69.62561,12.450439929962158
1618853595.84806,64.5007,12.466059923171997
1618853595.86369,58.93967,12.481689929962158
1618853595.87931,54.04977,12.497309923171997
1618853595.89494,50.74487,12.512939929962158
1618853595.91057,49.48022,12.52856993675232
1618853595.92619,50.11453,12.544189929962158
1618853595.94182,52.0032,12.55981993675232
1618853595.95744,54.24149,12.575439929962158
1618853595.97307,55.93954,12.59106993675232
1618853595.98869,56.49149,12.606689929962158
1618853596.00432,55.68643,12.62231993675232
1618853596.01995,53.65546,12.63794994354248
1618853596.03557,50.70993,12.65356993675232
1618853596.0512,47.09155,12.66919994354248
1618853596.06682,42.81293,12.68481993675232
1618853596.08245,37.64966,12.70044994354248
1618853596.09807,31.27658,12.71606993675232
1618853596.1137,23.53302,12.73169994354248
1618853596.12933,14.57407,12.747329950332642
1618853596.14495,4.88266,12.76294994354248
1618853596.16058,-4.881317,12.778579950332642
1618853596.1762,-14.16483,12.79419994354248
1618853596.19183,-22.69525,12.809829950332642
1618853596.20746,-30.52478,12.825459957122803
1618853596.22308,-37.95923,12.841079950332642
1618853596.23871,-45.3927,12.856709957122803
1618853596.25433,-53.2005,12.872329950332642
1618853596.26996,-61.63403,12.887959957122803
1618853596.28558,-70.70407,12.903579950332642
1618853596.30121,-80.01587,12.919209957122803
1618853596.31684,-88.65268,12.934839963912964
1618853596.33246,-95.15186,12.950459957122803
1618853596.34809,-97.74329,12.966089963912964
1618853596.36371,-94.77994,12.981709957122803
1618853596.37934,-85.35309,12.997339963912964
1618853596.39496,-69.69983,13.012959957122803
1618853596.41059,-49.33478,13.028589963912964
1618853596.42622,-26.67957,13.044219970703125
1618853596.44184,-4.437805,13.059839963912964
1618853596.45747,15.15997,13.075469970703125
1618853596.47309,30.73889,13.091089963912964
1618853596.48872,41.8956,13.106719970703125
1618853596.50434,48.94189,13.122339963912964
1618853596.51997,52.45599,13.137969970703125
1618853596.5356,53.01624,13.153599977493286
1618853596.55122,51.12506,13.169219970703125
1618853596.56685,47.30783,13.184849977493286
1618853596.58247,42.26849,13.200469970703125
1618853596.5981,36.89673,13.216099977493286
1618853596.61372,32.11194,13.231719970703125
1618853596.62935,28.61353,13.247349977493286
1618853596.64498,26.72549,13.262979984283447
1618853596.6606,26.31583,13.278599977493286
1618853596.67623,26.9436,13.294229984283447
1618853596.69185,28.08508,13.309849977493286
1618853596.70748,29.31183,13.325479984283447
1618853596.7231,30.36975,13.341099977493286
1618853596.73873,31.15518,13.356729984283447
1618853596.75436,31.56793,13.372359991073608
1618853596.76998,31.42169,13.387979984283447
1618853596.78561,30.36511,13.403609991073608
1618853596.80123,27.95453,13.419229984283447
1618853596.81686,23.815,13.434859991073608
1618853596.83248,17.7934,13.450479984283447
1618853596.84811,10.05261,13.466109991073608
1618853596.86374,1.037292,13.48173999786377
1618853596.87936,-8.613525,13.497359991073608
1618853596.89499,-18.26929,13.51298999786377
1618853596.91061,-27.43726,13.528609991073608
1618853596.92624,-35.8302,13.54423999786377
1618853596.94186,-43.40576,13.559859991073608
1618853596.95749,-50.28455,13.57548999786377
1618853596.97312,-56.71802,13.59112000465393
1618853596.98874,-63.05347,13.60673999786377
1618853597.00437,-69.69751,13.62237000465393
1618853597.01999,-76.97736,13.63798999786377
1618853597.03562,-85.04498,13.65362000465393
1618853597.05124,-93.64954,13.66923999786377
1618853597.06687,-101.9897,13.68487000465393
1618853597.0825,-108.7418,13.700500011444092
1618853597.09812,-112.2289,13.71612000465393
1618853597.11375,-110.845,13.731750011444092
1618853597.12937,-103.4861,13.74737000465393
1618853597.145,-89.97205,13.763000011444092
1618853597.16062,-71.15924,13.77862000465393
1618853597.17625,-48.86145,13.794250011444092
1618853597.19188,-25.4101,13.809880018234253
1618853597.2075,-3.141907,13.825500011444092
1618853597.22313,16.01801,13.841130018234253
1618853597.23875,30.87039,13.856750011444092
1618853597.25438,40.9491,13.872380018234253
1618853597.27,46.44824,13.888000011444092
1618853597.28563,48.06418,13.903630018234253
1618853597.30126,46.88324,13.919260025024414
1618853597.31688,44.28357,13.934880018234253
1618853597.33251,41.8233,13.950510025024414
1618853597.34813,41.06036,13.966130018234253
1618853597.36376,43.24091,13.981760025024414
1618853597.37938,48.96906,13.997380018234253
1618853597.39501,57.96838,14.013010025024414
1618853597.41064,69.09406,14.028640031814575
1618853597.42626,80.63562,14.044260025024414
1618853597.44189,90.89264,14.059890031814575
1618853597.45751,98.68396,14.075510025024414
1618853597.47314,103.6646,14.091140031814575
1618853597.48876,106.3305,14.106760025024414
1618853597.50439,107.6482,14.122390031814575
1618853597.52002,108.5865,14.138020038604736
1618853597.53564,109.6227,14.153640031814575
1618853597.55127,110.5118,14.169270038604736
1618853597.56689,110.2607,14.184890031814575
1618853597.58252,107.4265,14.200520038604736
1618853597.59814,100.5947,14.216140031814575
1618853597.61377,88.91675,14.231770038604736
1618853597.6294,72.55084,14.247400045394897
1618853597.64502,52.76111,14.263020038604736
1618853597.66065,31.60126,14.278650045394897
1618853597.67627,11.1618,14.294270038604736
1618853597.6919,-7.304749,14.309900045394897
1618853597.70752,-23.91339,14.325520038604736
1618853597.72315,-40.15833,14.341150045394897
1618853597.73878,-58.26105,14.356780052185059
1618853597.7544,-80.18311,14.372400045394897
1618853597.77003,-106.7604,14.388030052185059
1618853597.78565,-137.2548,14.403650045394897
1618853597.80128,-169.3679,14.419280052185059
1618853597.8169,-199.709,14.434900045394897
1618853597.83253,-224.3417,14.450530052185059
1618853597.84816,-239.4153,14.46616005897522
1618853597.86378,-241.8239,14.481780052185059
1618853597.87941,-229.8279,14.49741005897522
1618853597.89503,-203.6019,14.513030052185059
1618853597.91066,-165.4466,14.52866005897522
1618853597.92628,-119.5547,14.544280052185059
1618853597.94191,-71.16675,14.55991005897522
1618853597.95754,-25.51245,14.57554006576538
1618853597.97316,13.19611,14.59116005897522
1618853597.98879,42.38849,14.60679006576538
1618853598.00441,61.19177,14.62241005897522
1618853598.02004,70.22342,14.63804006576538
1618853598.03566,71.14734,14.65366005897522
1618853598.05129,66.1489,14.66929006576538
1618853598.06692,57.49988,14.684920072555542
1618853598.08254,47.21887,14.70054006576538
1618853598.09817,36.94568,14.716170072555542
1618853598.11379,28.0394,14.73179006576538
1618853598.12942,21.72858,14.747420072555542
1618853598.14504,19.17664,14.76304006576538
1618853598.16067,21.21454,14.778670072555542
1618853598.1763,27.91748,14.794300079345703
1618853598.19192,38.23737,14.809920072555542
1618853598.20755,50.0325,14.825550079345703
1618853598.22317,60.66751,14.841170072555542
1618853598.2388,67.87308,14.856800079345703
1618853598.25442,70.47849,14.872420072555542
1618853598.27005,68.55899,14.888050079345703
1618853598.28568,62.91977,14.903680086135864
1618853598.3013,54.33975,14.919300079345703
1618853598.31693,42.89563,14.934930086135864
1618853598.33255,27.99255,14.950550079345703
1618853598.34818,8.938019,14.966180086135864
1618853598.36381,-14.32523,14.981810092926025
1618853598.37943,-40.66675,14.997430086135864
1618853598.39506,-67.85312,15.013060092926025
1618853598.41068,-93.18564,15.028680086135864
1618853598.42631,-114.2914,15.044310092926025
1618853598.44193,-129.8006,15.059930086135864
1618853598.45756,-139.6694,15.075560092926025
1618853598.47319,-145.0563,15.091190099716187
1618853598.48881,-147.8161,15.106810092926025
1618853598.50444,-149.9628,15.122440099716187
1618853598.52006,-152.9113,15.138060092926025
1618853598.53569,-157.0218,15.153690099716187
1618853598.55131,-161.4213,15.169310092926025
1618853598.56694,-164.2161,15.184940099716187
1618853598.58257,-163.022,15.200570106506348
1618853598.59819,-155.6779,15.216190099716187
1618853598.61382,-140.8561,15.231820106506348
1618853598.62944,-118.4116,15.247440099716187
1618853598.64507,-89.3848,15.263070106506348
1618853598.66069,-55.74011,15.278690099716187
1618853598.67632,-19.89484,15.294320106506348
1618853598.69195,15.78284,15.309950113296509
1618853598.70757,49.44858,15.325570106506348
1618853598.7232,80.05719,15.341200113296509
1618853598.73882,107.3591,15.356820106506348
1618853598.75445,131.6398,15.372450113296509
1618853598.77007,153.2256,15.388070106506348
1618853598.7857,172.0561,15.403700113296509
1618853598.80133,187.6936,15.41933012008667
1618853598.81695,199.5443,15.434950113296509
1618853598.83258,207.531,15.45058012008667
1618853598.8482,212.4409,15.466200113296509
1618853598.86383,215.7118,15.48183012008667
1618853598.87945,218.7605,15.497450113296509
1618853598.89508,222.1017,15.51308012008667
1618853598.91071,224.9109,15.528710126876831
1618853598.92633,225.2294,15.54433012008667
1618853598.94196,221.086,15.559960126876831
1618853598.95758,211.7595,15.57558012008667
1618853598.97321,198.5195,15.591210126876831
1618853598.98883,184.3565,15.60683012008667
1618853599.00446,172.5858,15.622460126876831
1618853599.02009,165.2984,15.638090133666992
1618853599.03571,162.3698,15.653710126876831
1618853599.05134,161.6576,15.669340133666992
1618853599.06696,160.1128,15.684960126876831
1618853599.08259,155.3153,15.700590133666992
1618853599.09821,146.4443,15.716210126876831
1618853599.11384,134.1717,15.731840133666992
1618853599.12947,119.7332,15.747470140457153
1618853599.14509,103.8575,15.763090133666992
1618853599.16072,86.27856,15.778720140457153
1618853599.17634,66.10983,15.794340133666992
1618853599.19197,42.76492,15.809970140457153
1618853599.20759,16.754,15.825590133666992
1618853599.22322,-10.11182,15.841220140457153
1618853599.23885,-35.29666,15.856850147247314
1618853599.25447,-56.46262,15.872470140457153
1618853599.2701,-72.18515,15.888100147247314
1618853599.28572,-82.18555,15.903720140457153
1618853599.30135,-86.98434,15.919350147247314
1618853599.31697,-87.55325,15.934970140457153
1618853599.3326,-84.66849,15.950600147247314
1618853599.34823,-78.78378,15.966229915618896
1618853599.36385,-69.93903,15.981850147247314
1618853599.37948,-57.86676,15.997479915618896
1618853599.3951,-42.16388,16.013100147247314
1618853599.41073,-22.33911,16.028729915618896
1618853599.42635,2.05365,16.044350147247314
1618853599.44198,31.19934,16.059979915618896
1618853599.45761,64.56787,16.075609922409058
1618853599.47323,100.4602,16.091229915618896
1618853599.48886,135.8745,16.106859922409058
1618853599.50448,166.9232,16.122479915618896
1618853599.52011,189.8467,16.138109922409058
1618853599.53573,202.2432,16.153729915618896
1618853599.55136,204.01,16.169359922409058
1618853599.56699,197.341,16.18498992919922
1618853599.58261,185.7901,16.200609922409058
1618853599.59824,172.7359,16.21623992919922
1618853599.61386,160.2562,16.231859922409058
1618853599.62949,148.5345,16.24748992919922
1618853599.64511,136.2357,16.263109922409058
1618853599.66074,121.4158,16.27873992919922
1618853599.67637,102.1242,16.29436993598938
1618853599.69199,76.80237,16.30998992919922
1618853599.70762,44.61603,16.32561993598938
1618853599.72324,5.888916,16.34123992919922
1618853599.73887,-37.39374,16.35686993598938
1618853599.75449,-81.64978,16.37248992919922
1618853599.77012,-122.5668,16.38811993598938
1618853599.78575,-156.6173,16.40374994277954
1618853599.80137,-182.376,16.41936993598938
1618853599.817,-200.8585,16.43499994277954
1618853599.83262,-214.5782,16.45061993598938
1618853599.84825,-225.9556,16.46624994277954
1618853599.86387,-236.0004,16.48186993598938
1618853599.8795,-244.1762,16.49749994277954
1618853599.89513,-249.2996,16.513129949569702
1618853599.91075,-250.7798,16.52874994277954
1618853599.92638,-249.2484,16.544379949569702
1618853599.942,-246.1259,16.55999994277954
1618853599.95763,-242.585,16.575629949569702
1618853599.97325,-238.6119,16.59124994277954
1618853599.98888,-232.929,16.606879949569702
1618853600.00451,-223.6725,16.622509956359863
1618853600.02013,-209.4132,16.638129949569702
1618853600.03576,-189.8774,16.653759956359863
1618853600.05138,-166.0154,16.669379949569702
1618853600.06701,-139.6543,16.685009956359863
1618853600.08263,-112.915,16.700629949569702
1618853600.09826,-87.71899,16.716259956359863
1618853600.11389,-65.33899,16.731889963150024
1618853600.12951,-46.33301,16.747509956359863
1618853600.14514,-30.7157,16.763139963150024
1618853600.16076,-18.16028,16.778759956359863
1618853600.17639,-8.283447,16.794389963150024
1618853600.19201,-0.8691406,16.810009956359863
1618853600.20764,4.172974,16.825639963150024
1618853600.22327,6.955444,16.841269969940186
1618853600.23889,7.800537,16.856889963150024
1618853600.25452,7.355835,16.872519969940186
1618853600.27014,6.41626,16.888139963150024
1618853600.28577,5.698486,16.903769969940186
1618853600.30139,5.596069,16.919389963150024
1618853600.31702,6.022461,16.935019969940186
1618853600.33265,6.514404,16.950649976730347
1618853600.34827,6.492676,16.966269969940186
1618853600.3639,5.563354,16.981899976730347
1618853600.37952,3.672852,16.997519969940186
1618853600.39515,1.173462,17.013149976730347
1618853600.41077,-1.411743,17.028769969940186
1618853600.4264,-3.62146,17.044399976730347
1618853600.44203,-5.25293,17.060029983520508
1618853600.45765,-6.419922,17.075649976730347
1618853600.47328,-7.464233,17.091279983520508
1618853600.4889,-8.738403,17.106899976730347
1618853600.50453,-10.46204,17.122529983520508
1618853600.52015,-12.71204,17.138149976730347
1618853600.53578,-15.49121,17.153779983520508
1618853600.55141,-18.86316,17.16940999031067
1618853600.56703,-23.01245,17.185029983520508
1618853600.58266,-28.16162,17.20065999031067
1618853600.59828,-34.41736,17.216279983520508
1618853600.61391,-41.61353,17.23190999031067
1618853600.62953,-49.14148,17.247529983520508
1618853600.64516,-55.99426,17.26315999031067
1618853600.66079,-60.90955,17.27878999710083
1618853600.67641,-62.61475,17.29440999031067
1618853600.69204,-60.19556,17.31003999710083
1618853600.70766,-53.38647,17.32565999031067
1618853600.72329,-42.66956,17.34128999710083
1618853600.73891,-29.21375,17.35690999031067
1618853600.75454,-14.58081,17.37253999710083
1618853600.77017,-0.3427734,17.38817000389099
1618853600.78579,12.21924,17.40378999710083
1618853600.80142,22.29053,17.41942000389099
1618853600.81704,29.48425,17.43503999710083
1618853600.83267,33.73645,17.45067000389099
1618853600.84829,35.11646,17.46628999710083
1618853600.86392,33.81274,17.48192000389099
1618853600.87955,30.10242,17.497550010681152
1618853600.89517,24.36255,17.51317000389099
1618853600.9108,17.14563,17.528800010681152
1618853600.92642,9.125977,17.54442000389099
1618853600.94205,1.087524,17.560050010681152
1618853600.95767,-6.169189,17.57567000389099
1618853600.9733,-11.96509,17.591300010681152
1618853600.98893,-15.90076,17.606930017471313
1618853601.00455,-17.98547,17.622550010681152
1618853601.02018,-18.62463,17.638180017471313
1618853601.0358,-18.46594,17.653800010681152
1618853601.05143,-18.17383,17.669430017471313
1618853601.06706,-18.18286,17.685060024261475
1618853601.08268,-18.65417,17.700680017471313
1618853601.09831,-19.53674,17.716310024261475
1618853601.11393,-20.70135,17.731930017471313
1618853601.12956,-22.06378,17.747560024261475
1618853601.14518,-23.60437,17.763180017471313
1618853601.16081,-25.37744,17.778810024261475
1618853601.17644,-27.45856,17.794440031051636
1618853601.19206,-29.98615,17.810060024261475
1618853601.20769,-33.23541,17.825690031051636
1618853601.22331,-37.60553,17.841310024261475
1618853601.23894,-43.43536,17.856940031051636
1618853601.25456,-50.70142,17.872560024261475
1618853601.27019,-58.724,17.888190031051636
1618853601.28582,-66.08081,17.903820037841797
1618853601.30144,-70.81915,17.919440031051636
1618853601.31707,-71.00787,17.935070037841797
1618853601.33269,-65.34167,17.950690031051636
1618853601.34832,-53.68506,17.966320037841797
1618853601.36394,-37.07294,17.981940031051636
1618853601.37957,-17.41095,17.997570037841797
1618853601.3952,3.087097,18.013200044631958
1618853601.41082,22.41364,18.028820037841797
1618853601.42645,39.1651,18.044450044631958
1618853601.44207,52.60736,18.060070037841797
1618853601.4577,62.62646,18.075700044631958
1618853601.47332,69.52124,18.091320037841797
1618853601.48895,73.73395,18.106950044631958
1618853601.50458,75.77753,18.12258005142212
1618853601.5202,76.08417,18.138200044631958
1618853601.53583,74.94299,18.15383005142212
1618853601.55145,72.46759,18.169450044631958
1618853601.56708,68.67822,18.18508005142212
1618853601.5827,63.65527,18.200700044631958
1618853601.59833,57.70313,18.21633005142212
1618853601.61396,51.46844,18.23196005821228
1618853601.62958,45.63611,18.24758005142212
1618853601.64521,40.9151,18.26321005821228
1618853601.66083,37.67999,18.27883005142212
1618853601.67646,35.77161,18.29446005821228
1618853601.69208,34.4397,18.31008005142212
1618853601.70771,32.57593,18.32571005821228
1618853601.72334,29.1109,18.34134006500244
1618853601.73896,23.42932,18.35696005821228
1618853601.75459,15.58673,18.37259006500244
1618853601.77021,5.723083,18.38821005821228
1618853601.78584,-5.729553,18.40384006500244
1618853601.80146,-18.42389,18.41946005821228
1618853601.81709,-32.27997,18.43509006500244
1618853601.83272,-47.55725,18.450720071792603
1618853601.84834,-64.58655,18.46634006500244
1618853601.86397,-83.31647,18.481970071792603
1618853601.87959,-102.8607,18.49759006500244
1618853601.89522,-121.2676,18.513220071792603
1618853601.91084,-136.6821,18.52884006500244
1618853601.92647,-146.8019,18.544470071792603
1618853601.9421,-149.6833,18.560100078582764
1618853601.95772,-144.3476,18.575720071792603
1618853601.97335,-131.3868,18.591350078582764
1618853601.98897,-113.0714,18.606970071792603
1618853602.0046,-92.87213,18.622600078582764
1618853602.02022,-74.60974,18.638220071792603
1618853602.03585,-61.43976,18.653850078582764
1618853602.05148,-56.65161,18.669480085372925
1618853602.0671,-61.38214,18.685100078582764
1618853602.08273,-74.72345,18.700730085372925
1618853602.09835,-94.01672,18.716350078582764
1618853602.11398,-115.8945,18.731980085372925
1618853602.1296,-137.508,18.747600078582764
1618853602.14523,-157.4044,18.763230085372925
1618853602.16086,-175.7236,18.778860092163086
1618853602.17648,-193.636,18.794480085372925
1618853602.19211,-214.3324,18.810110092163086
1618853602.20773,-239.3967,18.825730085372925
1618853602.22336,-268.129,18.841360092163086
1618853602.23898,-297.4055,18.856980085372925
1618853602.25461,-322.9165,18.872610092163086
1618853602.27024,-341.1015,18.888240098953247
1618853602.28586,-350.6079,18.903860092163086
1618853602.30149,-352.6087,18.919490098953247
1618853602.31711,-337.572,18.935110092163086
1618853602.33274,-301.7284,18.950740098953247
1618853602.34836,-245.9753,18.966360092163086
1618853602.36399,-176.3795,18.981990098953247
1618853602.37962,-101.7312,18.997620105743408
1618853602.39524,-30.41553,19.013240098953247
1618853602.41087,31.59906,19.028870105743408
1618853602.42649,81.10004,19.044490098953247
1618853602.44212,117.0944,19.060120105743408
1618853602.45774,140.4303,19.075740098953247
1618853602.47337,150.0356,19.091370105743408
1618853602.489,148.5926,19.10700011253357
1618853602.50462,139.6722,19.122620105743408
1618853602.52025,127.342,19.13825011253357
1618853602.53587,115.64,19.153870105743408
1618853602.5515,107.9047,19.16950011253357
1618853602.56712,106.1639,19.185120105743408
1618853602.58275,111.0558,19.20075011253357
1618853602.59838,122.0196,19.21638011932373
1618853602.614,136.3597,19.23200011253357
1618853602.62963,150.8127,19.24763011932373
1618853602.64525,162.7574,19.26325011253357
1618853602.66088,171.2232,19.27888011932373
1618853602.6765,176.9043,19.29450011253357
1618853602.69213,181.4894,19.31013011932373
1618853602.70776,186.6886,19.32576012611389
1618853602.72338,193.4738,19.34138011932373
1618853602.73901,201.6796,19.35701012611389
1618853602.75463,209.0122,19.37263011932373
1618853602.77026,212.8287,19.38826012611389
1618853602.78588,210.7644,19.40388011932373
1618853602.80151,201.8038,19.41951012611389
1618853602.81714,186.627,19.435140132904053
1618853602.83276,167.4357,19.45076012611389
1618853602.84839,147.1961,19.466390132904053
1618853602.86401,128.7321,19.48201012611389
1618853602.87964,113.9299,19.497640132904053
1618853602.89526,102.8601,19.51326012611389
1618853602.91089,94.55368,19.528890132904053
1618853602.92652,87.72479,19.544520139694214
1618853602.94214,81.58029,19.560140132904053
1618853602.95777,76.15732,19.575770139694214
1618853602.97339,71.99399,19.591390132904053
1618853602.98902,69.33014,19.607020139694214
1618853603.00464,67.59503,19.622640132904053
1618853603.02027,65.43216,19.638270139694214
1618853603.0359,61.02594,19.653900146484375
1618853603.05152,53.09412,19.669520139694214
1618853603.06715,41.3566,19.685150146484375
1618853603.08277,26.55887,19.700770139694214
1618853603.0984,10.0986,19.716400146484375
1618853603.11402,-6.486694,19.732020139694214
1618853603.12965,-21.75824,19.747650146484375
1618853603.14528,-34.36176,19.763279914855957
1618853603.1609,-42.91678,19.778900146484375
1618853603.17653,-46.08167,19.794529914855957
1618853603.19215,-42.88895,19.810150146484375
1618853603.20778,-33.21204,19.825779914855957
1618853603.22341,-18.05963,19.841409921646118
1618853603.23903,0.5559082,19.857029914855957
1618853603.25466,20.09747,19.872659921646118
1618853603.27028,38.13232,19.888279914855957
1618853603.28591,52.82025,19.903909921646118
1618853603.30153,63.16785,19.919529914855957
1618853603.31716,69.04358,19.935159921646118
1618853603.33279,70.98547,19.95078992843628
1618853603.34841,69.9649,19.966409921646118
1618853603.36404,67.01123,19.98203992843628
1618853603.37966,62.91528,19.997659921646118
1618853603.39529,58.12305,20.01328992843628
1618853603.41091,52.76147,20.028909921646118
1618853603.42654,46.80798,20.04453992843628
1618853603.44217,40.24603,20.06016993522644
1618853603.45779,33.12244,20.07578992843628
1618853603.47342,25.61536,20.09141993522644
1618853603.48904,17.94794,20.10703992843628
1618853603.50467,10.3233,20.12266993522644
1618853603.52029,2.963928,20.13828992843628
1618853603.53592,-3.877686,20.15391993522644
1618853603.55155,-9.920105,20.1695499420166
1618853603.56717,-14.89624,20.18516993522644
1618853603.5828,-18.7533,20.2007999420166
1618853603.59842,-21.71002,20.21641993522644
1618853603.61405,-24.29681,20.2320499420166
1618853603.62967,-27.23956,20.24766993522644
1618853603.6453,-31.25952,20.2632999420166
1618853603.66093,-36.90784,20.278929948806763
1618853603.67655,-44.37671,20.2945499420166
1618853603.69218,-53.34003,20.310179948806763
1618853603.7078,-62.82239,20.3257999420166
1618853603.72343,-71.21198,20.341429948806763
1618853603.73905,-76.43054,20.3570499420166
1618853603.75468,-76.34344,20.372679948806763
1618853603.77031,-69.34467,20.388309955596924
1618853603.78593,-54.8548,20.403929948806763
1618853603.80156,-33.58417,20.419559955596924
1618853603.81718,-7.410583,20.435179948806763
1618853603.83281,21.07166,20.450809955596924
1618853603.84843,49.17706,20.466429948806763
1618853603.86406,74.65143,20.482059955596924
1618853603.87969,95.97046,20.497689962387085
1618853603.89531,112.3352,20.513309955596924
1618853603.91094,123.5319,20.528939962387085
1618853603.92656,129.6778,20.544559955596924
1618853603.94219,131.1227,20.560189962387085
1618853603.95781,128.4324,20.575809955596924
1618853603.97344,122.4931,20.591439962387085
1618853603.98907,114.5148,20.607069969177246
1618853604.00469,105.9069,20.622689962387085
1618853604.02032,98.00372,20.638319969177246
1618853604.03594,91.70349,20.653939962387085
1618853604.05157,87.1546,20.669569969177246
1618853604.06719,83.7558,20.685189962387085
1618853604.08282,80.4425,20.700819969177246
1618853604.09845,76.21637,20.716449975967407
1618853604.11407,70.58569,20.732069969177246
1618853604.1297,63.79498,20.747699975967407
1618853604.14532,56.65485,20.763319969177246
1618853604.16095,50.17273,20.778949975967407
1618853604.17657,45.12219,20.794569969177246
1618853604.1922,41.76331,20.810199975967407
1618853604.20783,39.81055,20.82582998275757
1618853604.22345,38.56537,20.841449975967407
1618853604.23908,37.13593,20.85707998275757
1618853604.2547,34.58636,20.872699975967407
1618853604.27033,30.04016,20.88832998275757
1618853604.28595,22.78497,20.903949975967407
1618853604.30158,12.5235,20.91957998275757
1618853604.31721,-0.2802124,20.93520998954773
1618853604.33283,-14.22125,20.95082998275757
1618853604.34846,-27.00305,20.96645998954773
1618853604.36408,-35.87921,20.98207998275757
1618853604.37971,-38.38885,20.99770998954773
1618853604.39533,-33.16046,21.01332998275757
1618853604.41096,-20.3913,21.02895998954773
1618853604.42659,-1.856689,21.04458999633789
1618853604.44221,19.65979,21.06020998954773
1618853604.45784,41.47528,21.07583999633789
1618853604.47346,61.53815,21.09145998954773
1618853604.48909,78.67731,21.10708999633789
1618853604.50471,92.43262,21.12270998954773
1618853604.52034,102.6647,21.13833999633789
1618853604.53597,109.2247,21.15397000312805
1618853604.55159,111.8749,21.16958999633789
1618853604.56722,110.488,21.18522000312805
1618853604.58284,105.2851,21.20083999633789
1618853604.59847,97.56689,21.21647000312805
1618853604.61409,89.25781,21.23208999633789
1618853604.62972,82.33252,21.24772000312805
1618853604.64535,78.19513,21.263350009918213
1618853604.66097,77.27478,21.27897000312805
1618853604.6766,78.99963,21.294600009918213
1618853604.69222,82.18146,21.31022000312805
1618853604.70785,85.50604,21.325850009918213
1618853604.72347,88.00037,21.34147000312805
1618853604.7391,90.14246,21.357100009918213
1618853604.75473,93.21692,21.372730016708374
1618853604.77035,98.48535,21.388350009918213
1618853604.78598,106.3856,21.403980016708374
1618853604.8016,116.229,21.419600009918213
1618853604.81723,126.4352,21.435230016708374
1618853604.83285,135.2954,21.450850009918213
1618853604.84848,141.65,21.466480016708374
1618853604.86411,145.19,21.482110023498535
1618853604.87973,147.3803,21.497730016708374
1618853604.89536,150.5387,21.513360023498535
1618853604.91098,156.785,21.528980016708374
1618853604.92661,167.4902,21.544610023498535
1618853604.94223,183.2619,21.560230016708374
1618853604.95786,204.1744,21.575860023498535
1618853604.97349,230.0319,21.591490030288696
1618853604.98911,260.2704,21.607110023498535
1618853605.00474,284.0969,21.622740030288696
1618853605.02036,291.4216,21.638360023498535
1618853605.03599,275.0539,21.653990030288696
1618853605.05161,233.3204,21.669610023498535
1618853605.06724,171.3287,21.685240030288696
1618853605.08287,98.90054,21.700870037078857
1618853605.09849,26.26788,21.716490030288696
1618853605.11412,-39.26501,21.732120037078857
1618853605.12974,-94.42438,21.747740030288696
1618853605.14537,-136.0842,21.763370037078857
1618853605.16099,-166.2873,21.778990030288696
1618853605.17662,-186.5616,21.794620037078857
1618853605.19225,-197.4491,21.81025004386902
1618853605.20787,-199.5628,21.825870037078857
1618853605.2235,-194.5723,21.84150004386902
1618853605.23912,-185.4672,21.857120037078857
1618853605.25475,-175.9368,21.87275004386902
1618853605.27037,-169.4949,21.888370037078857
1618853605.286,-168.0234,21.90400004386902
1618853605.30163,-171.2935,21.91963005065918
1618853605.31725,-177.0735,21.93525004386902
1618853605.33288,-182.5832,21.95088005065918
1618853605.3485,-185.7134,21.96650004386902
1618853605.36413,-185.6462,21.98213005065918
1618853605.37975,-182.874,21.99775004386902
1618853605.39538,-178.6191,22.01338005065918
1618853605.41101,-174.3021,22.02901005744934
1618853605.42663,-171.2684,22.04463005065918
1618853605.44226,-170.4205,22.06026005744934
1618853605.45788,-171.9486,22.07588005065918
1618853605.47351,-175.841,22.09151005744934
1618853605.48914,-181.8336,22.107140064239502
1618853605.50476,-189.2139,22.12276005744934
1618853605.52039,-196.7455,22.138390064239502
1618853605.53601,-202.8846,22.15401005744934
1618853605.55164,-206.3051,22.169640064239502
1618853605.56726,-206.418,22.18526005744934
1618853605.58289,-203.4128,22.200890064239502
1618853605.59852,-197.605,22.216520071029663
1618853605.61414,-189.154,22.232140064239502
1618853605.62977,-177.8735,22.247770071029663
1618853605.64539,-163.3739,22.263390064239502
1618853605.66102,-145.5435,22.279020071029663
1618853605.67664,-125.0653,22.294640064239502
1618853605.69227,-103.4845,22.310270071029663
1618853605.7079,-82.77214,22.325900077819824
1618853605.72352,-64.64693,22.341520071029663
1618853605.73915,-49.80203,22.357150077819824
1618853605.75477,-37.94774,22.372770071029663
1618853605.7704,-28.31912,22.388400077819824
1618853605.78602,-20.30357,22.404020071029663
1618853605.80165,-13.80138,22.419650077819824
1618853605.81728,-9.198868,22.435280084609985
1618853605.8329,-6.923904,22.450900077819824
1618853605.84853,-6.995392,22.466530084609985
1618853605.86415,-8.821518,22.482150077819824
1618853605.87978,-11.27596,22.497780084609985
1618853605.8954,-13.14325,22.513400077819824
1618853605.91103,-13.59512,22.529030084609985
1618853605.92666,-12.48389,22.544660091400146
1618853605.94228,-10.29245,22.560280084609985
1618853605.95791,-7.856903,22.575910091400146
1618853605.97353,-5.984146,22.591530084609985
1618853605.98916,-5.144974,22.607160091400146
1618853606.00478,-5.376373,22.622780084609985
1618853606.02041,-6.413437,22.638410091400146
1618853606.03604,-7.913406,22.654040098190308
1618853606.05166,-9.673187,22.669660091400146
1618853606.06729,-11.71057,22.685290098190308
1618853606.08291,-14.23573,22.700910091400146
1618853606.09854,-17.57109,22.716540098190308
1618853606.11416,-22.04099,22.732160091400146
1618853606.12979,-27.85463,22.747790098190308
1618853606.14542,-34.98799,22.76342010498047
1618853606.16104,-42.99374,22.779040098190308
1618853606.17667,-50.8745,22.79467010498047
1618853606.19229,-57.13176,22.810290098190308
1618853606.20792,-60.00529,22.82592010498047
1618853606.22354,-57.92424,22.841540098190308
1618853606.23917,-50.03618,22.85717010498047
1618853606.2548,-36.569,22.87280011177063
1618853606.27042,-18.81711,22.88842010498047
1618853606.28605,1.182236,22.90405011177063
1618853606.30167,21.2233,22.91967010498047
1618853606.3173,39.44438,22.93530011177063
1618853606.33292,54.59029,22.95092010498047
1618853606.34855,66.04678,22.96655011177063
1618853606.36418,73.66577,22.98218011856079
1618853606.3798,77.58582,22.99780011177063
1618853606.39543,78.13943,23.01343011856079
1618853606.41105,75.87492,23.02905011177063
1618853606.42668,71.52022,23.04468011856079
1618853606.4423,65.93874,23.06030011177063
1618853606.45793,59.98419,23.07593011856079
1618853606.47356,54.33584,23.091560125350952
1618853606.48918,49.4156,23.10718011856079
1618853606.50481,45.3944,23.122810125350952
1618853606.52043,42.27126,23.13843011856079
1618853606.53606,39.97681,23.154060125350952
1618853606.55168,38.41798,23.16968011856079
1618853606.56731,37.4595,23.185310125350952
1618853606.58294,36.88986,23.200940132141113
1618853606.59856,36.44187,23.216560125350952
1618853606.61419,35.85672,23.232190132141113
1618853606.62981,34.9796,23.247810125350952
1618853606.64544,33.78829,23.263440132141113
1618853606.66106,32.3284,23.279060125350952
1618853606.67669,30.62019,23.294690132141113
1618853606.69232,28.56865,23.310320138931274
1618853606.70794,25.93398,23.325940132141113
1618853606.72357,22.40193,23.341570138931274
1618853606.73919,17.67093,23.357190132141113
1618853606.75482,11.54945,23.372820138931274
1618853606.77044,4.061226,23.388440132141113
1618853606.78607,-4.436394,23.404070138931274
1618853606.8017,-13.12339,23.419700145721436
1618853606.81732,-20.69007,23.435320138931274
1618853606.83295,-25.50452,23.450950145721436
1618853606.84857,-26.00233,23.466570138931274
1618853606.8642,-21.15417,23.482200145721436
1618853606.87982,-10.86187,23.497820138931274
1618853606.89545,3.927376,23.513450145721436
1618853606.91108,21.49239,23.529079914093018
1618853606.9267,39.81659,23.544700145721436
1618853606.94233,57.08018,23.560329914093018
1618853606.95795,71.95619,23.575950145721436
1618853606.97358,83.62148,23.591579914093018
1618853606.9892,91.60057,23.607200145721436
1618853607.00483,95.59125,23.622829914093018
1618853607.02046,95.38284,23.63845992088318
1618853607.03608,90.88373,23.654079914093018
1618853607.05171,82.21832,23.66970992088318
1618853607.06733,69.82892,23.685329914093018
1618853607.08296,54.47337,23.70095992088318
1618853607.09858,37.15845,23.716579914093018
1618853607.11421,18.99878,23.73220992088318
1618853607.12984,1.108826,23.74783992767334
1618853607.14546,-15.49933,23.76345992088318
1618853607.16109,-29.94901,23.77908992767334
1618853607.17671,-41.50301,23.79470992088318
1618853607.19234,-49.57468,23.81033992767334
1618853607.20796,-53.841,23.82595992088318
1618853607.22359,-54.32397,23.84158992767334
1618853607.23922,-51.50771,23.8572199344635
1618853607.25484,-46.32837,23.87283992767334
1618853607.27047,-40.01463,23.8884699344635
1618853607.28609,-33.86422,23.90408992767334
1618853607.30172,-29.00834,23.9197199344635
1618853607.31734,-26.27957,23.93533992767334
1618853607.33297,-26.13776,23.9509699344635
1618853607.3486,-28.78895,23.966599941253662
1618853607.36422,-34.21045,23.9822199344635
1618853607.37985,-42.12206,23.997849941253662
1618853607.39547,-51.86697,24.0134699344635
1618853607.4111,-62.32021,24.029099941253662
1618853607.42672,-71.94244,24.0447199344635
1618853607.44235,-78.99088,24.060349941253662
1618853607.45798,-81.91478,24.075979948043823
1618853607.4736,-79.74515,24.091599941253662
1618853607.48923,-72.41281,24.107229948043823
1618853607.50485,-60.74538,24.122849941253662
1618853607.52048,-46.20427,24.138479948043823
1618853607.5361,-30.48807,24.154099941253662
1618853607.55173,-15.10545,24.169729948043823
1618853607.56736,-1.140335,24.185359954833984
1618853607.58298,10.83401,24.200979948043823
1618853607.59861,20.60579,24.216609954833984
1618853607.61423,28.17262,24.232229948043823
1618853607.62986,33.58562,24.247859954833984
1618853607.64548,36.90852,24.263479948043823
1618853607.66111,38.20802,24.279109954833984
1618853607.67674,37.57497,24.294739961624146
1618853607.69236,35.16936,24.310359954833984
1618853607.70799,31.23473,24.325989961624146
1618853607.72361,26.1469,24.341609954833984
1618853607.73924,20.40431,24.357239961624146
1618853607.75486,14.60353,24.372859954833984
1618853607.77049,9.316376,24.388489961624146
1618853607.78612,5.004089,24.404119968414307
1618853607.80174,1.886841,24.419739961624146
1618853607.81737,-0.08731079,24.435369968414307
1618853607.83299,-1.19075,24.450989961624146
1618853607.84862,-1.823227,24.466619968414307
1618853607.86424,-2.391296,24.482239961624146
1618853607.87987,-3.262283,24.497869968414307
1618853607.8955,-4.737686,24.513499975204468
1618853607.91112,-7.043869,24.529119968414307
1618853607.92675,-10.38385,24.544749975204468
1618853607.94237,-14.89703,24.560369968414307
1618853607.958,-20.7097,24.575999975204468
1618853607.97362,-27.82593,24.591619968414307
1618853607.98925,-36.03754,24.607249975204468
1618853608.00488,-44.80612,24.62287998199463
1618853608.0205,-53.1641,24.638499975204468
1618853608.03613,-59.79539,24.65412998199463
1618853608.05175,-63.25778,24.669749975204468
1618853608.06738,-62.36842,24.68537998199463
1618853608.08301,-56.54073,24.70100998878479
1618853608.09863,-46.03864,24.71662998199463
1618853608.11426,-31.8858,24.73225998878479
1618853608.12988,-15.60888,24.74787998199463
1618853608.14551,1.149857,24.76350998878479
1618853608.16113,16.93483,24.77912998199463
1618853608.17676,30.66145,24.79475998878479
1618853608.19239,41.62498,24.81038999557495
1618853608.20801,49.45841,24.82600998878479
1618853608.22364,54.06264,24.84163999557495
1618853608.23926,55.57742,24.85725998878479
1618853608.25489,54.35357,24.87288999557495
1618853608.27051,50.90987,24.88850998878479
1618853608.28614,45.88796,24.90413999557495
1618853608.30177,39.97488,24.919770002365112
1618853608.31739,33.84577,24.93538999557495
1618853608.33302,28.10811,24.951020002365112
1618853608.34864,23.22235,24.96663999557495
1618853608.36427,19.43265,24.982270002365112
1618853608.37989,16.67347,24.99788999557495
1618853608.39552,14.64077,25.013520002365112
1618853608.41115,12.90511,25.029150009155273
1618853608.42677,11.07317,25.044770002365112
1618853608.4424,8.979454,25.060400009155273
1618853608.45802,6.675919,25.076020002365112
1618853608.47365,4.32872,25.091650009155273
1618853608.48927,2.035049,25.107270002365112
1618853608.5049,-0.3180618,25.122900009155273
1618853608.52053,-3.025871,25.138530015945435
1618853608.53615,-6.474655,25.154150009155273
1618853608.55178,-10.97564,25.169780015945435
1618853608.5674,-16.68682,25.185400009155273
1618853608.58303,-23.55511,25.201030015945435
1618853608.59865,-31.27959,25.216650009155273
1618853608.61428,-39.32715,25.232280015945435
1618853608.62991,-46.85498,25.247910022735596
1618853608.64553,-52.73441,25.263530015945435
1618853608.66116,-55.6792,25.279160022735596
1618853608.67678,-54.54049,25.294780015945435
1618853608.69241,-48.67507,25.310410022735596
1618853608.70803,-38.23005,25.326030015945435
1618853608.72366,-24.2024,25.341660022735596
1618853608.73929,-8.191269,25.357290029525757
1618853608.75491,8.005341,25.372910022735596
1618853608.77054,22.80997,25.388540029525757
1618853608.78616,35.1328,25.404160022735596
1618853608.80179,44.41615,25.419790029525757
1618853608.81741,50.5232,25.435410022735596
1618853608.83304,53.54848,25.451040029525757
1618853608.84867,53.71509,25.466670036315918
1618853608.86429,51.34846,25.482290029525757
1618853608.87992,46.89031,25.497920036315918
1618853608.89554,40.92596,25.513540029525757
1618853608.91117,34.15542,25.529170036315918
1618853608.92679,27.31364,25.544790029525757
1618853608.94242,21.05589,25.560420036315918
1618853608.95805,15.8381,25.57605004310608
1618853608.97367,11.88543,25.591670036315918
1618853608.9893,9.193176,25.60730004310608
1618853609.00492,7.540154,25.622920036315918
1618853609.02055,6.59021,25.63855004310608
1618853609.03617,5.914078,25.654170036315918
1618853609.0518,5.117142,25.66980004310608
1618853609.06743,3.893013,25.68543004989624
1618853609.08305,2.034126,25.70105004310608
1618853609.09868,-0.5382233,25.71668004989624
1618853609.1143,-3.816261,25.73230004310608
1618853609.12993,-7.746109,25.74793004989624
1618853609.14555,-12.26968,25.76355004310608
1618853609.16118,-17.38681,25.77918004989624
1618853609.17681,-23.15713,25.7948100566864
1618853609.19243,-29.68418,25.81043004989624
1618853609.20806,-36.95614,25.8260600566864
1618853609.22368,-44.73018,25.84168004989624
1618853609.23931,-52.33379,25.8573100566864
1618853609.25493,-58.67266,25.87293004989624
1618853609.27056,-62.37996,25.8885600566864
1618853609.28619,-62.16023,25.904190063476562
1618853609.30181,-57.21461,25.9198100566864
1618853609.31744,-47.52969,25.935440063476562
1618853609.33306,-33.95493,25.9510600566864
1618853609.34869,-17.94947,25.966690063476562
1618853609.36431,-1.236076,25.9823100566864
1618853609.37994,14.63593,25.997940063476562
1618853609.39557,28.47203,26.013570070266724
1618853609.41119,39.49158,26.029190063476562
1618853609.42682,47.24422,26.044820070266724
1618853609.44244,51.52068,26.060440063476562
1618853609.45807,52.36463,26.076070070266724
1618853609.47369,50.09343,26.091690063476562
1618853609.48932,45.35973,26.107320070266724
1618853609.50495,39.07189,26.122950077056885
1618853609.52057,32.25402,26.138570070266724
1618853609.5362,25.80616,26.154200077056885
1618853609.55182,20.34753,26.169820070266724
1618853609.56745,16.16334,26.185450077056885
1618853609.58307,13.21989,26.201070070266724
1618853609.5987,11.29664,26.216700077056885
1618853609.61433,10.04755,26.232330083847046
1618853609.62995,9.114029,26.247950077056885
1618853609.64558,8.137756,26.263580083847046
1618853609.6612,6.824028,26.279200077056885
1618853609.67683,4.966667,26.294830083847046
1618853609.69245,2.507629,26.310450077056885
1618853609.70808,-0.4539566,26.326080083847046
1618853609.72371,-3.748688,26.341710090637207
1618853609.73933,-7.181282,26.357330083847046
1618853609.75496,-10.69439,26.372960090637207
1618853609.77058,-14.42583,26.388580083847046
1618853609.78621,-18.70792,26.404210090637207
1618853609.80183,-23.91461,26.419830083847046
1618853609.81746,-30.2592,26.435460090637207
1618853609.83309,-37.5363,26.451090097427368
1618853609.84871,-44.99967,26.466710090637207
1618853609.86434,-51.38731,26.482340097427368
1618853609.87996,-55.17571,26.497960090637207
1618853609.89559,-54.95824,26.513590097427368
1618853609.91121,-49.85149,26.529210090637207
1618853609.92684,-39.79144,26.544840097427368
1618853609.94247,-25.60611,26.56047010421753
1618853609.95809,-8.839668,26.576090097427368
1618853609.97372,8.591911,26.59172010421753
1618853609.98934,24.83427,26.607340097427368
1618853610.00497,38.46475,26.62297010421753
1618853610.02059,48.67873,26.638590097427368
1618853610.03622,55.33001,26.65422010421753
1618853610.05185,58.72877,26.66985011100769
1618853610.06747,59.40486,26.68547010421753
1618853610.0831,57.91237,26.70110011100769
1618853610.09872,54.69614,26.71672010421753
1618853610.11435,50.10487,26.73235011100769
1618853610.12997,44.49719,26.74797010421753
1618853610.1456,38.31634,26.76360011100769
1618853610.16123,32.13349,26.77923011779785
1618853610.17685,26.53599,26.79485011100769
1618853610.19248,21.99633,26.81048011779785
1618853610.2081,18.728,26.82610011100769
1618853610.22373,16.60161,26.84173011779785
1618853610.23935,15.21162,26.85735011100769
1618853610.25498,14.03555,26.87298011779785
1618853610.27061,12.58331,26.888610124588013
1618853610.28623,10.52894,26.90423011779785
1618853610.30186,7.759071,26.919860124588013
1618853610.31748,4.307327,26.93548011779785
1618853610.33311,0.2643051,26.951110124588013
1618853610.34874,-4.275986,26.966740131378174
1618853610.36436,-9.256111,26.982360124588013
1618853610.37999,-14.63165,26.997990131378174
1618853610.39561,-20.35292,27.013610124588013
1618853610.41124,-26.40717,27.029240131378174
1618853610.42686,-32.87293,27.044860124588013
1618853610.44249,-39.9467,27.060490131378174
1618853610.45812,-47.80199,27.076120138168335
1618853610.47374,-56.36555,27.091740131378174
1618853610.48937,-65.05184,27.107370138168335
1618853610.50499,-72.68333,27.122990131378174
1618853610.52062,-77.64411,27.138620138168335
1618853610.53624,-78.30834,27.154240131378174
1618853610.55187,-73.55228,27.169870138168335
1618853610.5675,-63.20071,27.185500144958496
1618853610.58312,-48.11115,27.201120138168335
1618853610.59875,-29.96353,27.216750144958496
1618853610.61437,-10.79436,27.232370138168335
1618853610.63,7.514221,27.248000144958496
1618853610.64562,23.59863,27.263620138168335
1618853610.66125,36.73174,27.279250144958496
1618853610.67688,46.70365,27.294879913330078
1618853610.6925,53.62784,27.310500144958496
1618853610.70813,57.76099,27.326129913330078
1618853610.72375,59.41174,27.341750144958496
1618853610.73938,58.90088,27.357379913330078
1618853610.755,56.6246,27.373000144958496
1618853610.77063,53.03772,27.388629913330078
1618853610.78626,48.61331,27.40425992012024
1618853610.80188,43.81724,27.419879913330078
1618853610.81751,39.04454,27.43550992012024
1618853610.83313,34.61171,27.451129913330078
1618853610.84876,30.77937,27.46675992012024
1618853610.86438,27.76341,27.482379913330078
1618853610.88001,25.68523,27.49800992012024
1618853610.89564,24.55929,27.5136399269104
1618853610.91126,24.20723,27.52925992012024
1618853610.92689,24.27223,27.5448899269104
1618853610.94251,24.25062,27.56050992012024
1618853610.95814,23.59325,27.5761399269104
1618853610.97376,21.84969,27.59175992012024
1618853610.98939,18.77563,27.6073899269104
1618853611.00502,14.3554,27.62301993370056
1618853611.02064,8.838287,27.6386399269104
1618853611.03627,2.631401,27.65426993370056
1618853611.05189,-3.829819,27.6698899269104
1618853611.06752,-10.20288,27.68551993370056
1618853611.08314,-16.35951,27.7011399269104
1618853611.09877,-22.43565,27.71676993370056
1618853611.1144,-28.75177,27.732399940490723
1618853611.13002,-35.66811,27.74801993370056
1618853611.14565,-43.36105,27.763649940490723
1618853611.16127,-51.54201,27.77926993370056
1618853611.1769,-59.35796,27.794899940490723
1618853611.19252,-65.46907,27.81051993370056
1618853611.20815,-68.34267,27.826149940490723
1618853611.22378,-66.69358,27.841779947280884
1618853611.2394,-59.97488,27.857399940490723
1618853611.25503,-48.56587,27.873029947280884
1618853611.27065,-33.6925,27.888649940490723
1618853611.28628,-17.08657,27.904279947280884
1618853611.3019,-0.4891663,27.919899940490723
1618853611.31753,14.72826,27.935529947280884
1618853611.33316,27.72475,27.951159954071045
1618853611.34878,38.0989,27.966779947280884
1618853611.36441,45.7226,27.982409954071045
1618853611.38003,50.53973,27.998029947280884
1618853611.39566,52.59105,28.013659954071045
1618853611.41128,52.08054,28.029279947280884
1618853611.42691,49.4926,28.044909954071045
1618853611.44254,45.56017,28.060539960861206
1618853611.45816,41.14613,28.076159954071045
1618853611.47379,36.99468,28.091789960861206
1618853611.48941,33.52406,28.107409954071045
1618853611.50504,30.74512,28.123039960861206
1618853611.52066,28.3954,28.138659954071045
1618853611.53629,26.15398,28.154289960861206
1618853611.55192,23.86169,28.169919967651367
1618853611.56754,21.60445,28.185539960861206
1618853611.58317,19.62225,28.201169967651367
1618853611.59879,18.13106,28.216789960861206
1618853611.61442,17.14236,28.232419967651367
1618853611.63004,16.47476,28.248039960861206
1618853611.64567,15.75418,28.263669967651367
1618853611.6613,14.56546,28.27929997444153
1618853611.67692,12.53741,28.294919967651367
1618853611.69255,9.400421,28.31054997444153
1618853611.70817,5.041428,28.326169967651367
1618853611.7238,-0.4770508,28.34179997444153
1618853611.73942,-6.885666,28.357419967651367
1618853611.75505,-13.77438,28.37304997444153
1618853611.77068,-20.67091,28.38867998123169
1618853611.7863,-27.2178,28.40429997444153
1618853611.80193,-33.34698,28.41992998123169
1618853611.81755,-39.30949,28.43554997444153
1618853611.83318,-45.58992,28.45117998123169
1618853611.8488,-52.6857,28.46679997444153
1618853611.86443,-60.78087,28.48242998123169
1618853611.88006,-69.52399,28.49805998802185
1618853611.89568,-77.97568,28.51367998123169
1618853611.91131,-84.68387,28.52930998802185
1618853611.92693,-88.02307,28.54492998123169
1618853611.94256,-86.60735,28.56055998802185
1618853611.95818,-79.71159,28.57617998123169
1618853611.97381,-67.52711,28.59180998802185
1618853611.98944,-51.20473,28.60743999481201
1618853612.00506,-32.5768,28.62305998802185
1618853612.02069,-13.6765,28.63868999481201
1618853612.03631,3.729004,28.65430998802185
1618853612.05194,18.49142,28.66993999481201
1618853612.06756,30.13631,28.68555998802185
1618853612.08319,38.7126,28.70118999481201
1618853612.09882,44.49362,28.716820001602173
1618853612.11444,47.78175,28.73243999481201
1618853612.13007,48.83768,28.748070001602173
1618853612.14569,47.9558,28.76368999481201
1618853612.16132,45.58521,28.779320001602173
1618853612.17694,42.32319,28.79493999481201
1618853612.19257,38.79428,28.810570001602173
1618853612.2082,35.50098,28.826200008392334
1618853612.22382,32.67448,28.841820001602173
1618853612.23945,30.28535,28.857450008392334
1618853612.25507,28.18254,28.873070001602173
1618853612.2707,26.25172,28.888700008392334
1618853612.28632,24.53215,28.904320001602173
1618853612.30195,23.20584,28.919950008392334
1618853612.31758,22.45006,28.935580015182495
1618853612.3332,22.27843,28.951200008392334
1618853612.34883,22.43629,28.966830015182495
1618853612.36445,22.41753,28.982450008392334
1618853612.38008,21.58983,28.998080015182495
1618853612.3957,19.39935,29.013700008392334
1618853612.41133,15.56671,29.029330015182495
1618853612.42696,10.18127,29.044960021972656
1618853612.44258,3.722977,29.060580015182495
1618853612.45821,-3.124985,29.076210021972656
1618853612.47383,-9.694382,29.091830015182495
1618853612.48946,-15.55434,29.107460021972656
1618853612.50508,-20.64716,29.123080015182495
1618853612.52071,-25.27441,29.138710021972656
1618853612.53634,-29.94743,29.154340028762817
1618853612.55196,-35.18109,29.169960021972656
1618853612.56759,-41.31921,29.185590028762817
1618853612.58321,-48.34425,29.201210021972656
1618853612.59884,-55.82352,29.216840028762817
1618853612.61447,-62.87012,29.23247003555298
1618853612.63009,-68.26694,29.248090028762817
1618853612.64572,-70.65753,29.26372003555298
1618853612.66134,-68.89342,29.279340028762817
1618853612.67697,-62.36093,29.29497003555298
1618853612.69259,-51.23381,29.310590028762817
1618853612.70822,-36.51282,29.32622003555298
1618853612.72385,-19.78052,29.34185004234314
1618853612.73947,-2.816132,29.35747003555298
1618853612.7551,12.83401,29.37310004234314
1618853612.77072,26.11101,29.38872003555298
1618853612.78635,36.50037,29.40435004234314
1618853612.80197,43.907,29.41997003555298
1618853612.8176,48.48482,29.43560004234314
1618853612.83323,50.48375,29.4512300491333
1618853612.84885,50.20702,29.46685004234314
1618853612.86448,48.0284,29.4824800491333
1618853612.8801,44.42766,29.49810004234314
1618853612.89573,39.98521,29.5137300491333
1618853612.91135,35.31979,29.52935004234314
1618853612.92698,30.96193,29.5449800491333
1618853612.94261,27.24245,29.560610055923462
1618853612.95823,24.24419,29.5762300491333
1618853612.97386,21.85345,29.591860055923462
1618853612.98948,19.85437,29.6074800491333
1618853613.00511,18.10037,29.623110055923462
1618853613.02073,16.55573,29.6387300491333
1618853613.03636,15.28325,29.654360055923462
1618853613.05199,14.32742,29.669990062713623
1618853613.06761,13.58862,29.685610055923462
1618853613.08324,12.76524,29.701240062713623
1618853613.09886,11.4129,29.716860055923462
1618853613.11449,9.107864,29.732490062713623
1618853613.13011,5.620438,29.748110055923462
1618853613.14574,1.061005,29.763740062713623
1618853613.16137,-4.191025,29.779370069503784
1618853613.17699,-9.61116,29.794990062713623
1618853613.19262,-14.75206,29.810620069503784
1618853613.20824,-19.40102,29.826240062713623
1618853613.22387,-23.68443,29.841870069503784
1618853613.23949,-27.97826,29.857490062713623
1618853613.25512,-32.774,29.873120069503784
1618853613.27075,-38.47418,29.888750076293945
1618853613.28637,-45.20978,29.904370069503784
1618853613.302,-52.7205,29.920000076293945
1618853613.31762,-60.26649,29.935620069503784
1618853613.33325,-66.70204,29.951250076293945
1618853613.34887,-70.62335,29.966870069503784
1618853613.3645,-70.70572,29.982500076293945
1618853613.38013,-66.06506,29.998130083084106
1618853613.39575,-56.60168,30.013750076293945
1618853613.41138,-43.10828,30.029380083084106
1618853613.427,-27.08234,30.045000076293945
1618853613.44263,-10.31967,30.060630083084106
1618853613.45825,5.547104,30.076250076293945
1618853613.47388,19.39697,30.091880083084106
1618853613.48951,30.68303,30.107510089874268
1618853613.50513,39.28427,30.123130083084106
1618853613.52076,45.27032,30.138760089874268
1618853613.53638,48.75023,30.154380083084106
1618853613.55201,49.85162,30.170010089874268
1618853613.56763,48.79146,30.185630083084106
1618853613.58326,45.96672,30.201260089874268
1618853613.59889,41.96994,30.21689009666443
1618853613.61451,37.47197,30.232510089874268
1618853613.63014,33.08763,30.24814009666443
1618853613.64576,29.26532,30.263760089874268
1618853613.66139,26.23186,30.27939009666443
1618853613.67701,24.01776,30.295010089874268
1618853613.69264,22.50941,30.31064009666443
1618853613.70827,21.53586,30.32627010345459
1618853613.72389,20.91699,30.34189009666443
1618853613.73952,20.51678,30.35752010345459
1618853613.75514,20.20525,30.37314009666443
1618853613.77077,19.85107,30.38877010345459
1618853613.78639,19.2515,30.40439009666443
1618853613.80202,18.1467,30.42002010345459
1618853613.81765,16.29688,30.43565011024475
1618853613.83327,13.54875,30.45127010345459
1618853613.8489,9.882843,30.46690011024475
1618853613.86452,5.431152,30.48252010345459
1618853613.88015,0.4074249,30.49815011024475
1618853613.89577,-4.970856,30.51377010345459
1618853613.9114,-10.54324,30.52940011024475
1618853613.92703,-16.17859,30.545030117034912
1618853613.94265,-21.77286,30.56065011024475
1618853613.95828,-27.2112,30.576280117034912
1618853613.9739,-32.39153,30.59190011024475
1618853613.98953,-37.31035,30.607530117034912
1618853614.00515,-42.10538,30.62315011024475
1618853614.02078,-47.08643,30.638780117034912
1618853614.03641,-52.58711,30.654410123825073
1618853614.05203,-58.74635,30.670030117034912
1618853614.06766,-65.27731,30.685660123825073
1618853614.08328,-71.33167,30.701280117034912
1618853614.09891,-75.59038,30.716910123825073
1618853614.11453,-76.58894,30.732530117034912
1618853614.13016,-73.19955,30.748160123825073
1618853614.14579,-65.00597,30.763790130615234
1618853614.16141,-52.46233,30.779410123825073
1618853614.17704,-36.81335,30.795040130615234
1618853614.19266,-19.72099,30.810660123825073
1618853614.20829,-2.866211,30.826290130615234
1618853614.22391,12.37727,30.841910123825073
1618853614.23954,25.12331,30.857540130615234
1618853614.25517,34.99484,30.873170137405396
1618853614.27079,42.01178,30.888790130615234
1618853614.28642,46.45146,30.904420137405396
1618853614.30204,48.71649,30.920040130615234
1618853614.31767,49.2101,30.935670137405396
1618853614.33329,48.33141,30.951290130615234
1618853614.34892,46.42973,30.966920137405396
1618853614.36455,43.84393,30.982550144195557
1618853614.38017,40.91028,30.998170137405396
1618853614.3958,37.96396,31.013800144195557
1618853614.41142,35.27925,31.029420137405396
1618853614.42705,33.02396,31.045050144195557
1618853614.44267,31.24127,31.060670137405396
1618853614.4583,29.84058,31.076300144195557
1618853614.47393,28.67444,31.09192991256714
1618853614.48955,27.60812,31.107550144195557
1618853614.50518,26.55537,31.12317991256714
1618853614.5208,25.46318,31.138800144195557
1618853614.53643,24.30525,31.15442991256714
1618853614.55205,22.97792,31.170050144195557
1618853614.56768,21.28618,31.18567991256714
1618853614.58331,18.98169,31.2013099193573
1618853614.59893,15.80252,31.21692991256714
1618853614.61456,11.64357,31.2325599193573
1618853614.63018,6.623276,31.24817991256714
1618853614.64581,1.052338,31.2638099193573
1618853614.66143,-4.617279,31.27942991256714
1618853614.67706,-10.00464,31.2950599193573
1618853614.69269,-14.91071,31.31068992614746
1618853614.70831,-19.37157,31.3263099193573
1618853614.72394,-23.60036,31.34193992614746
1618853614.73956,-27.89058,31.3575599193573
1618853614.75519,-32.53015,31.37318992614746
1618853614.77081,-37.78081,31.3888099193573
1618853614.78644,-43.83783,31.40443992614746
1618853614.80207,-50.70844,31.420069932937622
1618853614.81769,-58.07121,31.43568992614746
1618853614.83332,-65.11331,31.451319932937622
1618853614.84894,-70.56329,31.46693992614746
1618853614.86457,-72.94177,31.482569932937622
1618853614.88019,-71.01544,31.49818992614746
1618853614.89582,-64.21649,31.513819932937622
1618853614.91145,-52.87866,31.529449939727783
1618853614.92707,-38.16245,31.545069932937622
1618853614.9427,-21.715,31.560699939727783
1618853614.95832,-5.22345,31.576319932937622
1618853614.97395,9.905472,31.591949939727783
1618853614.98957,22.75842,31.607569932937622
1618853615.0052,32.89423,31.623199939727783
1618853615.02083,40.22404,31.638829946517944
1618853615.03645,44.92584,31.654449939727783
1618853615.05208,47.32756,31.670079946517944
1618853615.0677,47.82253,31.685699939727783
1618853615.08333,46.85449,31.701329946517944
1618853615.09895,44.84799,31.716949939727783
1618853615.11458,42.19986,31.732579946517944
1618853615.13021,39.24713,31.748209953308105
1618853615.14583,36.27049,31.763829946517944
1618853615.16146,33.49005,31.779459953308105
1618853615.17708,31.06177,31.795079946517944
1618853615.19271,29.07719,31.810709953308105
1618853615.20834,27.54892,31.826339960098267
1618853615.22396,26.42329,31.841959953308105
1618853615.23959,25.59613,31.857589960098267
1618853615.25521,24.95326,31.873209953308105
1618853615.27084,24.3712,31.888839960098267
1618853615.28646,23.73795,31.904459953308105
1618853615.30209,22.94691,31.920089960098267
1618853615.31772,21.84419,31.935719966888428
1618853615.33334,20.24504,31.951339960098267
1618853615.34897,17.92815,31.966969966888428
1618853615.36459,14.72925,31.982589960098267
1618853615.38022,10.61952,31.998219966888428
1618853615.39584,5.746201,32.01383996009827
1618853615.41147,0.434082,32.02946996688843
1618853615.4271,-4.93988,32.04509997367859
1618853615.44272,-10.06206,32.06071996688843
1618853615.45835,-14.77956,32.07634997367859
1618853615.47397,-19.13245,32.09196996688843
1618853615.4896,-23.27837,32.10759997367859
1618853615.50522,-27.44817,32.12321996688843
1618853615.52085,-31.88004,32.13884997367859
1618853615.53648,-36.77214,32.15447998046875
1618853615.5521,-42.24197,32.17009997367859
1618853615.56773,-48.23352,32.18572998046875
1618853615.58335,-54.42798,32.20134997367859
1618853615.59898,-60.15942,32.21697998046875
1618853615.6146,-64.44164,32.23259997367859
1618853615.63023,-66.14844,32.24822998046875
1618853615.64586,-64.29369,32.26385998725891
1618853615.66148,-58.33572,32.27947998046875
1618853615.67711,-48.38431,32.29510998725891
1618853615.69273,-35.19267,32.31072998046875
1618853615.70836,-19.97542,32.32635998725891
1618853615.72398,-4.125702,32.34197998046875
1618853615.73961,11.07683,32.35760998725891
1618853615.75524,24.65211,32.37323999404907
1618853615.77086,35.96054,32.38885998725891
1618853615.78649,44.61632,32.40448999404907
1618853615.80211,50.4565,32.42010998725891
1618853615.81774,53.4493,32.43573999404907
1618853615.83336,53.7579,32.45135998725891
1618853615.84899,51.77327,32.46698999404907
1618853615.86462,48.16632,32.48262000083923
1618853615.88024,43.785,32.49823999404907
1618853615.89587,39.50232,32.51387000083923
1618853615.91149,35.99629,32.52948999404907
1618853615.92712,33.57985,32.54512000083923
1618853615.94274,32.1765,32.56073999404907
1618853615.95837,31.4021,32.57637000083923
1618853615.974,30.79974,32.592000007629395
1618853615.98962,30.05104,32.60762000083923
1618853616.00525,29.07022,32.623250007629395
1618853616.02087,27.97028,32.63887000083923
1618853616.0365,26.90047,32.654500007629395
1618853616.05212,25.88281,32.67012000083923
1618853616.06775,24.72523,32.685750007629395
1618853616.08338,23.086,32.701380014419556
1618853616.099,20.59561,32.717000007629395
1618853616.11463,17.02072,32.732630014419556
1618853616.13025,12.34784,32.748250007629395
1618853616.14588,6.737976,32.763880014419556
1618853616.1615,0.4767456,32.779500007629395
1618853616.17713,-6.154388,32.795130014419556
1618853616.19276,-12.90594,32.81076002120972
1618853616.20838,-19.59024,32.826380014419556
1618853616.22401,-26.10181,32.84201002120972
1618853616.23963,-32.41565,32.857630014419556
1618853616.25526,-38.59219,32.87326002120972
1618853616.27088,-44.71851,32.888880014419556
1618853616.28651,-50.77914,32.90451002120972
1618853616.30214,-56.47894,32.92014002799988
1618853616.31776,-61.17337,32.93576002120972
1618853616.33339,-63.89853,32.95139002799988
1618853616.34901,-63.63449,32.96701002120972
1618853616.36464,-59.61224,32.98264002799988
1618853616.38026,-51.62616,32.99826002120972
1618853616.39589,-40.12222,33.01389002799988
1618853616.41152,-26.12836,33.02952003479004
1618853616.42714,-10.98691,33.04514002799988
1618853616.44277,3.952637,33.06077003479004
1618853616.45839,17.54416,33.07639002799988
1618853616.47402,28.95419,33.09202003479004
1618853616.48964,37.68399,33.10764002799988
1618853616.50527,43.49493,33.12327003479004
1618853616.5209,46.37341,33.1389000415802
1618853616.53652,46.47345,33.15452003479004
1618853616.55215,44.13498,33.1701500415802
1618853616.56777,39.84604,33.18577003479004
1618853616.5834,34.29816,33.2014000415802
1618853616.59902,28.28003,33.21702003479004
1618853616.61465,22.60104,33.2326500415802
1618853616.63028,17.91513,33.24828004837036
1618853616.6459,14.54495,33.2639000415802
1618853616.66153,12.42841,33.27953004837036
1618853616.67715,11.19717,33.2951500415802
1618853616.69278,10.39963,33.31078004837036
1618853616.7084,9.731598,33.3264000415802
1618853616.72403,9.175171,33.34203004837036
1618853616.73966,8.934937,33.35766005516052
1618853616.75528,9.278931,33.37328004837036
1618853616.77091,10.30838,33.38891005516052
1618853616.78653,11.86884,33.40453004837036
1618853616.80216,13.5929,33.42016005516052
1618853616.81778,15.01657,33.43578004837036
1618853616.83341,15.75299,33.45141005516052
1618853616.84904,15.57513,33.467040061950684
1618853616.86466,14.43741,33.48266005516052
1618853616.88029,12.38913,33.498290061950684
1618853616.89591,9.536621,33.51391005516052
1618853616.91154,5.98291,33.529540061950684
1618853616.92716,1.769897,33.54516005516052
1618853616.94279,-3.1604,33.560790061950684
1618853616.95842,-8.944031,33.576420068740845
1618853616.97404,-15.8031,33.592040061950684
1618853616.98967,-23.91577,33.607670068740845
1618853617.00529,-33.26706,33.623290061950684
1618853617.02092,-43.45261,33.638920068740845
1618853617.03654,-53.55841,33.654540061950684
1618853617.05217,-62.21475,33.670170068740845
1618853617.0678,-67.86285,33.685800075531006
1618853617.08342,-69.17435,33.701420068740845
1618853617.09905,-65.48044,33.717050075531006
1618853617.11467,-57.02066,33.732670068740845
1618853617.1303,-44.88049,33.748300075531006
1618853617.14592,-30.69135,33.763920068740845
1618853617.16155,-16.15903,33.779550075531006
1618853617.17718,-2.678467,33.79518008232117
1618853617.1928,8.829407,33.810800075531006
1618853617.20843,17.89886,33.82643008232117
1618853617.22405,24.32043,33.842050075531006
1618853617.23968,28.02637,33.85768008232117
1618853617.2553,29.01883,33.873300075531006
1618853617.27093,27.44128,33.88893008232117
1618853617.28656,23.62366,33.90456008911133
1618853617.30218,18.14865,33.92018008232117
1618853617.31781,11.76392,33.93581008911133
1618853617.33343,5.247772,33.95143008232117
1618853617.34906,-0.7392578,33.96706008911133
1618853617.36468,-5.785492,33.98268008232117
1618853617.38031,-9.755676,33.99831008911133
1618853617.39594,-12.7608,34.01394009590149
1618853617.41156,-15.05246,34.02956008911133
1618853617.42719,-16.93375,34.04519009590149
1618853617.44281,-18.71399,34.06081008911133
1618853617.45844,-20.67978,34.07644009590149
1618853617.47407,-23.08673,34.09207010269165
1618853617.48969,-26.15152,34.10769009590149
1618853617.50532,-30.06747,34.12332010269165
1618853617.52094,-34.93011,34.13894009590149
1618853617.53657,-40.74829,34.15457010269165
1618853617.55219,-47.39063,34.17019009590149
1618853617.56782,-54.57693,34.18582010269165
1618853617.58345,-61.94965,34.20145010948181
1618853617.59907,-69.14252,34.21707010269165
1618853617.6147,-75.86545,34.23270010948181
1618853617.63032,-81.94711,34.24832010269165
1618853617.64595,-87.34671,34.26395010948181
1618853617.66157,-91.98224,34.27957010269165
1618853617.6772,-95.64035,34.29520010948181
1618853617.69283,-97.99841,34.31083011627197
1618853617.70845,-98.8364,34.32645010948181
1618853617.72408,-98.27118,34.34208011627197
1618853617.7397,-96.75571,34.35770010948181
1618853617.75533,-94.68808,34.37333011627197
1618853617.77095,-91.83786,34.38895010948181
1618853617.78658,-87.02383,34.40458011627197
1618853617.80221,-78.38263,34.420210123062134
1618853617.81783,-64.28186,34.43583011627197
1618853617.83346,-44.39615,34.451460123062134
1618853617.84908,-20.25369,34.46708011627197
1618853617.86471,5.158783,34.482710123062134
1618853617.88033,28.60243,34.49833011627197
1618853617.89596,47.93668,34.513960123062134
1618853617.91159,62.89427,34.529590129852295
1618853617.92721,74.83615,34.545210123062134
1618853617.94284,85.76704,34.560840129852295
1618853617.95846,97.14174,34.576460123062134
1618853617.97409,109.2954,34.592090129852295
1618853617.98971,121.5465,34.607710123062134
1618853618.00534,132.8654,34.623340129852295
1618853618.02097,142.546,34.638970136642456
1618853618.03659,150.4934,34.654590129852295
1618853618.05222,156.9929,34.670220136642456
1618853618.06784,162.2838,34.685840129852295
1618853618.08347,166.2854,34.701470136642456
1618853618.09909,168.6407,34.717090129852295
1618853618.11472,169.2171,34.732720136642456
1618853618.13035,168.6801,34.74835014343262
1618853618.14597,168.7138,34.763970136642456
1618853618.1616,171.6313,34.77960014343262
1618853618.17722,179.4292,34.795220136642456
1618853618.19285,192.6601,34.81085014343262
1618853618.20847,209.7387,34.826470136642456
1618853618.2241,227.1902,34.84210014343262
1618853618.23973,240.6513,34.8577299118042
1618853618.25535,246.4334,34.87335014343262
1618853618.27098,242.7002,34.8889799118042
1618853618.2866,229.9015,34.90460014343262
1618853618.30223,210.1873,34.9202299118042
1618853618.31785,186.335,34.93585014343262
1618853618.33348,160.5841,34.9514799118042
1618853618.34911,133.9758,34.96710991859436
1618853618.36473,106.4204,34.9827299118042
1618853618.38036,77.22839,34.99835991859436
1618853618.39598,45.86984,35.0139799118042
1618853618.41161,12.47726,35.02960991859436
1618853618.42723,-22.06583,35.0452299118042
1618853618.44286,-56.3924,35.06085991859436
1618853618.45849,-89.00085,35.07648992538452
1618853618.47411,-118.5094,35.09210991859436
1618853618.48974,-143.6924,35.10773992538452
1618853618.50536,-163.4349,35.12335991859436
1618853618.52099,-176.8527,35.13898992538452
1618853618.53661,-183.476,35.15460991859436
1618853618.55224,-183.5979,35.17023992538452
1618853618.56787,-178.3772,35.18586993217468
1618853618.58349,-169.6216,35.20148992538452
1618853618.59912,-159.2349,35.21711993217468
1618853618.61474,-148.5696,35.23273992538452
1618853618.63037,-138.0895,35.24836993217468
1618853618.64599,-127.4176,35.26398992538452
1618853618.66162,-115.8757,35.27961993217468
1618853618.67725,-103.0787,35.295249938964844
1618853618.69287,-89.39941,35.31086993217468
1618853618.7085,-76.01642,35.326499938964844
1618853618.72412,-64.5174,35.34211993217468
1618853618.73975,-56.40662,35.357749938964844
1618853618.75537,-52.56897,35.37336993217468
1618853618.771,-52.9845,35.388999938964844
1618853618.78663,-56.74219,35.404629945755005
1618853618.80225,-62.29816,35.420249938964844
1618853618.81788,-67.93616,35.435879945755005
1618853618.8335,-72.23584,35.451499938964844
1618853618.84913,-74.4483,35.467129945755005
1618853618.86475,-74.57544,35.482749938964844
1618853618.88038,-73.24689,35.498379945755005
1618853618.89601,-71.38196,35.514009952545166
1618853618.91163,-69.86041,35.529629945755005
1618853618.92726,-69.27753,35.545259952545166
1618853618.94288,-69.81976,35.560879945755005
1618853618.95851,-71.34216,35.576509952545166
1618853618.97413,-73.44647,35.592129945755005
1618853618.98976,-75.64166,35.607759952545166
1618853619.00539,-77.45935,35.62338995933533
1618853619.02101,-78.63269,35.639009952545166
1618853619.03664,-79.18597,35.65463995933533
1618853619.05226,-79.49255,35.670259952545166
1618853619.06789,-80.18134,35.68588995933533
1618853619.08351,-81.92786,35.701509952545166
1618853619.09914,-85.17926,35.71713995933533
1618853619.11477,-89.79834,35.73276996612549
1618853619.13039,-94.99683,35.74838995933533
1618853619.14602,-99.42841,35.76401996612549
1618853619.16164,-101.5659,35.77963995933533
1618853619.17727,-100.1322,35.79526996612549
1618853619.19289,-94.5285,35.81088995933533
1618853619.20852,-84.97845,35.82651996612549
1618853619.22415,-72.41138,35.84214997291565
1618853619.23977,-58.18854,35.85776996612549
1618853619.2554,-43.69281,35.87339997291565
1618853619.27102,-30.07611,35.88901996612549
1618853619.28665,-18.13855,35.90464997291565
1618853619.30227,-8.364502,35.92026996612549
1618853619.3179,-1.000061,35.93589997291565
1618853619.33353,3.904968,35.95152997970581
1618853619.34915,6.513367,35.96714997291565
1618853619.36478,7.227417,35.98277997970581
1618853619.3804,6.67923,35.99839997291565
1618853619.39603,5.630188,36.01402997970581
1618853619.41165,4.838531,36.02964997291565
1618853619.42728,4.839752,36.04527997970581
1618853619.44291,5.898193,36.06090998649597
1618853619.45853,7.947174,36.07652997970581
1618853619.47416,10.71695,36.09215998649597
1618853619.48978,13.82257,36.10777997970581
1618853619.50541,16.89377,36.12340998649597
1618853619.52103,19.61417,36.13902997970581
1618853619.53666,21.74274,36.15465998649597
1618853619.55229,23.10757,36.17028999328613
1618853619.56791,23.63965,36.18590998649597
1618853619.58354,23.39746,36.20153999328613
1618853619.59916,22.59882,36.21715998649597
1618853619.61479,21.53241,36.23278999328613
1618853619.63041,20.48401,36.24840998649597
1618853619.64604,19.55939,36.26403999328613
1618853619.66167,18.60733,36.279670000076294
1618853619.67729,17.19403,36.29528999328613
1618853619.69292,14.71548,36.310920000076294
1618853619.70854,10.51816,36.32653999328613
1618853619.72417,4.156464,36.342170000076294
1618853619.73979,-4.431915,36.35778999328613
1618853619.75542,-14.78088,36.373420000076294
1618853619.77105,-25.7851,36.389050006866455
1618853619.78667,-35.78799,36.404670000076294
1618853619.8023,-42.90292,36.420300006866455
1618853619.81792,-45.45102,36.435920000076294
1618853619.83355,-42.5101,36.451550006866455
1618853619.84917,-34.27164,36.467170000076294
1618853619.8648,-22.06393,36.482800006866455
1618853619.88043,-7.985016,36.498430013656616
1618853619.89605,5.683655,36.514050006866455
1618853619.91168,17.15918,36.529680013656616
1618853619.9273,25.52812,36.545300006866455
1618853619.94293,30.8232,36.560930013656616
1618853619.95855,33.72235,36.576550006866455
1618853619.97418,35.14601,36.592180013656616
1618853619.98981,35.84076,36.60781002044678
1618853620.00543,36.17615,36.623430013656616
1618853620.02106,36.14471,36.63906002044678
1618853620.03668,35.53702,36.654680013656616
1618853620.05231,34.14484,36.67031002044678
1618853620.06794,31.94487,36.68594002723694
1618853620.08356,29.07938,36.70156002044678
1618853620.09919,25.84099,36.71719002723694
1618853620.11481,22.54106,36.73281002044678
1618853620.13044,19.48264,36.74844002723694
1618853620.14606,16.94151,36.76406002044678
1618853620.16169,15.1571,36.77969002723694
1618853620.17732,14.23502,36.7953200340271
1618853620.19294,14.04918,36.81094002723694
1618853620.20857,14.18502,36.8265700340271
1618853620.22419,13.98078,36.84219002723694
1618853620.23982,12.76132,36.8578200340271
1618853620.25544,10.0603,36.87344002723694
1618853620.27107,5.797905,36.8890700340271
1618853620.2867,0.2902832,36.90470004081726
1618853620.30232,-5.884346,36.9203200340271
1618853620.31795,-12.15194,36.93595004081726
1618853620.33357,-18.13513,36.9515700340271
1618853620.3492,-23.69232,36.96720004081726
1618853620.36482,-28.95915,36.9828200340271
1618853620.38045,-34.19662,36.99845004081726
1618853620.39608,-39.66448,37.01408004760742
1618853620.4117,-45.43707,37.02970004081726
1618853620.42733,-51.14844,37.04533004760742
1618853620.44295,-55.81038,37.06095004081726
1618853620.45858,-57.88333,37.07658004760742
1618853620.4742,-55.60875,37.09220004081726
1618853620.48983,-47.59379,37.10783004760742
1618853620.50546,-33.41872,37.12346005439758
1618853620.52108,-13.96253,37.13908004760742
1618853620.53671,8.696239,37.15471005439758
1618853620.55233,31.8246,37.17033004760742
1618853620.56796,52.76283,37.18596005439758
1618853620.58358,69.58351,37.20158004760742
1618853620.59921,81.39828,37.21721005439758
1618853620.61484,88.28436,37.232840061187744
1618853620.63046,90.9386,37.24846005439758
1618853620.64609,90.24672,37.264090061187744
1618853620.66171,87.01353,37.27971005439758
1618853620.67734,81.86684,37.295340061187744
1618853620.69296,75.27589,37.31096005439758
1618853620.70859,67.6844,37.326590061187744
1618853620.72422,59.60492,37.342220067977905
1618853620.73984,51.57529,37.357840061187744
1618853620.75547,44.14627,37.373470067977905
1618853620.77109,37.76159,37.389090061187744
1618853620.78672,32.64555,37.404720067977905
1618853620.80234,28.78969,37.420340061187744
1618853620.81797,25.99055,37.435970067977905
1618853620.8336,23.90233,37.451600074768066
1618853620.84922,22.13416,37.467220067977905
1618853620.86485,20.35016,37.482850074768066
1618853620.88047,18.25209,37.498470067977905
1618853620.8961,15.64694,37.514100074768066
1618853620.91172,12.44183,37.529720067977905
1618853620.92735,8.650131,37.545350074768066
1618853620.94298,4.392975,37.56098008155823
1618853620.9586,-0.196579,37.576600074768066
1618853620.97423,-5.034271,37.59223008155823
1618853620.98985,-10.20886,37.607850074768066
1618853621.00548,-16.00464,37.62348008155823
1618853621.0211,-22.8992,37.639100074768066
1618853621.03673,-31.33125,37.65473008155823
1618853621.05236,-41.43192,37.67036008834839
1618853621.06798,-52.73816,37.68598008155823
1618853621.08361,-64.0042,37.70161008834839
1618853621.09923,-73.36514,37.71723008155823
1618853621.11486,-78.80156,37.73286008834839
1618853621.13048,-78.81697,37.74848008155823
1618853621.14611,-73.04718,37.76411008834839
1618853621.16174,-62.52499,37.77974009513855
1618853621.17736,-49.39268,37.79536008834839
1618853621.19299,-36.21777,37.81099009513855
1618853621.20861,-25.16708,37.82661008834839
1618853621.22424,-17.31908,37.84224009513855
1618853621.23986,-12.55644,37.85786008834839
1618853621.25549,-9.874146,37.87349009513855
1618853621.27112,-7.997223,37.88912010192871
1618853621.28674,-5.94519,37.90474009513855
1618853621.30237,-3.351059,37.92037010192871
1618853621.31799,-0.4101563,37.93599009513855
1618853621.33362,2.379822,37.95162010192871
1618853621.34924,4.429504,37.96724009513855
1618853621.36487,5.338165,37.98287010192871
1618853621.3805,4.972504,37.99850010871887
1618853621.39612,3.510956,38.01412010192871
1618853621.41175,1.46936,38.02975010871887
1618853621.42737,-0.3800354,38.04537010192871
1618853621.443,-1.181122,38.06100010871887
1618853621.45862,-0.267334,38.07662010192871
1618853621.47425,2.60318,38.09225010871887
1618853621.48988,7.054108,38.10788011550903
1618853621.5055,12.19547,38.12350010871887
1618853621.52113,16.80237,38.13913011550903
1618853621.53675,19.66425,38.15475010871887
1618853621.55238,19.90836,38.17038011550903
1618853621.568,17.16397,38.18600010871887
1618853621.58363,11.64825,38.20163011550903
1618853621.59926,4.082794,38.217260122299194
1618853621.61488,-4.432556,38.23288011550903
1618853621.63051,-12.75345,38.248510122299194
1618853621.64613,-19.95056,38.26413011550903
1618853621.66176,-25.6102,38.279760122299194
1618853621.67738,-29.85297,38.29538011550903
1618853621.69301,-33.12451,38.311010122299194
1618853621.70864,-35.81842,38.326640129089355
1618853621.72426,-37.82898,38.342260122299194
1618853621.73989,-38.34863,38.357890129089355
1618853621.75551,-36.04205,38.373510122299194
1618853621.77114,-29.56912,38.389140129089355
1618853621.78676,-18.13522,38.404760122299194
1618853621.80239,-1.982117,38.420390129089355
1618853621.81802,17.61087,38.43602013587952
1618853621.83364,38.6499,38.451640129089355
1618853621.84927,58.97638,38.46727013587952
1618853621.86489,76.80087,38.482890129089355
1618853621.88052,91.01505,38.49852013587952
1618853621.89614,101.2093,38.514140129089355
1618853621.91177,107.4946,38.52977013587952
1618853621.9274,110.3134,38.54540014266968
1618853621.94302,110.2861,38.56102013587952
1618853621.95865,108.1973,38.57665014266968
1618853621.97427,105.0332,38.59227013587952
1618853621.9899,101.9048,38.60790014266968
1618853622.00552,99.91986,38.62352013587952
1618853622.02115,99.9097,38.63915014266968
1618853622.03678,102.2083,38.65478014945984
1618853622.0524,106.6172,38.67040014266968
1618853622.06803,112.5352,38.68603014945984
1618853622.08365,119.1855,38.70165014266968
1618853622.09928,125.8341,38.71728014945984
1618853622.1149,131.8488,38.73290014266968
1618853622.13053,136.6578,38.74853014945984
1618853622.14616,139.6759,38.76415991783142
1618853622.16178,140.2567,38.77978014945984
1618853622.17741,137.8115,38.79540991783142
1618853622.19303,131.9827,38.81103014945984
1618853622.20866,122.7876,38.82665991783142
1618853622.22428,110.6752,38.84228014945984
1618853622.23991,96.4437,38.85790991783142
1618853622.25554,81.03973,38.87353992462158
1618853622.27116,65.31671,38.88915991783142
1618853622.28679,49.84125,38.90478992462158
1618853622.30241,34.79581,38.92040991783142
1618853622.31804,20.01526,38.93603992462158
1618853622.33367,5.160553,38.95166993141174
1618853622.34929,-10.06271,38.96728992462158
1618853622.36492,-25.58749,38.98291993141174
1618853622.38054,-40.75641,38.99853992462158
1618853622.39617,-54.25989,39.01416993141174
1618853622.41179,-64.32236,39.02978992462158
1618853622.42742,-69.14938,39.04541993141174
1618853622.44305,-67.54208,39.061049938201904
1618853622.45867,-59.38864,39.07666993141174
1618853622.4743,-45.86734,39.092299938201904
1618853622.48992,-29.2182,39.10791993141174
1618853622.50555,-12.13303,39.123549938201904
1618853622.52117,3.019379,39.13916993141174
1618853622.5368,14.75293,39.154799938201904
1618853622.55243,22.66669,39.170429944992065
1618853622.56805,27.18951,39.186049938201904
1618853622.58368,29.07663,39.201679944992065
1618853622.5993,29.02328,39.217299938201904
1618853622.61493,27.46695,39.232929944992065
1618853622.63055,24.70572,39.248549938201904
1618853622.64618,21.14774,39.264179944992065
1618853622.66181,17.41922,39.27980995178223
1618853622.67743,14.28357,39.295429944992065
1618853622.69306,12.37494,39.31105995178223
1618853622.70868,11.92838,39.326679944992065
1618853622.72431,12.66876,39.34230995178223
1618853622.73993,13.95651,39.357929944992065
1618853622.75556,15.06702,39.37355995178223
1618853622.77119,15.4892,39.38918995857239
1618853622.78681,15.01144,39.40480995178223
1618853622.80244,13.63132,39.42043995857239
1618853622.81806,11.38345,39.43605995178223
1618853622.83369,8.216736,39.45168995857239
1618853622.84931,4.011627,39.46730995178223
1618853622.86494,-1.256088,39.48293995857239
1618853622.88057,-7.346878,39.49856996536255
1618853622.89619,-13.73088,39.51418995857239
1618853622.91182,-19.73189,39.52981996536255
1618853622.92744,-24.78735,39.54543995857239
1618853622.94307,-28.66582,39.56106996536255
1618853622.95869,-31.60201,39.57668995857239
1618853622.97432,-34.23456,39.59231996536255
1618853622.98995,-37.42354,39.60794997215271
1618853623.00557,-42.01649,39.62356996536255
1618853623.0212,-48.52858,39.63919997215271
1618853623.03682,-56.85013,39.65481996536255
1618853623.05245,-66.01161,39.67044997215271
1618853623.06807,-74.15698,39.68606996536255
1618853623.0837,-78.85793,39.70169997215271
1618853623.09933,-77.75587,39.71732997894287
1618853623.11495,-69.38872,39.73294997215271
1618853623.13058,-53.80632,39.74857997894287
1618853623.1462,-32.70705,39.76419997215271
1618853623.16183,-8.970932,39.77982997894287
1618853623.17745,14.2298,39.79544997215271
1618853623.19308,34.33115,39.81107997894287
1618853623.20871,49.94447,39.82670998573303
1618853623.22433,60.86024,39.84232997894287
1618853623.23996,67.59538,39.85795998573303
1618853623.25558,70.85595,39.87357997894287
1618853623.27121,71.15103,39.88920998573303
1618853623.28683,68.78413,39.90482997894287
1618853623.30246,64.06446,39.92045998573303
1618853623.31809,57.55488,39.93608999252319
1618853623.33371,50.16533,39.95170998573303
1618853623.34934,42.97048,39.96733999252319
1618853623.36496,36.8956,39.98295998573303
1618853623.38059,32.44425,39.99858999252319
1618853623.39621,29.60924,40.01420998573303
1618853623.41184,28.03722,40.02983999252319
1618853623.42747,27.32377,40.045469999313354
1618853623.44309,27.31421,40.06108999252319
1618853623.45872,28.18089,40.076719999313354
1618853623.47434,30.31092,40.09233999252319
1618853623.48997,33.95994,40.107969999313354
1618853623.50559,38.94461,40.12358999252319
1618853623.52122,44.49999,40.139219999313354
1618853623.53685,49.51607,40.154850006103516
1618853623.55247,52.92138,40.170469999313354
1618853623.5681,54.19312,40.186100006103516
1618853623.58372,53.61502,40.201719999313354
1618853623.59935,52.26253,40.217350006103516
1618853623.61497,51.69175,40.232969999313354
1618853623.6306,53.48106,40.248600006103516
1618853623.64623,58.82935,40.26423001289368
1618853623.66185,68.21744,40.279850006103516
1618853623.67748,81.28484,40.29548001289368
1618853623.6931,96.83868,40.311100006103516
1618853623.70873,113.0523,40.32673001289368
1618853623.72435,127.811,40.342350006103516
1618853623.73998,139.2248,40.35798001289368
1618853623.75561,146.069,40.37361001968384
1618853623.77123,148.0323,40.38923001289368
1618853623.78686,145.5732,40.40486001968384
1618853623.80248,139.538,40.42048001289368
1618853623.81811,130.6801,40.43611001968384
1618853623.83373,119.3164,40.45173001289368
1618853623.84936,105.2749,40.46736001968384
1618853623.86499,88.05049,40.482990026474
1618853623.88061,67.11975,40.49861001968384
1618853623.89624,42.18533,40.514240026474
1618853623.91186,13.4888,40.52986001968384
1618853623.92749,-17.95825,40.545490026474
1618853623.94311,-50.27826,40.56111001968384
1618853623.95874,-81.06921,40.576740026474
1618853623.97437,-107.9891,40.59237003326416
1618853623.98999,-129.5664,40.607990026474
1618853624.00562,-145.7063,40.62362003326416
1618853624.02124,-157.646,40.639240026474
1618853624.03687,-167.2047,40.65487003326416
1618853624.05249,-175.8694,40.670490026474
1618853624.06812,-184.0744,40.68612003326416
1618853624.08375,-191.1671,40.70175004005432
1618853624.09937,-196.0166,40.71737003326416
1618853624.115,-197.8229,40.73300004005432
1618853624.13062,-196.6442,40.74862003326416
1618853624.14625,-193.3115,40.76425004005432
1618853624.16187,-188.8845,40.77987003326416
1618853624.1775,-184.0766,40.79550004005432
1618853624.19313,-179.0209,40.81113004684448
1618853624.20875,-173.509,40.82675004005432
1618853624.22438,-167.5106,40.84238004684448
1618853624.24,-161.5662,40.85800004005432
1618853624.25563,-156.7119,40.87363004684448
1618853624.27125,-153.991,40.88925004005432
1618853624.28688,-153.7902,40.90488004684448
1618853624.30251,-155.3603,40.920510053634644
1618853624.31813,-156.7726,40.93613004684448
1618853624.33376,-155.4755,40.951760053634644
1618853624.34938,-149.1428,40.96738004684448
1618853624.36501,-136.5387,40.983010053634644
1618853624.38063,-117.9555,40.99863004684448
1618853624.39626,-95.18689,41.014260053634644
1618853624.41189,-70.84973,41.029890060424805
1618853624.42751,-47.59314,41.045510053634644
1618853624.44314,-27.38708,41.061140060424805
1618853624.45876,-11.1969,41.076760053634644
1618853624.47439,0.9141235,41.092390060424805
1618853624.49002,9.418091,41.108020067214966
1618853624.50564,14.8642,41.123640060424805
1618853624.52127,17.66119,41.139270067214966
1618853624.53689,18.02551,41.154890060424805
1618853624.55252,16.23621,41.170520067214966
1618853624.56814,12.79395,41.186140060424805
1618853624.58377,8.517639,41.201770067214966
1618853624.5994,4.377991,41.21740007400513
1618853624.61502,1.204163,41.233020067214966
1618853624.63065,-0.5811768,41.24865007400513
1618853624.64627,-1.092163,41.264270067214966
1618853624.6619,-0.8603516,41.27990007400513
1618853624.67752,-0.600708,41.295520067214966
1618853624.69315,-0.8687744,41.31115007400513
