timestamp,value,norm_ts
1619377539.63144,34.02826,4.720209836959839
1619377539.64707,32.88974,4.73583984375
1619377539.66269,31.8251,4.751459836959839
1619377539.67832,30.77985,4.76708984375
1619377539.69395,29.59616,4.782719850540161
1619377539.70957,28.18777,4.79833984375
1619377539.7252,26.4964,4.813969850540161
1619377539.74082,24.59143,4.82958984375
1619377539.75645,22.5921,4.845219850540161
1619377539.77207,20.59171,4.86083984375
1619377539.7877,18.63846,4.876469850540161
1619377539.80333,16.67581,4.892099857330322
1619377539.81895,14.53427,4.907719850540161
1619377539.83458,12.0098,4.923349857330322
1619377539.8502,8.958374,4.938969850540161
1619377539.86583,5.310822,4.954599857330322
1619377539.88145,1.248749,4.970219850540161
1619377539.89708,-2.941833,4.985849857330322
1619377539.91271,-6.945251,5.001479864120483
1619377539.92833,-10.61688,5.017099857330322
1619377539.94396,-14.05649,5.032729864120483
1619377539.95958,-17.61096,5.048349857330322
1619377539.97521,-21.70752,5.063979864120483
1619377539.99083,-26.60867,5.079599857330322
1619377540.00646,-32.2782,5.095229864120483
1619377540.02209,-38.2486,5.1108598709106445
1619377540.03771,-43.75668,5.126479864120483
1619377540.05334,-47.94965,5.1421098709106445
1619377540.06896,-50.05829,5.157729864120483
1619377540.08459,-49.61191,5.1733598709106445
1619377540.10021,-46.46219,5.188979864120483
1619377540.11584,-40.83167,5.2046098709106445
1619377540.13147,-33.25061,5.220239877700806
1619377540.14709,-24.42328,5.2358598709106445
1619377540.16272,-15.07245,5.251489877700806
1619377540.17834,-5.753662,5.2671098709106445
1619377540.19397,3.165497,5.282739877700806
1619377540.20959,11.59872,5.2983598709106445
1619377540.22522,19.47781,5.313989877700806
1619377540.24085,26.66583,5.329619884490967
1619377540.25647,32.80255,5.345239877700806
1619377540.2721,37.36816,5.360869884490967
1619377540.28772,39.90976,5.376489877700806
1619377540.30335,40.35138,5.392119884490967
1619377540.31897,39.09714,5.407739877700806
1619377540.3346,36.85913,5.423369884490967
1619377540.35023,34.47668,5.438999891281128
1619377540.36585,32.49207,5.454619884490967
1619377540.38148,31.03534,5.470249891281128
1619377540.3971,29.85907,5.485869884490967
1619377540.41273,28.56915,5.501499891281128
1619377540.42835,26.89426,5.517119884490967
1619377540.44398,24.81461,5.532749891281128
1619377540.45961,22.51831,5.548379898071289
1619377540.47523,20.20221,5.563999891281128
1619377540.49086,17.98984,5.579629898071289
1619377540.50648,15.80573,5.595249891281128
1619377540.52211,13.47498,5.610879898071289
1619377540.53773,10.84653,5.626499891281128
1619377540.55336,7.790375,5.642129898071289
1619377540.56899,4.340088,5.65775990486145
1619377540.58461,0.5689697,5.673379898071289
1619377540.60024,-3.368469,5.68900990486145
1619377540.61586,-7.293091,5.704629898071289
1619377540.63149,-11.04636,5.72025990486145
1619377540.64711,-14.55594,5.735879898071289
1619377540.66274,-17.84738,5.75150990486145
1619377540.67837,-21.04807,5.767139911651611
1619377540.69399,-24.34824,5.78275990486145
1619377540.70962,-27.9278,5.798389911651611
1619377540.72524,-31.9375,5.81400990486145
1619377540.74087,-36.48132,5.829639911651611
1619377540.75649,-41.57532,5.84525990486145
1619377540.77212,-47.07959,5.860889911651611
1619377540.78775,-52.68643,5.8765199184417725
1619377540.80337,-57.81918,5.892139911651611
1619377540.819,-61.59933,5.9077699184417725
1619377540.83462,-63.09641,5.923389911651611
1619377540.85025,-61.59427,5.9390199184417725
1619377540.86587,-56.79727,5.954639911651611
1619377540.8815,-48.99118,5.9702699184417725
1619377540.89713,-38.96475,5.985899925231934
1619377540.91275,-27.70999,6.0015199184417725
1619377540.92838,-16.22522,6.017149925231934
1619377540.944,-5.247192,6.0327699184417725
1619377540.95963,4.795502,6.048399925231934
1619377540.97525,13.74112,6.0640199184417725
1619377540.99088,21.58191,6.079649925231934
1619377541.00651,28.30963,6.095279932022095
1619377541.02213,33.84683,6.110899925231934
1619377541.03776,38.07193,6.126529932022095
1619377541.05338,40.87994,6.142149925231934
1619377541.06901,42.29407,6.157779932022095
1619377541.08463,42.55176,6.173399925231934
1619377541.10026,41.99124,6.189029932022095
1619377541.11589,40.99979,6.204659938812256
1619377541.13151,39.84448,6.220279932022095
1619377541.14714,38.6705,6.235909938812256
1619377541.16276,37.50623,6.251529932022095
1619377541.17839,36.34567,6.267159938812256
1619377541.19401,35.2168,6.282779932022095
1619377541.20964,34.11664,6.298409938812256
1619377541.22527,32.99387,6.314039945602417
1619377541.24089,31.67029,6.329659938812256
1619377541.25652,29.93579,6.345289945602417
1619377541.27214,27.60547,6.360909938812256
1619377541.28777,24.68784,6.376539945602417
1619377541.3034,21.37634,6.392169952392578
1619377541.31902,17.94089,6.407789945602417
1619377541.33465,14.62634,6.423419952392578
1619377541.35027,11.44543,6.439039945602417
1619377541.3659,8.241974,6.454669952392578
1619377541.38152,4.784363,6.470289945602417
1619377541.39715,0.9096069,6.485919952392578
1619377541.41278,-3.334229,6.501549959182739
1619377541.4284,-7.73819,6.517169952392578
1619377541.44403,-11.94882,6.532799959182739
1619377541.45965,-15.68704,6.548419952392578
1619377541.47528,-18.82559,6.564049959182739
1619377541.4909,-21.45544,6.579669952392578
1619377541.50653,-23.82993,6.595299959182739
1619377541.52216,-26.27795,6.6109299659729
1619377541.53778,-29.14481,6.626549959182739
1619377541.55341,-32.63727,6.6421799659729
1619377541.56903,-36.80649,6.657799959182739
1619377541.58466,-41.42468,6.6734299659729
1619377541.60028,-45.95676,6.689049959182739
1619377541.61591,-49.57932,6.7046799659729
1619377541.63154,-51.38293,6.7203099727630615
1619377541.64716,-50.58859,6.7359299659729
1619377541.66279,-46.82687,6.7515599727630615
1619377541.67841,-40.28284,6.7671799659729
1619377541.69404,-31.63464,6.7828099727630615
1619377541.70966,-21.78531,6.7984299659729
1619377541.72529,-11.61578,6.8140599727630615
1619377541.74092,-1.821625,6.829689979553223
1619377541.75654,7.195892,6.8453099727630615
1619377541.77217,15.22534,6.860939979553223
1619377541.78779,22.12347,6.8765599727630615
1619377541.80342,27.80383,6.892189979553223
1619377541.81904,32.19186,6.9078099727630615
1619377541.83467,35.29922,6.923439979553223
1619377541.8503,37.20062,6.939069986343384
1619377541.86592,38.05399,6.954689979553223
1619377541.88155,37.98798,6.970319986343384
1619377541.89717,37.15652,6.985939979553223
1619377541.9128,35.8027,7.001569986343384
1619377541.92842,34.15506,7.017189979553223
1619377541.94405,32.52652,7.032819986343384
1619377541.95968,31.12695,7.048449993133545
1619377541.9753,30.10803,7.064069986343384
1619377541.99093,29.44821,7.079699993133545
1619377542.00655,29.02002,7.095319986343384
1619377542.02218,28.63293,7.110949993133545
1619377542.0378,28.00449,7.126569986343384
1619377542.05343,26.89114,7.142199993133545
1619377542.06906,25.01898,7.157829999923706
1619377542.08468,22.26736,7.173449993133545
1619377542.10031,18.711,7.189079999923706
1619377542.11593,14.67596,7.204699993133545
1619377542.13156,10.63959,7.220329999923706
1619377542.14718,7.064758,7.235949993133545
1619377542.16281,4.200653,7.251579999923706
1619377542.17844,1.975433,7.267210006713867
1619377542.19406,0.05444336,7.282829999923706
1619377542.20969,-2.047028,7.298460006713867
1619377542.22531,-4.6297,7.314079999923706
1619377542.24094,-7.733521,7.329710006713867
1619377542.25656,-11.21295,7.345329999923706
1619377542.27219,-14.81973,7.360960006713867
1619377542.28782,-18.40781,7.376590013504028
1619377542.30344,-21.95316,7.392210006713867
1619377542.31907,-25.57166,7.407840013504028
1619377542.33469,-29.37006,7.423460006713867
1619377542.35032,-33.38101,7.439090013504028
1619377542.36594,-37.54535,7.454710006713867
1619377542.38157,-41.73615,7.470340013504028
1619377542.3972,-45.86197,7.4859700202941895
1619377542.41282,-49.73254,7.501590013504028
1619377542.42845,-52.99619,7.5172200202941895
1619377542.44407,-55.07159,7.532840013504028
1619377542.4597,-55.21664,7.5484700202941895
1619377542.47532,-52.7598,7.564090013504028
1619377542.49095,-47.39572,7.5797200202941895
1619377542.50658,-39.3483,7.595350027084351
1619377542.5222,-29.29401,7.6109700202941895
1619377542.53783,-18.27249,7.626600027084351
1619377542.55345,-7.229706,7.6422200202941895
1619377542.56908,3.149628,7.657850027084351
1619377542.5847,12.4776,7.6734700202941895
1619377542.60033,20.61392,7.689100027084351
1619377542.61596,27.43845,7.704729795455933
1619377542.63158,32.79132,7.720350027084351
1619377542.64721,36.50885,7.735979795455933
1619377542.66283,38.60919,7.751600027084351
1619377542.67846,39.26312,7.767229795455933
1619377542.69408,38.86554,7.782850027084351
1619377542.70971,37.82907,7.798479795455933
1619377542.72534,36.49246,7.814109802246094
1619377542.74096,35.06116,7.829729795455933
1619377542.75659,33.61826,7.845359802246094
1619377542.77221,32.23727,7.860979795455933
1619377542.78784,31.01465,7.876609802246094
1619377542.80346,30.13837,7.892229795455933
1619377542.81909,29.7121,7.907859802246094
1619377542.83472,29.66037,7.923489809036255
1619377542.85034,29.70316,7.939109802246094
1619377542.86597,29.41954,7.954739809036255
1619377542.88159,28.47733,7.970359802246094
1619377542.89722,26.72673,7.985989809036255
1619377542.91284,24.24556,8.001609802246094
1619377542.92847,21.29378,8.017239809036255
1619377542.9441,18.17879,8.032869815826416
1619377542.95972,15.1095,8.048489809036255
1619377542.97535,12.15408,8.064119815826416
1619377542.99097,9.2603,8.079739809036255
1619377543.0066,6.288574,8.095369815826416
1619377543.02222,3.196198,8.110989809036255
1619377543.03785,-0.02005005,8.126619815826416
1619377543.05348,-3.30545,8.142249822616577
1619377543.0691,-6.588654,8.157869815826416
1619377543.08473,-9.881134,8.173499822616577
1619377543.10035,-13.18324,8.189119815826416
1619377543.11598,-16.47185,8.204749822616577
1619377543.1316,-19.70654,8.220369815826416
1619377543.14723,-22.82423,8.235999822616577
1619377543.16286,-25.78873,8.251629829406738
1619377543.17848,-28.68124,8.267249822616577
1619377543.19411,-31.71999,8.282879829406738
1619377543.20973,-35.15765,8.298499822616577
1619377543.22536,-39.19818,8.314129829406738
1619377543.24098,-43.74391,8.329749822616577
1619377543.25661,-48.38408,8.345379829406738
1619377543.27224,-52.40276,8.3610098361969
1619377543.28786,-54.94681,8.376629829406738
1619377543.30349,-55.27252,8.3922598361969
1619377543.31911,-52.88826,8.407879829406738
1619377543.33474,-47.7169,8.4235098361969
1619377543.35036,-40.07538,8.439129829406738
1619377543.36599,-30.63994,8.4547598361969
1619377543.38162,-20.26949,8.47038984298706
1619377543.39724,-9.793915,8.4860098361969
1619377543.41287,0.07687378,8.50163984298706
1619377543.42849,8.925522,8.5172598361969
1619377543.44412,16.5526,8.53288984298706
1619377543.45974,22.94933,8.5485098361969
1619377543.47537,28.18327,8.56413984298706
1619377543.491,32.3456,8.579769849777222
1619377543.50662,35.43237,8.59538984298706
1619377543.52225,37.43225,8.611019849777222
1619377543.53787,38.33604,8.62663984298706
1619377543.5535,38.18716,8.642269849777222
1619377543.56912,37.22383,8.65788984298706
1619377543.58475,35.75661,8.673519849777222
1619377543.60038,34.15877,8.689149856567383
1619377543.616,32.70894,8.704769849777222
1619377543.63163,31.50354,8.720399856567383
1619377543.64725,30.39899,8.736019849777222
1619377543.66288,29.18974,8.751649856567383
1619377543.6785,27.75349,8.767269849777222
1619377543.69413,26.14612,8.782899856567383
1619377543.70976,24.65628,8.798529863357544
1619377543.72538,23.54568,8.814149856567383
1619377543.74101,22.90515,8.829779863357544
1619377543.75663,22.55064,8.845399856567383
1619377543.77226,22.06938,8.861029863357544
1619377543.78788,21.00816,8.876649856567383
1619377543.80351,19.08232,8.892279863357544
1619377543.81914,16.34096,8.907909870147705
1619377543.83476,13.10968,8.923529863357544
1619377543.85039,9.828735,8.939159870147705
1619377543.86601,6.849213,8.954779863357544
1619377543.88164,4.260124,8.970409870147705
1619377543.89726,1.961617,8.986029863357544
1619377543.91289,-0.3030167,9.001659870147705
1619377543.92852,-2.718742,9.017289876937866
1619377543.94414,-5.340797,9.032909870147705
1619377543.95977,-8.082726,9.048539876937866
1619377543.97539,-10.84305,9.064159870147705
1619377543.99102,-13.55054,9.079789876937866
1619377544.00665,-16.25769,9.095419883728027
1619377544.02227,-19.0681,9.111039876937866
1619377544.0379,-22.01711,9.126669883728027
1619377544.05352,-25.08739,9.142289876937866
1619377544.06915,-28.15461,9.157919883728027
1619377544.08477,-31.18102,9.173539876937866
1619377544.1004,-34.21028,9.189169883728027
1619377544.11603,-37.46025,9.204799890518188
1619377544.13165,-41.09977,9.220419883728027
1619377544.14728,-45.1078,9.236049890518188
1619377544.1629,-49.13544,9.251669883728027
1619377544.17853,-52.46529,9.267299890518188
1619377544.19415,-54.17162,9.282919883728027
1619377544.20978,-53.45467,9.298549890518188
1619377544.22541,-49.86532,9.31417989730835
1619377544.24103,-43.53392,9.329799890518188
1619377544.25666,-35.11488,9.34542989730835
1619377544.27228,-25.53907,9.361049890518188
1619377544.28791,-15.70354,9.37667989730835
1619377544.30353,-6.27993,9.392299890518188
1619377544.31916,2.338005,9.40792989730835
1619377544.33479,10.02412,9.42355990409851
1619377544.35041,16.7212,9.43917989730835
1619377544.36604,22.33446,9.45480990409851
1619377544.38166,26.72662,9.47042989730835
1619377544.39729,29.75155,9.48605990409851
1619377544.41291,31.41071,9.50167989730835
1619377544.42854,31.86319,9.51730990409851
1619377544.44417,31.42077,9.532939910888672
1619377544.45979,30.40768,9.54855990409851
1619377544.47542,29.11071,9.564189910888672
1619377544.49104,27.7281,9.57980990409851
1619377544.50667,26.40331,9.595439910888672
1619377544.52229,25.22549,9.61105990409851
1619377544.53792,24.24587,9.626689910888672
1619377544.55355,23.51142,9.642319917678833
1619377544.56917,23.05563,9.657939910888672
1619377544.5848,22.82969,9.673569917678833
1619377544.60042,22.74557,9.689189910888672
1619377544.61605,22.64087,9.704819917678833
1619377544.63167,22.24765,9.720439910888672
1619377544.6473,21.32119,9.736069917678833
1619377544.66293,19.67412,9.751699924468994
1619377544.67855,17.20277,9.767319917678833
1619377544.69418,14.10049,9.782949924468994
1619377544.7098,10.62467,9.798569917678833
1619377544.72543,7.163125,9.814199924468994
1619377544.74105,4.003793,9.829819917678833
1619377544.75668,1.305982,9.845449924468994
1619377544.77231,-1.018529,9.861079931259155
1619377544.78793,-3.189418,9.876699924468994
1619377544.80356,-5.377266,9.892329931259155
1619377544.81918,-7.702834,9.907949924468994
1619377544.83481,-10.06183,9.923579931259155
1619377544.85043,-12.35344,9.939199924468994
1619377544.86606,-14.44298,9.954829931259155
1619377544.88169,-16.29114,9.970459938049316
1619377544.89731,-17.98437,9.986079931259155
1619377544.91294,-19.69508,10.001709938049316
1619377544.92856,-21.626,10.017329931259155
1619377544.94419,-23.99694,10.032959938049316
1619377544.95981,-26.96203,10.048579931259155
1619377544.97544,-30.56305,10.064209938049316
1619377544.99107,-34.73747,10.079839944839478
1619377545.00669,-39.21036,10.095459938049316
1619377545.02232,-43.60509,10.111089944839478
1619377545.03794,-47.45164,10.126709938049316
1619377545.05357,-50.23348,10.142339944839478
1619377545.06919,-51.38652,10.157959938049316
1619377545.08482,-50.45914,10.173589944839478
1619377545.10045,-47.20617,10.189219951629639
1619377545.11607,-41.62506,10.204839944839478
1619377545.1317,-34.05452,10.220469951629639
1619377545.14732,-25.16472,10.236089944839478
1619377545.16295,-15.6974,10.251719951629639
1619377545.17857,-6.395775,10.267339944839478
1619377545.1942,2.252426,10.282969951629639
1619377545.20983,9.981781,10.2985999584198
1619377545.22545,16.65224,10.314219951629639
1619377545.24108,22.0882,10.3298499584198
1619377545.2567,26.07457,10.345469951629639
1619377545.27233,28.42508,10.3610999584198
1619377545.28795,29.05892,10.376719951629639
1619377545.30358,28.20799,10.3923499584198
1619377545.31921,26.30205,10.407979965209961
1619377545.33483,23.99273,10.4235999584198
1619377545.35046,21.86554,10.439229965209961
1619377545.36608,20.33751,10.4548499584198
1619377545.38171,19.54771,10.470479965209961
1619377545.39733,19.3485,10.4860999584198
1619377545.41296,19.44657,10.501729965209961
1619377545.42859,19.55936,10.517359972000122
1619377545.44421,19.52544,10.532979965209961
1619377545.45984,19.31983,10.548609972000122
1619377545.47546,19.08966,10.564229965209961
1619377545.49109,18.94779,10.579859972000122
1619377545.50671,18.876,10.595479965209961
1619377545.52234,18.66998,10.611109972000122
1619377545.53797,18.05064,10.626739978790283
1619377545.55359,16.72887,10.642359972000122
1619377545.56922,14.65059,10.657989978790283
1619377545.58484,11.9501,10.673609972000122
1619377545.60047,8.896019,10.689239978790283
1619377545.61609,5.767853,10.704859972000122
1619377545.63172,2.770607,10.720489978790283
1619377545.64735,-0.07610321,10.736119985580444
1619377545.66297,-2.837173,10.751739978790283
1619377545.6786,-5.60511,10.767369985580444
1619377545.69422,-8.496773,10.782989978790283
1619377545.70985,-11.53194,10.798619985580444
1619377545.72547,-14.69842,10.814239978790283
1619377545.7411,-17.93338,10.829869985580444
1619377545.75673,-21.11371,10.845499992370605
1619377545.77235,-24.06509,10.861119985580444
1619377545.78798,-26.64874,10.876749992370605
1619377545.8036,-28.80118,10.892369985580444
1619377545.81923,-30.64008,10.907999992370605
1619377545.83485,-32.4577,10.923619985580444
1619377545.85048,-34.67265,10.939249992370605
1619377545.86611,-37.63692,10.954879999160767
1619377545.88173,-41.53326,10.970499992370605
1619377545.89736,-46.16309,10.986129999160767
1619377545.91298,-50.97511,11.001749992370605
1619377545.92861,-55.17199,11.017379999160767
1619377545.94423,-57.81252,11.032999992370605
1619377545.95986,-58.10722,11.048629999160767
1619377545.97549,-55.63591,11.064260005950928
1619377545.99111,-50.39822,11.079879999160767
1619377546.00674,-42.79404,11.095510005950928
1619377546.02236,-33.57669,11.111129999160767
1619377546.03799,-23.54277,11.126760005950928
1619377546.05361,-13.42467,11.142379999160767
1619377546.06924,-3.766045,11.158010005950928
1619377546.08487,5.107521,11.173640012741089
1619377546.10049,12.90237,11.189260005950928
1619377546.11612,19.31553,11.204890012741089
1619377546.13174,24.08881,11.220510005950928
1619377546.14737,27.12299,11.236140012741089
1619377546.16299,28.55694,11.251760005950928
1619377546.17862,28.85805,11.267390012741089
1619377546.19425,28.60383,11.28302001953125
1619377546.20987,28.3075,11.298640012741089
1619377546.2255,28.25204,11.31427001953125
1619377546.24112,28.41473,11.329890012741089
1619377546.25675,28.64653,11.34552001953125
1619377546.27238,28.82997,11.361150026321411
1619377546.288,28.98118,11.37677001953125
1619377546.30363,29.148,11.392400026321411
1619377546.31925,29.315,11.40802001953125
1619377546.33488,29.36774,11.423650026321411
1619377546.3505,29.06831,11.43927001953125
1619377546.36613,28.31828,11.454900026321411
1619377546.38176,27.13991,11.470529794692993
1619377546.39738,25.74483,11.486150026321411
1619377546.41301,24.30713,11.501779794692993
1619377546.42863,22.83658,11.517400026321411
1619377546.44426,21.07082,11.533029794692993
1619377546.45988,18.73525,11.548650026321411
1619377546.47551,15.65157,11.564279794692993
1619377546.49114,11.99024,11.579909801483154
1619377546.50676,8.220528,11.595529794692993
1619377546.52239,4.83004,11.611159801483154
1619377546.53801,2.080521,11.626779794692993
1619377546.55364,-0.2043686,11.642409801483154
1619377546.56926,-2.546997,11.658029794692993
1619377546.58489,-5.527695,11.673659801483154
1619377546.60052,-9.364059,11.689289808273315
1619377546.61614,-13.89243,11.704909801483154
1619377546.63177,-18.51892,11.720539808273315
1619377546.64739,-22.58415,11.736159801483154
1619377546.66302,-25.69751,11.751789808273315
1619377546.67864,-27.90292,11.767409801483154
1619377546.69427,-29.63564,11.783039808273315
1619377546.7099,-31.48041,11.798669815063477
1619377546.72552,-33.92287,11.814289808273315
1619377546.74115,-37.20541,11.829919815063477
1619377546.75677,-41.32655,11.845539808273315
1619377546.7724,-46.02797,11.861169815063477
1619377546.78802,-50.82001,11.876789808273315
1619377546.80365,-54.95392,11.892419815063477
1619377546.81928,-57.49269,11.908049821853638
1619377546.8349,-57.50021,11.923669815063477
1619377546.85053,-54.36034,11.939299821853638
1619377546.86615,-48.01781,11.954919815063477
1619377546.88178,-39.13495,11.970549821853638
1619377546.8974,-28.81374,11.986169815063477
1619377546.91303,-18.24355,12.001799821853638
1619377546.92866,-8.289337,12.017429828643799
1619377546.94428,0.6378937,12.033049821853638
1619377546.95991,8.485779,12.048679828643799
1619377546.97553,15.31631,12.064299821853638
1619377546.99116,21.09125,12.079929828643799
1619377547.00678,25.70506,12.095549821853638
1619377547.02241,29.06688,12.111179828643799
1619377547.03804,31.19388,12.12680983543396
1619377547.05366,32.28423,12.142429828643799
1619377547.06929,32.68044,12.15805983543396
1619377547.08491,32.66678,12.173679828643799
1619377547.10054,32.47298,12.18930983543396
1619377547.11616,32.16928,12.204929828643799
1619377547.13179,31.77788,12.22055983543396
1619377547.14742,31.32724,12.236189842224121
1619377547.16304,30.87044,12.25180983543396
1619377547.17867,30.39848,12.267439842224121
1619377547.19429,29.8856,12.28305983543396
1619377547.20992,29.2854,12.298689842224121
1619377547.22554,28.54588,12.31430983543396
1619377547.24117,27.69356,12.329939842224121
1619377547.2568,26.69301,12.345569849014282
1619377547.27242,25.55177,12.361189842224121
1619377547.28805,24.21913,12.376819849014282
1619377547.30367,22.63968,12.392439842224121
1619377547.3193,20.75287,12.408069849014282
1619377547.33492,18.57219,12.423689842224121
1619377547.35055,16.11557,12.439319849014282
1619377547.36618,13.45021,12.454949855804443
1619377547.3818,10.68002,12.470569849014282
1619377547.39743,7.82991,12.486199855804443
1619377547.41305,4.957703,12.501819849014282
1619377547.42868,2.035294,12.517449855804443
1619377547.4443,-0.9382324,12.533069849014282
1619377547.45993,-3.910675,12.548699855804443
1619377547.47556,-6.762085,12.564329862594604
1619377547.49118,-9.418701,12.579949855804443
1619377547.50681,-11.89095,12.595579862594604
1619377547.52243,-14.29352,12.611199855804443
1619377547.53806,-16.78255,12.626829862594604
1619377547.55368,-19.5313,12.642449855804443
1619377547.56931,-22.66914,12.658079862594604
1619377547.58494,-26.25851,12.673709869384766
1619377547.60056,-30.26978,12.689329862594604
1619377547.61619,-34.61636,12.704959869384766
1619377547.63181,-39.18521,12.720579862594604
1619377547.64744,-43.87413,12.736209869384766
1619377547.66306,-48.47459,12.751829862594604
1619377547.67869,-52.67738,12.767459869384766
1619377547.69432,-55.96715,12.783089876174927
1619377547.70994,-57.69402,12.798709869384766
1619377547.72557,-57.26454,12.814339876174927
1619377547.74119,-54.22804,12.829959869384766
1619377547.75682,-48.55855,12.845589876174927
1619377547.77244,-40.64316,12.861209869384766
1619377547.78807,-31.27505,12.876839876174927
1619377547.8037,-21.4557,12.892469882965088
1619377547.81932,-12.14703,12.908089876174927
1619377547.83495,-4.033478,12.923719882965088
1619377547.85057,2.658051,12.939339876174927
1619377547.8662,8.019119,12.954969882965088
1619377547.88182,12.42743,12.970589876174927
1619377547.89745,16.1535,12.986219882965088
1619377547.91308,19.3407,13.001849889755249
1619377547.9287,21.92839,13.017469882965088
1619377547.94433,23.73618,13.033099889755249
1619377547.95995,24.66154,13.048719882965088
1619377547.97558,24.76881,13.064349889755249
1619377547.9912,24.32442,13.079969882965088
1619377548.00683,23.64322,13.095599889755249
1619377548.02246,23.08195,13.11122989654541
1619377548.03808,22.82104,13.126849889755249
1619377548.05371,22.94949,13.14247989654541
1619377548.06933,23.54947,13.158099889755249
1619377548.08496,24.65005,13.17372989654541
1619377548.10058,26.25055,13.189349889755249
1619377548.11621,28.21352,13.20497989654541
1619377548.13184,30.25095,13.220609903335571
1619377548.14746,31.98015,13.23622989654541
1619377548.16309,33.03117,13.251859903335571
1619377548.17871,33.07118,13.26747989654541
1619377548.19434,31.95277,13.283109903335571
1619377548.20996,29.76306,13.29872989654541
1619377548.22559,26.68994,13.314359903335571
1619377548.24122,23.07443,13.329989910125732
1619377548.25684,19.3085,13.345609903335571
1619377548.27247,15.75166,13.361239910125732
1619377548.28809,12.67159,13.376859903335571
1619377548.30372,10.15103,13.392489910125732
1619377548.31934,7.989059,13.408109903335571
1619377548.33497,5.875961,13.423739910125732
1619377548.3506,3.522568,13.439369916915894
1619377548.36622,0.7774658,13.454989910125732
1619377548.38185,-2.292206,13.470619916915894
1619377548.39747,-5.477554,13.486239910125732
1619377548.4131,-8.6026,13.501869916915894
1619377548.42873,-11.57286,13.517499923706055
1619377548.44435,-14.4272,13.533119916915894
1619377548.45998,-17.29977,13.548749923706055
1619377548.4756,-20.26662,13.564369916915894
1619377548.49123,-23.34402,13.579999923706055
1619377548.50685,-26.57149,13.595619916915894
1619377548.52248,-29.96935,13.611249923706055
1619377548.53811,-33.58687,13.626879930496216
1619377548.55373,-37.40601,13.642499923706055
1619377548.56936,-41.18492,13.658129930496216
1619377548.58498,-44.30534,13.673749923706055
1619377548.60061,-45.84676,13.689379930496216
1619377548.61623,-44.87485,13.704999923706055
1619377548.63186,-40.83636,13.720629930496216
1619377548.64749,-33.83337,13.736259937286377
1619377548.66311,-24.62323,13.751879930496216
1619377548.67874,-14.38724,13.767509937286377
1619377548.69436,-4.364578,13.783129930496216
1619377548.70999,4.528641,13.798759937286377
1619377548.72561,11.91682,13.814379930496216
1619377548.74124,17.79257,13.830009937286377
1619377548.75687,22.38538,13.845639944076538
1619377548.77249,25.84024,13.861259937286377
1619377548.78812,28.16278,13.876889944076538
1619377548.80374,29.29417,13.892509937286377
1619377548.81937,29.24684,13.908139944076538
1619377548.83499,28.22643,13.923759937286377
1619377548.85062,26.61694,13.939389944076538
1619377548.86625,24.91228,13.9550199508667
1619377548.88187,23.4776,13.970639944076538
1619377548.8975,22.44409,13.9862699508667
1619377548.91312,21.71602,14.001889944076538
1619377548.92875,21.041,14.0175199508667
1619377548.94437,20.29561,14.033139944076538
1619377548.96,19.52664,14.0487699508667
1619377548.97563,18.96777,14.06439995765686
1619377548.99125,18.91841,14.0800199508667
1619377549.00688,19.53807,14.09564995765686
1619377549.0225,20.66139,14.1112699508667
1619377549.03813,21.85699,14.12689995765686
1619377549.05375,22.54695,14.1425199508667
1619377549.06938,22.17673,14.15814995765686
1619377549.08501,20.47237,14.173779964447021
1619377549.10063,17.4295,14.18939995765686
1619377549.11626,13.36574,14.205029964447021
1619377549.13188,8.756165,14.22064995765686
1619377549.14751,4.137787,14.236279964447021
1619377549.16313,-0.09086609,14.25189995765686
1619377549.17876,-3.726105,14.267529964447021
1619377549.19439,-6.840439,14.283159971237183
1619377549.21001,-9.743729,14.298779964447021
1619377549.22564,-12.8064,14.314409971237183
1619377549.24126,-16.27618,14.330029964447021
1619377549.25689,-20.19452,14.345659971237183
1619377549.27251,-24.4285,14.361279964447021
1619377549.28814,-28.73981,14.376909971237183
1619377549.30377,-32.97836,14.392539978027344
1619377549.31939,-37.12445,14.408159971237183
1619377549.33502,-41.23637,14.423789978027344
1619377549.35064,-45.45148,14.439409971237183
1619377549.36627,-49.83157,14.455039978027344
1619377549.38189,-54.37166,14.470659971237183
1619377549.39752,-59.03326,14.486289978027344
1619377549.41315,-63.64172,14.501919984817505
1619377549.42877,-67.83147,14.517539978027344
1619377549.4444,-70.94937,14.533169984817505
1619377549.46002,-72.16667,14.548789978027344
1619377549.47565,-70.70964,14.564419984817505
1619377549.49127,-66.17845,14.580039978027344
1619377549.5069,-58.69159,14.595669984817505
1619377549.52253,-48.88956,14.611299991607666
1619377549.53815,-37.72359,14.626919984817505
1619377549.55378,-26.19722,14.642549991607666
1619377549.5694,-15.10147,14.658169984817505
1619377549.58503,-4.919891,14.673799991607666
1619377549.60065,4.095993,14.689419984817505
1619377549.61628,11.87541,14.705049991607666
1619377549.63191,18.36044,14.720679998397827
1619377549.64753,23.56732,14.736299991607666
1619377549.66316,27.50245,14.751929998397827
1619377549.67878,30.23763,14.767549991607666
1619377549.69441,31.83059,14.783179998397827
1619377549.71003,32.37428,14.798799991607666
1619377549.72566,32.00684,14.814429998397827
1619377549.74129,30.93275,14.830060005187988
1619377549.75691,29.46137,14.845679998397827
1619377549.77254,27.92041,14.861310005187988
1619377549.78816,26.65874,14.876929998397827
1619377549.80379,25.90475,14.892560005187988
1619377549.81941,25.78742,14.908179998397827
1619377549.83504,26.30688,14.923810005187988
1619377549.85067,27.26773,14.93944001197815
1619377549.86629,28.36381,14.955060005187988
1619377549.88192,29.20052,14.97069001197815
1619377549.89754,29.40742,14.986310005187988
1619377549.91317,28.68295,15.00194001197815
1619377549.92879,26.89526,15.017560005187988
1619377549.94442,24.09245,15.03319001197815
1619377549.96005,20.48589,15.04882001876831
1619377549.97567,16.42172,15.06444001197815
1619377549.9913,12.2728,15.08007001876831
1619377550.00692,8.370499,15.09569001197815
1619377550.02255,4.932579,15.11132001876831
1619377550.03817,2.102318,15.12694001197815
1619377550.0538,-0.180542,15.14257001876831
1619377550.06943,-2.127846,15.158200025558472
1619377550.08505,-4.032555,15.17382001876831
1619377550.10068,-6.234833,15.189450025558472
1619377550.1163,-8.966972,15.20507001876831
1619377550.13193,-12.34533,15.220700025558472
1619377550.14755,-16.30718,15.23632001876831
1619377550.16318,-20.73534,15.251950025558472
1619377550.17881,-25.43873,15.267579793930054
1619377550.19443,-30.27435,15.283200025558472
1619377550.21006,-35.18362,15.298829793930054
1619377550.22568,-40.12756,15.314450025558472
1619377550.24131,-45.05604,15.330079793930054
1619377550.25693,-49.72301,15.345700025558472
1619377550.27256,-53.66652,15.361329793930054
1619377550.28819,-56.15728,15.376959800720215
1619377550.30381,-56.41978,15.392579793930054
1619377550.31944,-53.83105,15.408209800720215
1619377550.33506,-48.14806,15.423829793930054
1619377550.35069,-39.63522,15.439459800720215
1619377550.36631,-29.03929,15.455079793930054
1619377550.38194,-17.43763,15.470709800720215
1619377550.39757,-5.909096,15.486339807510376
1619377550.41319,4.649345,15.501959800720215
1619377550.42882,13.67589,15.517589807510376
1619377550.44444,21.00547,15.533209800720215
1619377550.46007,26.74827,15.548839807510376
1619377550.47569,31.10688,15.564459800720215
1619377550.49132,34.29887,15.580089807510376
1619377550.50695,36.4246,15.595719814300537
1619377550.52257,37.4572,15.611339807510376
1619377550.5382,37.41049,15.626969814300537
1619377550.55382,36.4197,15.642589807510376
1619377550.56945,34.77027,15.658219814300537
1619377550.58507,32.93367,15.673839807510376
1619377550.6007,31.36142,15.689469814300537
1619377550.61633,30.32563,15.705099821090698
1619377550.63195,29.84203,15.720719814300537
1619377550.64758,29.77274,15.736349821090698
1619377550.6632,29.86625,15.751969814300537
1619377550.67883,29.95062,15.767599821090698
1619377550.69445,29.89022,15.783219814300537
1619377550.71008,29.55969,15.798849821090698
1619377550.72571,28.87616,15.81447982788086
1619377550.74133,27.7223,15.830099821090698
1619377550.75696,26.06409,15.84572982788086
1619377550.77258,23.93974,15.861349821090698
1619377550.78821,21.50725,15.87697982788086
1619377550.80383,18.92403,15.892599821090698
1619377550.81946,16.2816,15.90822982788086
1619377550.83509,13.482,15.92385983467102
1619377550.85071,10.37348,15.93947982788086
1619377550.86634,6.849237,15.95510983467102
1619377550.88196,2.874016,15.97072982788086
1619377550.89759,-1.422587,15.98635983467102
1619377550.91321,-5.901624,16.00197982788086
1619377550.92884,-10.4427,16.01760983467102
1619377550.94447,-15.04609,16.03323984146118
1619377550.96009,-19.64172,16.04885983467102
1619377550.97572,-24.17353,16.06448984146118
1619377550.99134,-28.56917,16.08010983467102
1619377551.00697,-32.80416,16.09573984146118
1619377551.02259,-37.09445,16.11135983467102
1619377551.03822,-41.60154,16.12698984146118
1619377551.05385,-46.28947,16.142619848251343
1619377551.06947,-50.65281,16.15823984146118
1619377551.0851,-53.76929,16.173869848251343
1619377551.10072,-54.44033,16.18948984146118
1619377551.11635,-51.75514,16.205119848251343
1619377551.13198,-45.5098,16.220749855041504
1619377551.1476,-36.26665,16.236369848251343
1619377551.16323,-25.30496,16.251999855041504
1619377551.17885,-13.98916,16.267619848251343
1619377551.19448,-3.418266,16.283249855041504
1619377551.2101,5.879456,16.298869848251343
1619377551.22573,13.81883,16.314499855041504
1619377551.24136,20.55959,16.330129861831665
1619377551.25698,26.19602,16.345749855041504
1619377551.27261,30.61366,16.361379861831665
1619377551.28823,33.60201,16.376999855041504
1619377551.30386,34.9727,16.392629861831665
1619377551.31948,34.8323,16.408249855041504
1619377551.33511,33.56474,16.423879861831665
1619377551.35074,31.81497,16.439509868621826
1619377551.36636,30.18102,16.455129861831665
1619377551.38199,29.04657,16.470759868621826
1619377551.39761,28.42369,16.486379861831665
1619377551.41324,28.00542,16.502009868621826
1619377551.42886,27.49246,16.517629861831665
1619377551.44449,26.70589,16.533259868621826
1619377551.46012,25.76558,16.548889875411987
1619377551.47574,24.96008,16.564509868621826
1619377551.49137,24.57021,16.580139875411987
1619377551.50699,24.58862,16.595759868621826
1619377551.52262,24.63535,16.611389875411987
1619377551.53824,24.14784,16.627009868621826
1619377551.55387,22.63231,16.642639875411987
1619377551.5695,20.05722,16.65826988220215
1619377551.58512,16.76244,16.673889875411987
1619377551.60075,13.33796,16.68951988220215
1619377551.61637,10.25526,16.705139875411987
1619377551.632,7.615013,16.72076988220215
1619377551.64762,5.148308,16.736389875411987
1619377551.66325,2.399742,16.75201988220215
1619377551.67888,-0.9825134,16.76764988899231
1619377551.6945,-5.07391,16.78326988220215
1619377551.71013,-9.625877,16.79889988899231
1619377551.72575,-14.31216,16.81451988220215
1619377551.74138,-18.86243,16.83014988899231
1619377551.757,-23.23408,16.84576988220215
1619377551.77263,-27.55062,16.86139988899231
1619377551.78826,-32.00381,16.87702989578247
1619377551.80388,-36.76086,16.89264988899231
1619377551.81951,-41.84209,16.90827989578247
1619377551.83513,-47.23188,16.92389988899231
1619377551.85076,-52.74119,16.93952989578247
1619377551.86638,-58.14229,16.95514988899231
1619377551.88201,-62.99762,16.97077989578247
1619377551.89764,-66.67054,16.986409902572632
1619377551.91326,-68.34222,17.00202989578247
1619377551.92889,-67.20016,17.017659902572632
1619377551.94451,-62.67582,17.03327989578247
1619377551.96014,-54.67153,17.048909902572632
1619377551.97576,-43.82037,17.06452989578247
1619377551.99139,-31.24263,17.080159902572632
1619377552.00702,-18.33566,17.095789909362793
1619377552.02264,-6.276871,17.111409902572632
1619377552.03827,4.223488,17.127039909362793
1619377552.05389,13.00717,17.142659902572632
1619377552.06952,20.2757,17.158289909362793
1619377552.08514,26.26752,17.173909902572632
1619377552.10077,31.12746,17.189539909362793
1619377552.1164,34.74733,17.205169916152954
1619377552.13202,37.01638,17.220789909362793
1619377552.14765,37.95269,17.236419916152954
1619377552.16327,37.87069,17.252039909362793
1619377552.1789,37.234,17.267669916152954
1619377552.19452,36.50075,17.283289909362793
1619377552.21015,35.9568,17.298919916152954
1619377552.22578,35.64606,17.314549922943115
1619377552.2414,35.49209,17.330169916152954
1619377552.25703,35.37827,17.345799922943115
1619377552.27265,35.31344,17.361419916152954
1619377552.28828,35.34708,17.377049922943115
1619377552.3039,35.43967,17.392669916152954
1619377552.31953,35.40099,17.408299922943115
1619377552.33516,34.81911,17.423929929733276
1619377552.35078,33.31637,17.439549922943115
1619377552.36641,30.66734,17.455179929733276
1619377552.38203,27.00642,17.470799922943115
1619377552.39766,22.6826,17.486429929733276
1619377552.41328,18.1338,17.502049922943115
1619377552.42891,13.70822,17.517679929733276
1619377552.44454,9.523575,17.533309936523438
1619377552.46016,5.579407,17.548929929733276
1619377552.47579,1.730331,17.564559936523438
1619377552.49141,-2.06427,17.580179929733276
1619377552.50704,-5.83931,17.595809936523438
1619377552.52266,-9.58963,17.611429929733276
1619377552.53829,-13.36009,17.627059936523438
1619377552.55392,-17.21165,17.6426899433136
1619377552.56954,-21.17833,17.658309936523438
1619377552.58517,-25.29805,17.6739399433136
1619377552.60079,-29.55099,17.689559936523438
1619377552.61642,-34.01659,17.7051899433136
1619377552.63204,-38.77832,17.720809936523438
1619377552.64767,-43.99445,17.7364399433136
1619377552.6633,-49.63155,17.75206995010376
1619377552.67892,-55.4137,17.7676899433136
1619377552.69455,-60.75272,17.78331995010376
1619377552.71017,-64.80559,17.7989399433136
1619377552.7258,-66.73746,17.81456995010376
1619377552.74142,-65.84984,17.8301899433136
1619377552.75705,-61.8497,17.84581995010376
1619377552.77268,-54.83264,17.86144995689392
1619377552.7883,-45.34265,17.87706995010376
1619377552.80393,-34.09357,17.89269995689392
1619377552.81955,-21.93314,17.90831995010376
1619377552.83518,-9.646194,17.92394995689392
1619377552.8508,2.095993,17.93956995010376
1619377552.86643,12.76584,17.95519995689392
1619377552.88206,22.0209,17.970829963684082
1619377552.89768,29.73959,17.98644995689392
1619377552.91331,35.92361,18.002079963684082
1619377552.92893,40.5816,18.01769995689392
1619377552.94456,43.7451,18.033329963684082
1619377552.96018,45.39851,18.04894995689392
1619377552.97581,45.53648,18.064579963684082
1619377552.99144,44.34906,18.080209970474243
1619377553.00706,42.25453,18.095829963684082
1619377553.02269,39.83569,18.111459970474243
1619377553.03831,37.73979,18.127079963684082
1619377553.05394,36.39885,18.142709970474243
1619377553.06956,35.89384,18.158329963684082
1619377553.08519,35.94856,18.173959970474243
1619377553.10082,36.13841,18.189589977264404
1619377553.11644,35.99809,18.205209970474243
1619377553.13207,35.35089,18.220839977264404
1619377553.14769,34.18715,18.236459970474243
1619377553.16332,32.64549,18.252089977264404
1619377553.17894,30.86562,18.267709970474243
1619377553.19457,28.86749,18.283339977264404
1619377553.2102,26.52806,18.298969984054565
1619377553.22582,23.68636,18.314589977264404
1619377553.24145,20.25194,18.330219984054565
1619377553.25707,16.16583,18.345839977264404
1619377553.2727,11.55986,18.361469984054565
1619377553.28833,6.549133,18.377099990844727
1619377553.30395,1.334518,18.392719984054565
1619377553.31958,-3.876114,18.408349990844727
1619377553.3352,-8.845139,18.423969984054565
1619377553.35083,-13.38986,18.439599990844727
1619377553.36645,-17.37645,18.455219984054565
1619377553.38208,-20.83318,18.470849990844727
1619377553.39771,-24.01707,18.486479997634888
1619377553.41333,-27.29897,18.502099990844727
1619377553.42896,-31.17618,18.517729997634888
1619377553.44458,-35.90514,18.533349990844727
1619377553.46021,-41.37846,18.548979997634888
1619377553.47583,-46.96768,18.564599990844727
1619377553.49146,-51.66927,18.580229997634888
1619377553.50709,-54.28435,18.59586000442505
1619377553.52271,-53.87801,18.611479997634888
1619377553.53834,-50.02142,18.62711000442505
1619377553.55396,-42.91124,18.642729997634888
1619377553.56959,-33.32147,18.65836000442505
1619377553.58521,-22.29703,18.673979997634888
1619377553.60084,-10.86493,18.68961000442505
1619377553.61647,0.124054,18.70524001121521
1619377553.63209,10.12648,18.72086000442505
1619377553.64772,18.98055,18.73649001121521
1619377553.66334,26.70001,18.75211000442505
1619377553.67897,33.44542,18.76774001121521
1619377553.69459,39.41335,18.78336000442505
1619377553.71022,44.66095,18.79899001121521
1619377553.72585,49.15802,18.81462001800537
1619377553.74147,52.74904,18.83024001121521
1619377553.7571,55.25204,18.84587001800537
1619377553.77272,56.59773,18.86149001121521
1619377553.78835,56.99312,18.87712001800537
1619377553.80397,56.85774,18.89274001121521
1619377553.8196,56.70461,18.90837001800537
1619377553.83523,57.00549,18.924000024795532
1619377553.85085,57.95232,18.93962001800537
1619377553.86648,59.47795,18.955250024795532
1619377553.8821,61.26593,18.97087001800537
1619377553.89773,62.91129,18.986500024795532
1619377553.91335,64.04131,19.00212001800537
1619377553.92898,64.48615,19.017750024795532
1619377553.94461,64.30232,19.033380031585693
1619377553.96023,63.74417,19.049000024795532
1619377553.97586,63.16197,19.064630031585693
1619377553.99148,62.78799,19.080250024795532
1619377554.00711,62.69772,19.095880031585693
1619377554.02273,62.70918,19.111500024795532
1619377554.03836,62.53716,19.127130031585693
1619377554.05399,61.96875,19.142759799957275
1619377554.06961,61.01132,19.158380031585693
1619377554.08524,59.88974,19.174009799957275
1619377554.10086,58.96802,19.189630031585693
1619377554.11649,58.51599,19.205259799957275
1619377554.13211,58.5031,19.220880031585693
1619377554.14774,58.63306,19.236509799957275
1619377554.16337,58.44414,19.252139806747437
1619377554.17899,57.37677,19.267759799957275
1619377554.19462,54.88377,19.283389806747437
1619377554.21024,50.42491,19.299009799957275
1619377554.22587,43.56308,19.314639806747437
1619377554.24149,34.30637,19.330259799957275
1619377554.25712,23.40137,19.345889806747437
1619377554.27275,12.36017,19.361519813537598
1619377554.28837,3.181946,19.377139806747437
1619377554.304,-2.410767,19.392769813537598
1619377554.31962,-3.679291,19.408389806747437
1619377554.33525,-1.269707,19.424019813537598
1619377554.35087,3.03405,19.439639806747437
1619377554.3665,6.972137,19.455269813537598
1619377554.38213,8.58992,19.47089982032776
1619377554.39775,6.850975,19.486519813537598
1619377554.41338,1.713715,19.50214982032776
1619377554.429,-6.130875,19.517769813537598
1619377554.44463,-15.67912,19.53339982032776
1619377554.46025,-25.85913,19.549019813537598
1619377554.47588,-35.70521,19.56464982032776
1619377554.49151,-44.42632,19.58027982711792
1619377554.50713,-51.42786,19.59589982032776
1619377554.52276,-56.3873,19.61152982711792
1619377554.53838,-59.3503,19.62714982032776
1619377554.55401,-60.56815,19.64277982711792
1619377554.56963,-60.37193,19.65839982032776
1619377554.58526,-59.0,19.67402982711792
1619377554.60089,-56.4353,19.68965983390808
1619377554.61651,-52.42934,19.70527982711792
1619377554.63214,-46.57546,19.72090983390808
1619377554.64776,-38.54018,19.73652982711792
1619377554.66339,-28.17071,19.75215983390808
1619377554.67901,-15.82895,19.76777982711792
1619377554.69464,-2.39835,19.78340983390808
1619377554.71027,10.7637,19.799039840698242
1619377554.72589,22.07026,19.81465983390808
1619377554.74152,29.96466,19.830289840698242
1619377554.75714,33.17538,19.84590983390808
1619377554.77277,30.883,19.861539840698242
1619377554.78839,22.86115,19.87715983390808
1619377554.80402,9.555862,19.892789840698242
1619377554.81965,-7.899609,19.908419847488403
1619377554.83527,-27.84602,19.924039840698242
1619377554.8509,-48.33092,19.939669847488403
1619377554.86652,-67.49028,19.955289840698242
1619377554.88215,-83.94093,19.970919847488403
1619377554.89777,-96.96375,19.986539840698242
1619377554.9134,-106.4748,20.002169847488403
1619377554.92903,-112.8089,20.017799854278564
1619377554.94465,-116.4161,20.033419847488403
1619377554.96028,-117.7388,20.049049854278564
1619377554.9759,-117.2336,20.064669847488403
1619377554.99153,-115.4762,20.080299854278564
1619377555.00715,-113.2362,20.095919847488403
1619377555.02278,-111.3493,20.111549854278564
1619377555.03841,-110.5191,20.127179861068726
1619377555.05403,-110.8736,20.142799854278564
1619377555.06966,-111.8529,20.158429861068726
1619377555.08528,-112.2683,20.174049854278564
1619377555.10091,-110.7095,20.189679861068726
1619377555.11653,-105.9914,20.205299854278564
1619377555.13216,-97.61407,20.220929861068726
1619377555.14779,-85.86967,20.236559867858887
1619377555.16341,-71.6353,20.252179861068726
1619377555.17904,-56.06779,20.267809867858887
1619377555.19466,-40.15564,20.283429861068726
1619377555.21029,-24.62198,20.299059867858887
1619377555.22591,-9.863358,20.314679861068726
1619377555.24154,3.79171,20.330309867858887
1619377555.25717,16.02667,20.345939874649048
1619377555.27279,26.36786,20.361559867858887
1619377555.28842,34.38242,20.377189874649048
1619377555.30404,39.83515,20.392809867858887
1619377555.31967,42.80582,20.408439874649048
1619377555.33529,43.82075,20.424059867858887
1619377555.35092,43.62299,20.439689874649048
1619377555.36655,42.96339,20.45531988143921
1619377555.38217,42.33386,20.470939874649048
1619377555.3978,41.93118,20.48656988143921
1619377555.41342,41.64201,20.502189874649048
1619377555.42905,41.2011,20.51781988143921
1619377555.44467,40.48029,20.533439874649048
1619377555.4603,39.51864,20.54906988143921
1619377555.47593,38.55561,20.56469988822937
1619377555.49155,37.83749,20.58031988143921
1619377555.50718,37.49465,20.59594988822937
1619377555.5228,37.42574,20.61156988143921
1619377555.53843,37.32964,20.62719988822937
1619377555.55405,36.81809,20.64281988143921
1619377555.56968,35.57895,20.65844988822937
1619377555.58531,33.53713,20.67407989501953
1619377555.60093,30.81597,20.68969988822937
1619377555.61656,27.70586,20.70532989501953
1619377555.63218,24.43058,20.72094988822937
1619377555.64781,21.06798,20.73657989501953
1619377555.66343,17.57254,20.75219988822937
1619377555.67906,13.85065,20.76782989501953
1619377555.69469,9.846818,20.783459901809692
1619377555.71031,5.581789,20.79907989501953
1619377555.72594,1.11832,20.814709901809692
1619377555.74156,-3.510858,20.83032989501953
1619377555.75719,-8.240285,20.845959901809692
1619377555.77281,-13.01262,20.86157989501953
1619377555.78844,-17.69029,20.877209901809692
1619377555.80407,-22.12974,20.892839908599854
1619377555.81969,-26.28154,20.908459901809692
1619377555.83532,-30.25616,20.924089908599854
1619377555.85094,-34.3544,20.939709901809692
1619377555.86657,-38.88807,20.955339908599854
1619377555.8822,-43.96403,20.970969915390015
1619377555.89782,-49.175,20.986589908599854
1619377555.91345,-53.57957,21.002219915390015
1619377555.92907,-55.93821,21.017839908599854
1619377555.9447,-55.13966,21.033469915390015
1619377555.96032,-50.64151,21.049089908599854
1619377555.97595,-42.72943,21.064719915390015
1619377555.99158,-32.41109,21.080349922180176
1619377556.0072,-20.95605,21.095969915390015
1619377556.02283,-9.576078,21.111599922180176
1619377556.03845,0.9810829,21.127219915390015
1619377556.05408,10.44146,21.142849922180176
1619377556.0697,18.80293,21.158469915390015
1619377556.08533,26.04388,21.174099922180176
1619377556.10096,31.96009,21.189729928970337
1619377556.11658,36.22059,21.205349922180176
1619377556.13221,38.62233,21.220979928970337
1619377556.14783,39.28937,21.236599922180176
1619377556.16346,38.70232,21.252229928970337
1619377556.17908,37.59868,21.267849922180176
1619377556.19471,36.62524,21.283479928970337
1619377556.21034,36.18965,21.299109935760498
1619377556.22596,36.33216,21.314729928970337
1619377556.24159,36.81277,21.330359935760498
1619377556.25721,37.29993,21.345979928970337
1619377556.27284,37.58496,21.361609935760498
1619377556.28846,37.65606,21.377229928970337
1619377556.30409,37.57656,21.392859935760498
1619377556.31972,37.46425,21.40848994255066
1619377556.33534,37.30105,21.424109935760498
1619377556.35097,36.886,21.43973994255066
1619377556.36659,35.86804,21.455359935760498
1619377556.38222,33.93069,21.47098994255066
1619377556.39784,30.95824,21.486609935760498
1619377556.41347,27.12383,21.50223994255066
1619377556.4291,22.86893,21.51786994934082
1619377556.44472,18.59914,21.53348994255066
1619377556.46035,14.59408,21.54911994934082
1619377556.47597,10.86178,21.56473994255066
1619377556.4916,7.136589,21.58036994934082
1619377556.50722,3.162819,21.59598994255066
1619377556.52285,-1.198586,21.61161994934082
1619377556.53848,-5.880821,21.62724995613098
1619377556.5541,-10.59271,21.64286994934082
1619377556.56973,-15.03614,21.65849995613098
1619377556.58535,-19.04335,21.67411994934082
1619377556.60098,-22.58377,21.68974995613098
1619377556.6166,-25.76273,21.70536994934082
1619377556.63223,-28.73639,21.72099995613098
1619377556.64786,-31.68728,21.736629962921143
1619377556.66348,-34.87132,21.75224995613098
1619377556.67911,-38.55394,21.767879962921143
1619377556.69473,-42.86095,21.78349995613098
1619377556.71036,-47.63223,21.799129962921143
1619377556.72598,-52.19035,21.81474995613098
1619377556.74161,-55.42943,21.830379962921143
1619377556.75724,-56.15551,21.846009969711304
1619377556.77286,-53.48298,21.861629962921143
1619377556.78849,-47.2344,21.877259969711304
1619377556.80411,-38.01608,21.892879962921143
1619377556.81974,-27.03577,21.908509969711304
1619377556.83536,-15.57993,21.924129962921143
1619377556.85099,-4.626953,21.939759969711304
1619377556.86662,5.347984,21.955389976501465
1619377556.88224,14.29539,21.971009969711304
1619377556.89787,22.28626,21.986639976501465
1619377556.91349,29.27294,22.002259969711304
1619377556.92912,35.00541,22.017889976501465
1619377556.94474,39.09778,22.033509969711304
1619377556.96037,41.25143,22.049139976501465
1619377556.976,41.46432,22.064769983291626
1619377556.99162,40.14532,22.080389976501465
1619377557.00725,38.00657,22.096019983291626
1619377557.02287,35.85993,22.111639976501465
1619377557.0385,34.28955,22.127269983291626
1619377557.05412,33.49694,22.142889976501465
1619377557.06975,33.24655,22.158519983291626
1619377557.08538,33.09511,22.174149990081787
1619377557.101,32.63057,22.189769983291626
1619377557.11663,31.71194,22.205399990081787
1619377557.13225,30.51559,22.221019983291626
1619377557.14788,29.35246,22.236649990081787
1619377557.1635,28.4414,22.252269983291626
1619377557.17913,27.71848,22.267899990081787
1619377557.19476,26.88289,22.28352999687195
1619377557.21038,25.5468,22.299149990081787
1619377557.22601,23.46902,22.31477999687195
1619377557.24163,20.66927,22.330399990081787
1619377557.25726,17.37527,22.34602999687195
1619377557.27288,13.9852,22.361649990081787
1619377557.28851,10.84984,22.37727999687195
1619377557.30414,8.220139,22.39291000366211
1619377557.31976,6.074844,22.40852999687195
1619377557.33539,4.172134,22.42416000366211
1619377557.35101,2.066353,22.43977999687195
1619377557.36664,-0.7687073,22.45541000366211
1619377557.38226,-4.669472,22.47102999687195
1619377557.39789,-9.640335,22.48666000366211
1619377557.41352,-15.24728,22.50229001045227
1619377557.42914,-20.86734,22.51791000366211
1619377557.44477,-25.85159,22.53354001045227
1619377557.46039,-29.8474,22.54916000366211
1619377557.47602,-32.88698,22.56479001045227
1619377557.49164,-35.34306,22.58041000366211
1619377557.50727,-37.78149,22.59604001045227
1619377557.5229,-40.75546,22.61167001724243
1619377557.53852,-44.65202,22.62729001045227
1619377557.55415,-49.45994,22.64292001724243
1619377557.56977,-54.8118,22.65854001045227
1619377557.5854,-59.82114,22.67417001724243
1619377557.60102,-63.28619,22.68979001045227
1619377557.61665,-63.9555,22.70542001724243
1619377557.63228,-60.94483,22.721050024032593
1619377557.6479,-54.10008,22.73667001724243
1619377557.66353,-44.07877,22.752300024032593
1619377557.67915,-32.12439,22.76792001724243
1619377557.69478,-19.6617,22.783550024032593
1619377557.7104,-7.827705,22.79917001724243
1619377557.72603,2.7369,22.814800024032593
1619377557.74166,11.89713,22.830430030822754
1619377557.75728,19.7831,22.846050024032593
1619377557.77291,26.59446,22.861680030822754
1619377557.78853,32.38927,22.877300024032593
1619377557.80416,37.12272,22.892930030822754
1619377557.81978,40.6075,22.908550024032593
1619377557.83541,42.74271,22.924180030822754
1619377557.85104,43.53926,22.939809799194336
1619377557.86666,43.19078,22.955430030822754
1619377557.88229,42.02838,22.971059799194336
1619377557.89791,40.47395,22.986680030822754
1619377557.91354,38.89275,23.002309799194336
1619377557.92916,37.49539,23.017930030822754
1619377557.94479,36.3855,23.033559799194336
1619377557.96042,35.50981,23.049189805984497
1619377557.97604,34.88082,23.064809799194336
1619377557.99167,34.45918,23.080439805984497
1619377558.00729,34.26227,23.096059799194336
1619377558.02292,34.24807,23.111689805984497
1619377558.03854,34.27466,23.127309799194336
1619377558.05417,34.12911,23.142939805984497
1619377558.0698,33.50977,23.158569812774658
1619377558.08542,32.23895,23.174189805984497
1619377558.10105,30.21786,23.189819812774658
1619377558.11667,27.52659,23.205439805984497
1619377558.1323,24.37305,23.221069812774658
1619377558.14793,20.98624,23.23669981956482
1619377558.16355,17.56583,23.252319812774658
1619377558.17918,14.21682,23.26794981956482
1619377558.1948,10.94341,23.283569812774658
1619377558.21043,7.675819,23.29919981956482
1619377558.22605,4.32032,23.314819812774658
1619377558.24168,0.7201157,23.33044981956482
1619377558.25731,-3.22924,23.34607982635498
1619377558.27293,-7.48703,23.36169981956482
1619377558.28856,-11.93404,23.37732982635498
1619377558.30418,-16.27338,23.39294981956482
1619377558.31981,-20.22814,23.40857982635498
1619377558.33543,-23.60458,23.42419981956482
1619377558.35106,-26.39641,23.43982982635498
1619377558.36669,-28.83644,23.45545983314514
1619377558.38231,-31.33407,23.47107982635498
1619377558.39794,-34.2746,23.48670983314514
1619377558.41356,-37.88054,23.50232982635498
1619377558.42919,-42.1277,23.51795983314514
1619377558.44481,-46.74063,23.53357982635498
1619377558.46044,-51.28658,23.54920983314514
1619377558.47607,-55.1486,23.564839839935303
1619377558.49169,-57.57129,23.58045983314514
1619377558.50732,-57.73859,23.596089839935303
1619377558.52294,-54.89393,23.61170983314514
1619377558.53857,-48.6727,23.627339839935303
1619377558.55419,-39.29061,23.64295983314514
1619377558.56982,-27.64148,23.658589839935303
1619377558.58545,-15.03697,23.674219846725464
1619377558.60107,-2.839729,23.689839839935303
1619377558.6167,7.951859,23.705469846725464
1619377558.63232,16.87727,23.721089839935303
1619377558.64795,23.95633,23.736719846725464
1619377558.66357,29.43758,23.752339839935303
1619377558.6792,33.52859,23.767969846725464
1619377558.69483,36.30271,23.783599853515625
1619377558.71045,37.74203,23.799219846725464
1619377558.72608,37.90607,23.814849853515625
1619377558.7417,37.03308,23.830469846725464
1619377558.75733,35.47586,23.846099853515625
1619377558.77295,33.64843,23.861719846725464
1619377558.78858,31.83635,23.877349853515625
1619377558.80421,30.16509,23.892979860305786
1619377558.81983,28.71417,23.908599853515625
1619377558.83546,27.52212,23.924229860305786
1619377558.85108,26.70004,23.939849853515625
1619377558.86671,26.33865,23.955479860305786
1619377558.88233,26.50677,23.971099853515625
1619377558.89796,27.06273,23.986729860305786
1619377558.91359,27.74209,24.002359867095947
1619377558.92921,28.18423,24.017979860305786
1619377558.94484,28.04153,24.033609867095947
1619377558.96046,27.12873,24.049229860305786
1619377558.97609,25.48866,24.064859867095947
1619377558.99171,23.3763,24.080479860305786
1619377559.00734,21.10126,24.096109867095947
1619377559.02297,18.93616,24.11173987388611
1619377559.03859,16.9557,24.127359867095947
1619377559.05422,15.03158,24.14298987388611
1619377559.06984,12.93385,24.158609867095947
1619377559.08547,10.41382,24.17423987388611
1619377559.10109,7.368935,24.189859867095947
1619377559.11672,3.841148,24.20548987388611
1619377559.13235,-0.03387451,24.22111988067627
1619377559.14797,-4.09565,24.23673987388611
1619377559.1636,-8.212677,24.25236988067627
1619377559.17922,-12.30296,24.26798987388611
1619377559.19485,-16.19002,24.28361988067627
1619377559.21047,-19.62354,24.29923987388611
1619377559.2261,-22.39934,24.31486988067627
1619377559.24173,-24.46608,24.33049988746643
1619377559.25735,-26.0542,24.34611988067627
1619377559.27298,-27.63128,24.36174988746643
1619377559.2886,-29.65769,24.37736988067627
1619377559.30423,-32.41812,24.39299988746643
1619377559.31985,-35.95105,24.40861988067627
1619377559.33548,-40.06384,24.42424988746643
1619377559.35111,-44.37299,24.439879894256592
1619377559.36673,-48.40395,24.45549988746643
1619377559.38236,-51.47292,24.471129894256592
1619377559.39798,-52.72619,24.48674988746643
1619377559.41361,-51.29356,24.502379894256592
1619377559.42923,-46.53847,24.51799988746643
1619377559.44486,-38.45758,24.533629894256592
1619377559.46049,-27.8773,24.549259901046753
1619377559.47611,-16.10623,24.564879894256592
1619377559.49174,-4.536499,24.580509901046753
1619377559.50736,5.866333,24.596129894256592
1619377559.52299,14.78487,24.611759901046753
1619377559.53861,22.31895,24.627379894256592
1619377559.55424,28.68605,24.643009901046753
1619377559.56987,33.87747,24.658639907836914
1619377559.58549,37.64052,24.674259901046753
1619377559.60112,39.63689,24.689889907836914
1619377559.61674,39.90289,24.705509901046753
1619377559.63237,38.77774,24.721139907836914
1619377559.64799,36.92456,24.736759901046753
1619377559.66362,35.0175,24.752389907836914
1619377559.67925,33.40588,24.768019914627075
1619377559.69487,32.12426,24.783639907836914
1619377559.7105,30.9852,24.799269914627075
1619377559.72612,29.81022,24.814889907836914
1619377559.74175,28.6232,24.830519914627075
1619377559.75737,27.78264,24.846139907836914
1619377559.773,27.65849,24.861769914627075
1619377559.78863,28.50541,24.877399921417236
1619377559.80425,30.28966,24.893019914627075
1619377559.81988,32.60455,24.908649921417236
1619377559.8355,34.78622,24.924269914627075
1619377559.85113,36.23859,24.939899921417236
1619377559.86675,36.67327,24.955519914627075
1619377559.88238,36.2093,24.971149921417236
1619377559.89801,35.46523,24.986779928207397
1619377559.91363,35.08867,25.002399921417236
1619377559.92926,35.56623,25.018029928207397
1619377559.94488,37.04942,25.033649921417236
1619377559.96051,39.18618,25.049279928207397
1619377559.97613,41.40713,25.064899921417236
1619377559.99176,43.13881,25.080529928207397
1619377560.00739,44.12848,25.09615993499756
1619377560.02301,44.42527,25.111779928207397
1619377560.03864,44.40583,25.12740993499756
1619377560.05426,44.49039,25.143029928207397
1619377560.06989,45.08495,25.15865993499756
1619377560.08551,46.49589,25.174279928207397
1619377560.10114,48.80267,25.18990993499756
1619377560.11677,51.89846,25.20553994178772
1619377560.13239,55.2398,25.22115993499756
1619377560.14802,58.04219,25.23678994178772
1619377560.16364,59.32452,25.25240993499756
1619377560.17927,58.27347,25.26803994178772
1619377560.19489,54.56944,25.28365993499756
1619377560.21052,48.638,25.29928994178772
1619377560.22615,41.59973,25.31491994857788
1619377560.24177,34.8896,25.33053994178772
1619377560.2574,29.91503,25.34616994857788
1619377560.27302,27.45628,25.36178994178772
1619377560.28865,27.47402,25.37741994857788
1619377560.30427,29.06739,25.39303994178772
1619377560.3199,30.91121,25.40866994857788
1619377560.33553,31.68623,25.424299955368042
1619377560.35115,30.60294,25.43991994857788
1619377560.36678,27.58331,25.455549955368042
1619377560.3824,23.0777,25.47116994857788
1619377560.39803,17.79276,25.486799955368042
1619377560.41366,12.18951,25.502429962158203
1619377560.42928,6.352188,25.518049955368042
1619377560.44491,-0.007141113,25.533679962158203
1619377560.46053,-7.262405,25.549299955368042
1619377560.47616,-15.57237,25.564929962158203
1619377560.49178,-24.86594,25.580549955368042
1619377560.50741,-34.78499,25.596179962158203
1619377560.52304,-44.96422,25.611809968948364
1619377560.53866,-55.01187,25.627429962158203
1619377560.55429,-64.61041,25.643059968948364
1619377560.56991,-73.38585,25.658679962158203
1619377560.58554,-80.89398,25.674309968948364
1619377560.60116,-86.66241,25.689929962158203
1619377560.61679,-90.18793,25.705559968948364
1619377560.63242,-91.17508,25.721189975738525
1619377560.64804,-89.4805,25.736809968948364
1619377560.66367,-85.32452,25.752439975738525
1619377560.67929,-79.14291,25.768059968948364
1619377560.69492,-71.56192,25.783689975738525
1619377560.71054,-63.19308,25.799309968948364
1619377560.72617,-54.58499,25.814939975738525
1619377560.7418,-46.29044,25.830569982528687
1619377560.75742,-38.85062,25.846189975738525
1619377560.77305,-32.89307,25.861819982528687
1619377560.78867,-28.89484,25.877439975738525
1619377560.8043,-27.19113,25.893069982528687
1619377560.81992,-27.77161,25.908689975738525
1619377560.83555,-30.40265,25.924319982528687
1619377560.85118,-34.90878,25.939949989318848
1619377560.8668,-41.37457,25.955569982528687
1619377560.88243,-50.07663,25.971199989318848
1619377560.89805,-61.2608,25.986819982528687
1619377560.91368,-74.69162,26.002449989318848
1619377560.9293,-89.38647,26.018069982528687
1619377560.94493,-103.778,26.033699989318848
1619377560.96056,-116.1175,26.04932999610901
1619377560.97618,-124.9692,26.064949989318848
1619377560.99181,-129.6515,26.08057999610901
1619377561.00743,-130.2834,26.096199989318848
1619377561.02306,-127.5787,26.11182999610901
1619377561.03868,-122.6266,26.127449989318848
1619377561.05431,-116.6332,26.14307999610901
1619377561.06994,-110.7146,26.15871000289917
1619377561.08556,-105.6447,26.17432999610901
1619377561.10119,-101.6058,26.18996000289917
1619377561.11681,-98.13498,26.20557999610901
1619377561.13244,-94.22604,26.22121000289917
1619377561.14806,-88.65805,26.23682999610901
1619377561.16369,-80.43616,26.25246000289917
1619377561.17932,-69.20108,26.26809000968933
1619377561.19494,-55.33652,26.28371000289917
1619377561.21057,-39.77112,26.29934000968933
1619377561.22619,-23.61514,26.31496000289917
1619377561.24182,-7.905945,26.33059000968933
1619377561.25744,6.60144,26.34621000289917
1619377561.27307,19.39993,26.36184000968933
1619377561.2887,30.27676,26.377470016479492
1619377561.30432,39.16479,26.39309000968933
1619377561.31995,46.09991,26.408720016479492
1619377561.33557,51.16226,26.42434000968933
1619377561.3512,54.41034,26.439970016479492
1619377561.36682,55.96454,26.45559000968933
1619377561.38245,56.06207,26.471220016479492
1619377561.39808,55.09906,26.486850023269653
1619377561.4137,53.53708,26.502470016479492
1619377561.42933,51.84332,26.518100023269653
1619377561.44495,50.3045,26.533720016479492
1619377561.46058,49.00446,26.549350023269653
1619377561.4762,47.88687,26.564970016479492
1619377561.49183,46.85196,26.580600023269653
1619377561.50746,45.88498,26.596230030059814
1619377561.52308,45.14389,26.611850023269653
1619377561.53871,44.81653,26.627480030059814
1619377561.55433,44.95451,26.643100023269653
1619377561.56996,45.31992,26.658730030059814
1619377561.58558,45.39409,26.674350023269653
1619377561.60121,44.58107,26.689980030059814
1619377561.61684,42.50165,26.705609798431396
1619377561.63246,39.12764,26.721230030059814
1619377561.64809,34.72493,26.736859798431396
1619377561.66371,29.73776,26.752480030059814
1619377561.67934,24.64981,26.768109798431396
1619377561.69496,19.80225,26.783730030059814
1619377561.71059,15.35281,26.799359798431396
1619377561.72622,11.30096,26.814989805221558
1619377561.74184,7.549545,26.830609798431396
1619377561.75747,3.914856,26.846239805221558
1619377561.77309,0.1466522,26.861859798431396
1619377561.78872,-3.973404,26.877489805221558
1619377561.80434,-8.540741,26.893109798431396
1619377561.81997,-13.35588,26.908739805221558
1619377561.8356,-17.94893,26.92436981201172
1619377561.85122,-21.8331,26.939989805221558
1619377561.86685,-24.76675,26.95561981201172
1619377561.88247,-26.94583,26.971239805221558
1619377561.8981,-29.00719,26.98686981201172
1619377561.91372,-31.73782,27.002489805221558
1619377561.92935,-35.68997,27.01811981201172
1619377561.94498,-40.93625,27.03374981880188
1619377561.9606,-46.95506,27.04936981201172
1619377561.97623,-52.75119,27.06499981880188
1619377561.99185,-57.14235,27.08061981201172
1619377562.00748,-58.99133,27.09624981880188
1619377562.0231,-57.47429,27.11186981201172
1619377562.03873,-52.29938,27.12749981880188
1619377562.05436,-43.6857,27.14312982559204
1619377562.06998,-32.4404,27.15874981880188
1619377562.08561,-19.74591,27.17437982559204
1619377562.10123,-6.974838,27.18999981880188
1619377562.11686,4.680389,27.20562982559204
1619377562.13248,14.45561,27.22124981880188
1619377562.14811,22.12154,27.23687982559204
1619377562.16374,27.89479,27.252509832382202
1619377562.17936,32.20316,27.26812982559204
1619377562.19499,35.46512,27.283759832382202
1619377562.21061,37.94724,27.29937982559204
1619377562.22624,39.68105,27.315009832382202
1619377562.24186,40.60256,27.33062982559204
1619377562.25749,40.67168,27.346259832382202
1619377562.27312,40.00796,27.361889839172363
1619377562.28874,38.86974,27.377509832382202
1619377562.30437,37.63041,27.393139839172363
1619377562.31999,36.59806,27.408759832382202
1619377562.33562,35.92912,27.424389839172363
1619377562.35124,35.6197,27.440009832382202
1619377562.36687,35.46885,27.455639839172363
1619377562.3825,35.29924,27.471269845962524
1619377562.39812,34.91527,27.486889839172363
1619377562.41375,34.20901,27.502519845962524
1619377562.42937,33.11858,27.518139839172363
1619377562.445,31.61401,27.533769845962524
1619377562.46062,29.70666,27.549389839172363
1619377562.47625,27.41821,27.565019845962524
1619377562.49188,24.74722,27.580649852752686
1619377562.5075,21.67702,27.596269845962524
1619377562.52313,18.25945,27.611899852752686
1619377562.53875,14.57681,27.627519845962524
1619377562.55438,10.82243,27.643149852752686
1619377562.57,7.259865,27.658769845962524
1619377562.58563,4.140587,27.674399852752686
1619377562.60126,1.60022,27.690029859542847
1619377562.61688,-0.5005646,27.705649852752686
1619377562.63251,-2.541275,27.721279859542847
1619377562.64813,-4.991508,27.736899852752686
1619377562.66376,-8.195473,27.752529859542847
1619377562.67938,-12.15891,27.768149852752686
1619377562.69501,-16.54938,27.783779859542847
1619377562.71064,-20.82061,27.799409866333008
1619377562.72626,-24.53548,27.815029859542847
1619377562.74189,-27.50313,27.830659866333008
1619377562.75751,-29.88664,27.846279859542847
1619377562.77314,-32.06517,27.861909866333008
1619377562.78876,-34.50874,27.877529859542847
1619377562.80439,-37.56576,27.893159866333008
1619377562.82002,-41.40974,27.90878987312317
1619377562.83564,-45.99141,27.924409866333008
1619377562.85127,-50.95898,27.94003987312317
1619377562.86689,-55.64143,27.955659866333008
1619377562.88252,-59.03603,27.97128987312317
1619377562.89814,-59.99863,27.986909866333008
1619377562.91377,-57.61251,28.00253987312317
1619377562.9294,-51.54431,28.01816987991333
1619377562.94502,-42.24408,28.03378987312317
1619377562.96065,-30.85673,28.04941987991333
1619377562.97627,-18.79634,28.06503987312317
1619377562.9919,-7.328115,28.08066987991333
1619377563.00753,2.81496,28.09629988670349
1619377563.02315,11.45478,28.11191987991333
1619377563.03878,18.7853,28.12754988670349
1619377563.0544,25.02415,28.14316987991333
1619377563.07003,30.24229,28.15879988670349
1619377563.08565,34.32188,28.17441987991333
1619377563.10128,37.09694,28.19004988670349
1619377563.11691,38.50243,28.205679893493652
1619377563.13253,38.672,28.22129988670349
1619377563.14816,38.00183,28.236929893493652
1619377563.16378,36.95103,28.25254988670349
1619377563.17941,35.94953,28.268179893493652
1619377563.19503,35.17974,28.28379988670349
1619377563.21066,34.64488,28.299429893493652
1619377563.22629,34.18038,28.315059900283813
1619377563.24191,33.62165,28.330679893493652
1619377563.25754,32.93065,28.346309900283813
1619377563.27316,32.20053,28.361929893493652
1619377563.28879,31.59411,28.377559900283813
1619377563.30441,31.2129,28.393179893493652
1619377563.32004,30.96953,28.408809900283813
1619377563.33567,30.64108,28.424439907073975
1619377563.35129,29.90804,28.440059900283813
1619377563.36692,28.48942,28.455689907073975
1619377563.38254,26.22016,28.471309900283813
1619377563.39817,23.16872,28.486939907073975
1619377563.41379,19.58176,28.502559900283813
1619377563.42942,15.83912,28.518189907073975
1619377563.44505,12.26908,28.533819913864136
1619377563.46067,9.034138,28.549439907073975
1619377563.4763,6.137585,28.565069913864136
1619377563.49192,3.409119,28.580689907073975
1619377563.50755,0.6347656,28.596319913864136
1619377563.52317,-2.325504,28.611939907073975
1619377563.5388,-5.470547,28.627569913864136
1619377563.55443,-8.729111,28.643199920654297
1619377563.57005,-12.03868,28.658819913864136
1619377563.58568,-15.43845,28.674449920654297
1619377563.6013,-19.05143,28.690069913864136
1619377563.61693,-23.00586,28.705699920654297
1619377563.63255,-27.35515,28.721319913864136
1619377563.64818,-32.07056,28.736949920654297
1619377563.66381,-37.10075,28.752579927444458
1619377563.67943,-42.40792,28.768199920654297
1619377563.69506,-47.93663,28.783829927444458
1619377563.71068,-53.42592,28.799449920654297
1619377563.72631,-58.28356,28.815079927444458
1619377563.74193,-61.51048,28.830699920654297
1619377563.75756,-61.93201,28.846329927444458
1619377563.77319,-58.6429,28.86195993423462
1619377563.78881,-51.41096,28.877579927444458
1619377563.80444,-40.82899,28.89320993423462
1619377563.82006,-28.18419,28.908829927444458
1619377563.83569,-14.98884,28.92445993423462
1619377563.85131,-2.548981,28.940079927444458
1619377563.86694,8.359512,28.95570993423462
1619377563.88257,17.51035,28.97133994102478
1619377563.89819,25.00673,28.98695993423462
1619377563.91382,30.916,29.00258994102478
1619377563.92944,35.24312,29.01820993423462
1619377563.94507,37.91677,29.03383994102478
1619377563.96069,38.96967,29.04945993423462
1619377563.97632,38.69116,29.06508994102478
1619377563.99195,37.58079,29.08071994781494
1619377564.00757,36.18884,29.09633994102478
1619377564.0232,34.94501,29.11196994781494
1619377564.03882,34.07264,29.12758994102478
1619377564.05445,33.52544,29.14321994781494
1619377564.07007,33.17713,29.15883994102478
1619377564.0857,32.94518,29.17446994781494
1619377564.10133,32.7458,29.190099954605103
1619377564.11695,32.58993,29.20571994781494
1619377564.13258,32.45996,29.221349954605103
1619377564.1482,32.32069,29.23696994781494
1619377564.16383,32.04163,29.252599954605103
1619377564.17945,31.45023,29.26821994781494
1619377564.19508,30.28281,29.283849954605103
1619377564.21071,28.35178,29.299479961395264
1619377564.22633,25.60677,29.315099954605103
1619377564.24196,22.12753,29.330729961395264
1619377564.25758,18.16977,29.346349954605103
1619377564.27321,14.0601,29.361979961395264
1619377564.28883,10.03855,29.377599954605103
1619377564.30446,6.13945,29.393229961395264
1619377564.32009,2.188568,29.408859968185425
1619377564.33571,-2.134933,29.424479961395264
1619377564.35134,-7.071289,29.440109968185425
1619377564.36696,-12.62015,29.455729961395264
1619377564.38259,-18.53139,29.471359968185425
1619377564.39821,-24.31415,29.486979961395264
1619377564.41384,-29.55321,29.502609968185425
1619377564.42947,-33.98749,29.518239974975586
1619377564.44509,-37.63878,29.533859968185425
1619377564.46072,-40.80295,29.549489974975586
1619377564.47634,-43.88251,29.565109968185425
1619377564.49197,-47.30136,29.580739974975586
1619377564.50759,-51.33368,29.596359968185425
1619377564.52322,-56.11157,29.611989974975586
1619377564.53885,-61.44447,29.627619981765747
1619377564.55447,-66.86913,29.643239974975586
1619377564.5701,-71.5957,29.658869981765747
1619377564.58572,-74.56404,29.674489974975586
1619377564.60135,-74.73291,29.690119981765747
1619377564.61697,-71.37073,29.705739974975586
1619377564.6326,-64.35269,29.721369981765747
1619377564.64823,-54.1559,29.736999988555908
1619377564.66385,-41.82306,29.752619981765747
1619377564.67948,-28.54483,29.768249988555908
1619377564.6951,-15.39183,29.783869981765747
1619377564.71073,-3.059387,29.799499988555908
1619377564.72635,8.129883,29.815119981765747
1619377564.74198,18.09039,29.830749988555908
1619377564.75761,26.85997,29.84637999534607
1619377564.77323,34.37344,29.861999988555908
1619377564.78886,40.55562,29.87762999534607
1619377564.80448,45.21274,29.893249988555908
1619377564.82011,48.27737,29.90887999534607
1619377564.83573,49.7581,29.924499988555908
1619377564.85136,49.87518,29.94012999534607
1619377564.86699,48.9993,29.95576000213623
1619377564.88261,47.57248,29.97137999534607
1619377564.89824,46.0092,29.98701000213623
1619377564.91386,44.5648,30.00262999534607
1619377564.92949,43.35521,30.01826000213623
1619377564.94511,42.34006,30.03387999534607
1619377564.96074,41.50873,30.04951000213623
1619377564.97637,40.8273,30.06514000892639
1619377564.99199,40.28284,30.08076000213623
1619377565.00762,39.79512,30.09639000892639
1619377565.02324,39.19707,30.11201000213623
1619377565.03887,38.20277,30.12764000892639
1619377565.05449,36.54594,30.14326000213623
1619377565.07012,34.1328,30.15889000892639
1619377565.08575,31.03787,30.174520015716553
1619377565.10137,27.59868,30.19014000892639
1619377565.117,24.20497,30.205770015716553
1619377565.13262,21.16441,30.22139000892639
1619377565.14825,18.62184,30.237020015716553
1619377565.16387,16.4926,30.25264000892639
1619377565.1795,14.44327,30.268270015716553
1619377565.19513,12.01064,30.283900022506714
1619377565.21075,8.851654,30.299520015716553
1619377565.22638,4.748291,30.315150022506714
1619377565.242,-0.212326,30.330770015716553
1619377565.25763,-5.744507,30.346400022506714
1619377565.27326,-11.47031,30.362030029296875
1619377565.28888,-16.99847,30.377650022506714
1619377565.30451,-22.14459,30.393280029296875
1619377565.32013,-26.93317,30.408900022506714
1619377565.33576,-31.61783,30.424530029296875
1619377565.35138,-36.5127,30.440150022506714
1619377565.36701,-41.98041,30.455780029296875
1619377565.38264,-48.18509,30.471409797668457
1619377565.39826,-54.99213,30.487030029296875
1619377565.41389,-61.91779,30.502659797668457
1619377565.42951,-68.02802,30.518280029296875
1619377565.44514,-72.21448,30.533909797668457
1619377565.46076,-73.35861,30.549530029296875
1619377565.47639,-70.66214,30.565159797668457
1619377565.49202,-63.8952,30.580789804458618
1619377565.50764,-53.55685,30.596409797668457
1619377565.52327,-40.69836,30.612039804458618
1619377565.53889,-26.61581,30.627659797668457
1619377565.55452,-12.61969,30.643289804458618
1619377565.57014,0.3484192,30.658909797668457
1619377565.58577,11.70959,30.674539804458618
1619377565.6014,21.29898,30.69016981124878
1619377565.61702,29.14706,30.705789804458618
1619377565.63265,35.39194,30.72141981124878
1619377565.64827,40.16458,30.737039804458618
1619377565.6639,43.63672,30.75266981124878
1619377565.67952,45.98303,30.768289804458618
1619377565.69515,47.35431,30.78391981124878
1619377565.71078,47.96155,30.79954981803894
1619377565.7264,47.98819,30.81516981124878
1619377565.74203,47.64102,30.83079981803894
1619377565.75765,47.05762,30.84641981124878
1619377565.77328,46.31253,30.86204981803894
1619377565.7889,45.47018,30.87766981124878
1619377565.80453,44.64655,30.89329981803894
1619377565.82016,43.99435,30.9089298248291
1619377565.83578,43.65921,30.92454981803894
1619377565.85141,43.75674,30.9401798248291
1619377565.86703,44.15674,30.95579981803894
1619377565.88266,44.53406,30.9714298248291
1619377565.89828,44.42862,30.98704981803894
1619377565.91391,43.37683,31.0026798248291
1619377565.92954,41.15338,31.018309831619263
1619377565.94516,37.86057,31.0339298248291
1619377565.96079,33.8537,31.049559831619263
1619377565.97641,29.54016,31.0651798248291
1619377565.99204,25.23181,31.080809831619263
1619377566.00766,21.08185,31.0964298248291
1619377566.02329,17.09232,31.112059831619263
1619377566.03892,13.25986,31.127689838409424
1619377566.05454,9.570984,31.143309831619263
1619377566.07017,5.984161,31.158939838409424
1619377566.08579,2.377045,31.174559831619263
1619377566.10142,-1.418427,31.190189838409424
1619377566.11704,-5.528625,31.205809831619263
1619377566.13267,-9.965027,31.221439838409424
1619377566.1483,-14.53214,31.237069845199585
1619377566.16392,-18.95251,31.252689838409424
1619377566.17955,-22.98785,31.268319845199585
1619377566.19517,-26.61328,31.283939838409424
1619377566.2108,-30.04849,31.299569845199585
1619377566.22642,-33.66592,31.315189838409424
1619377566.24205,-37.83682,31.330819845199585
1619377566.25768,-42.71091,31.346449851989746
1619377566.2733,-48.24695,31.362069845199585
1619377566.28893,-54.10419,31.377699851989746
1619377566.30455,-59.77176,31.393319845199585
1619377566.32018,-64.57495,31.408949851989746
1619377566.3358,-67.76477,31.424569845199585
1619377566.35143,-68.55389,31.440199851989746
1619377566.36706,-66.25946,31.455829858779907
1619377566.38268,-60.60104,31.471449851989746
1619377566.39831,-51.80249,31.487079858779907
1619377566.41393,-40.61154,31.502699851989746
1619377566.42956,-28.09799,31.518329858779907
1619377566.44518,-15.38721,31.533949851989746
1619377566.46081,-3.343567,31.549579858779907
1619377566.47644,7.561249,31.56520986557007
1619377566.49206,17.19705,31.580829858779907
1619377566.50769,25.65005,31.59645986557007
1619377566.52331,32.99347,31.612079858779907
1619377566.53894,39.12976,31.62770986557007
1619377566.55456,43.85907,31.643329858779907
1619377566.57019,47.01929,31.65895986557007
1619377566.58582,48.60825,31.67458987236023
1619377566.60144,48.87613,31.69020986557007
1619377566.61707,48.35391,31.70583987236023
1619377566.63269,47.54208,31.72145986557007
1619377566.64832,46.81445,31.73708987236023
1619377566.66394,46.3165,31.75270986557007
1619377566.67957,45.939,31.76833987236023
1619377566.6952,45.45874,31.78396987915039
1619377566.71082,44.74036,31.79958987236023
1619377566.72645,43.7677,31.81521987915039
1619377566.74207,42.62299,31.83083987236023
1619377566.7577,41.43527,31.84646987915039
1619377566.77332,40.17746,31.86208987236023
1619377566.78895,38.68826,31.87771987915039
1619377566.80458,36.77835,31.89334988594055
1619377566.8202,34.34329,31.90896987915039
1619377566.83583,31.43625,31.92459988594055
1619377566.85145,28.20404,31.94021987915039
1619377566.86708,24.86679,31.95584988594055
1619377566.8827,21.59854,31.97146987915039
1619377566.89833,18.50278,31.98709988594055
1619377566.91396,15.58679,32.00272989273071
1619377566.92958,12.86703,32.01834988594055
1619377566.94521,10.36438,32.03397989273071
1619377566.96083,8.044678,32.04959988594055
1619377566.97646,5.774811,32.06522989273071
1619377566.99208,3.293854,32.08084988594055
1619377567.00771,0.2997131,32.09647989273071
1619377567.02334,-3.381958,32.112109899520874
1619377567.03896,-7.733215,32.12772989273071
1619377567.05459,-12.5015,32.143359899520874
1619377567.07021,-17.28064,32.15897989273071
1619377567.08584,-21.65894,32.174609899520874
1619377567.10146,-25.43155,32.19022989273071
1619377567.11709,-28.63385,32.205859899520874
1619377567.13272,-31.53033,32.221489906311035
1619377567.14834,-34.53543,32.237109899520874
1619377567.16397,-38.02814,32.252739906311035
1619377567.17959,-42.23389,32.268359899520874
1619377567.19522,-47.15933,32.283989906311035
1619377567.21084,-52.4989,32.299609899520874
1619377567.22647,-57.6384,32.315239906311035
1619377567.2421,-61.69598,32.330869913101196
1619377567.25772,-63.70914,32.346489906311035
1619377567.27335,-62.85501,32.362119913101196
1619377567.28897,-58.70581,32.377739906311035
1619377567.3046,-51.43417,32.393369913101196
1619377567.32022,-41.78424,32.408989906311035
1619377567.33585,-30.83105,32.424619913101196
1619377567.35148,-19.70053,32.44024991989136
1619377567.3671,-9.242035,32.455869913101196
1619377567.38273,0.09863281,32.47149991989136
1619377567.39835,8.255341,32.487119913101196
1619377567.41398,15.3219,32.50274991989136
1619377567.42961,21.39227,32.51837992668152
1619377567.44523,26.45386,32.53399991989136
1619377567.46086,30.43448,32.54962992668152
1619377567.47648,33.21896,32.56524991989136
1619377567.49211,34.76956,32.58087992668152
1619377567.50773,35.1918,32.59649991989136
1619377567.52336,34.74176,32.61212992668152
1619377567.53899,33.77435,32.62775993347168
1619377567.55461,32.6788,32.64337992668152
1619377567.57024,31.72095,32.65900993347168
1619377567.58586,31.0419,32.67462992668152
1619377567.60149,30.67245,32.69025993347168
1619377567.61711,30.49747,32.70587992668152
1619377567.63274,30.39722,32.72150993347168
1619377567.64837,30.28296,32.73713994026184
1619377567.66399,30.13281,32.75275993347168
1619377567.67962,29.93832,32.76838994026184
1619377567.69524,29.7038,32.78400993347168
1619377567.71087,29.3161,32.79963994026184
1619377567.72649,28.63019,32.81525993347168
1619377567.74212,27.54483,32.83088994026184
1619377567.75775,26.09332,32.846519947052
1619377567.77337,24.39737,32.86213994026184
1619377567.789,22.70792,32.877769947052
1619377567.80462,21.24792,32.89338994026184
1619377567.82025,20.05432,32.909019947052
1619377567.83587,19.01636,32.92463994026184
1619377567.8515,17.82065,32.940269947052
1619377567.86713,16.13542,32.95589995384216
1619377567.88275,13.68036,32.971519947052
1619377567.89838,10.37164,32.98714995384216
1619377567.914,6.312317,33.002769947052
1619377567.92963,1.791992,33.01839995384216
1619377567.94525,-2.863922,33.034019947052
1619377567.96088,-7.397812,33.04964995384216
1619377567.97651,-11.62218,33.065279960632324
1619377567.99213,-15.50104,33.08089995384216
1619377568.00776,-19.07407,33.096529960632324
1619377568.02338,-22.44646,33.11214995384216
1619377568.03901,-25.81343,33.127779960632324
1619377568.05463,-29.34479,33.14339995384216
1619377568.07026,-33.2079,33.159029960632324
1619377568.08589,-37.48817,33.174659967422485
1619377568.10151,-42.13333,33.190279960632324
1619377568.11714,-46.75453,33.205909967422485
1619377568.13276,-50.67671,33.221529960632324
1619377568.14839,-53.00993,33.237159967422485
1619377568.16401,-52.84003,33.252779960632324
1619377568.17964,-49.60522,33.268409967422485
1619377568.19527,-43.29254,33.28403997421265
1619377568.21089,-34.49583,33.299659967422485
1619377568.22652,-24.28156,33.31528997421265
1619377568.24214,-13.86757,33.330909967422485
1619377568.25777,-4.182449,33.34653997421265
1619377568.27339,4.270401,33.362159967422485
1619377568.28902,11.38177,33.37778997421265
1619377568.30465,17.33766,33.39341998100281
1619377568.32027,22.30281,33.40903997421265
1619377568.3359,26.31111,33.42466998100281
1619377568.35152,29.24332,33.44028997421265
1619377568.36715,30.94635,33.45591998100281
1619377568.38277,31.39175,33.47153997421265
1619377568.3984,30.79443,33.48716998100281
1619377568.41403,29.50601,33.50279998779297
1619377568.42965,27.95087,33.51841998100281
1619377568.44528,26.54507,33.53404998779297
1619377568.4609,25.53819,33.54966998100281
1619377568.47653,25.0007,33.56529998779297
1619377568.49215,24.8618,33.58091998100281
1619377568.50778,24.98106,33.59654998779297
1619377568.52341,25.15828,33.61217999458313
1619377568.53903,25.22859,33.62779998779297
1619377568.55466,25.01434,33.64342999458313
1619377568.57028,24.43155,33.65904998779297
1619377568.58591,23.53413,33.67467999458313
1619377568.60153,22.36209,33.69029998779297
1619377568.61716,20.95403,33.70592999458313
1619377568.63279,19.27753,33.72156000137329
1619377568.64841,17.19031,33.73717999458313
1619377568.66404,14.61855,33.75281000137329
1619377568.67966,11.66911,33.76842999458313
1619377568.69529,8.666641,33.78406000137329
1619377568.71091,6.040756,33.79967999458313
1619377568.72654,4.133911,33.81531000137329
1619377568.74217,2.857895,33.83094000816345
1619377568.75779,1.79631,33.84656000137329
1619377568.77342,0.3601685,33.86219000816345
1619377568.78904,-1.903809,33.87781000137329
1619377568.80467,-5.069595,33.89344000816345
1619377568.82029,-8.830475,33.90906000137329
1619377568.83592,-12.72665,33.92469000816345
1619377568.85155,-16.40369,33.94032001495361
1619377568.86717,-19.7739,33.95594000816345
1619377568.8828,-23.00577,33.97157001495361
1619377568.89842,-26.32103,33.98719000816345
1619377568.91405,-29.88677,34.00282001495361
1619377568.92967,-33.76211,34.01844000816345
1619377568.9453,-38.01966,34.03407001495361
1619377568.96093,-42.72781,34.049700021743774
1619377568.97655,-47.94932,34.06532001495361
1619377568.99218,-53.57339,34.080950021743774
1619377569.0078,-59.16524,34.09657001495361
1619377569.02343,-63.87368,34.112200021743774
1619377569.03905,-66.56572,34.12782001495361
1619377569.05468,-66.21822,34.143450021743774
1619377569.07031,-62.31015,34.159080028533936
1619377569.08593,-55.03652,34.174700021743774
1619377569.10156,-45.24769,34.190330028533936
1619377569.11718,-34.16878,34.205950021743774
1619377569.13281,-22.95995,34.221580028533936
1619377569.14843,-12.41941,34.237200021743774
1619377569.16406,-2.88266,34.252830028533936
1619377569.17969,5.627182,34.26845979690552
1619377569.19531,13.22897,34.284080028533936
1619377569.21094,19.915,34.29970979690552
1619377569.22656,25.62514,34.315330028533936
1619377569.24219,30.18706,34.33095979690552
1619377569.25781,33.50739,34.346580028533936
1619377569.27344,35.58232,34.36220979690552
1619377569.28907,36.55286,34.37783980369568
1619377569.30469,36.64991,34.39345979690552
1619377569.32032,36.17294,34.40908980369568
1619377569.33594,35.41795,34.42470979690552
1619377569.35157,34.6139,34.44033980369568
1619377569.36719,33.81345,34.45595979690552
1619377569.38282,32.96879,34.47158980369568
1619377569.39845,31.98302,34.48721981048584
1619377569.41407,30.83582,34.50283980369568
1619377569.4297,29.67685,34.51846981048584
1619377569.44532,28.72611,34.53408980369568
1619377569.46095,28.11917,34.54971981048584
1619377569.47657,27.78622,34.56533980369568
1619377569.4922,27.43899,34.58096981048584
1619377569.50783,26.64557,34.596599817276
1619377569.52345,25.09712,34.61221981048584
1619377569.53908,22.65358,34.627849817276
1619377569.5547,19.49123,34.64346981048584
1619377569.57033,15.95451,34.659099817276
1619377569.58595,12.40111,34.67471981048584
1619377569.60158,9.062386,34.690349817276
1619377569.61721,5.942749,34.70597982406616
1619377569.63283,2.908909,34.721599817276
1619377569.64846,-0.2203255,34.73722982406616
1619377569.66408,-3.552998,34.752849817276
1619377569.67971,-7.092865,34.76847982406616
1619377569.69533,-10.65337,34.784099817276
1619377569.71096,-13.991,34.79972982406616
1619377569.72659,-16.9031,34.81535983085632
1619377569.74221,-19.32531,34.83097982406616
1619377569.75784,-21.3882,34.84660983085632
1619377569.77346,-23.37594,34.86222982406616
1619377569.78909,-25.58292,34.87785983085632
1619377569.80471,-28.2138,34.89347982406616
1619377569.82034,-31.3303,34.90910983085632
1619377569.83597,-34.92532,34.924739837646484
1619377569.85159,-38.88872,34.94035983085632
1619377569.86722,-43.23147,34.955989837646484
1619377569.88284,-47.87866,34.97160983085632
1619377569.89847,-52.57898,34.987239837646484
1619377569.91409,-56.75866,35.00285983085632
1619377569.92972,-59.49092,35.018489837646484
1619377569.94535,-59.7514,35.034119844436646
1619377569.96097,-56.79365,35.049739837646484
1619377569.9766,-50.49403,35.065369844436646
1619377569.99222,-41.41658,35.080989837646484
1619377570.00785,-30.68647,35.096619844436646
1619377570.02347,-19.52238,35.112239837646484
1619377570.0391,-8.888222,35.127869844436646
1619377570.05473,0.6999359,35.14349985122681
1619377570.07035,9.171068,35.159119844436646
1619377570.08598,16.58667,35.17474985122681
1619377570.1016,22.97659,35.190369844436646
1619377570.11723,28.18662,35.20599985122681
1619377570.13286,31.99077,35.22162985801697
1619377570.14848,34.19925,35.23724985122681
1619377570.16411,34.902,35.25287985801697
1619377570.17973,34.4073,35.26849985122681
1619377570.19536,33.1458,35.28412985801697
1619377570.21098,31.61564,35.29974985122681
1619377570.22661,30.21452,35.31537985801697
1619377570.24224,29.22329,35.33100986480713
1619377570.25786,28.83054,35.34662985801697
1619377570.27349,29.09694,35.36225986480713
1619377570.28911,29.87598,35.37787985801697
1619377570.30474,30.95992,35.39350986480713
1619377570.32036,32.04401,35.40912985801697
1619377570.33599,32.82307,35.42475986480713
1619377570.35162,33.1784,35.44038987159729
1619377570.36724,33.06438,35.45600986480713
1619377570.38287,32.53953,35.47163987159729
1619377570.39849,31.66822,35.48725986480713
1619377570.41412,30.44932,35.50288987159729
1619377570.42974,28.76901,35.51850986480713
1619377570.44537,26.52877,35.53413987159729
1619377570.461,23.68159,35.54976987838745
1619377570.47662,20.34031,35.56538987159729
1619377570.49225,16.71514,35.58101987838745
1619377570.50787,13.09243,35.59663987159729
1619377570.5235,9.707411,35.61226987838745
1619377570.53912,6.656433,35.62788987159729
1619377570.55475,3.848469,35.64351987838745
1619377570.57038,1.051319,35.65914988517761
1619377570.586,-2.076031,35.67476987838745
1619377570.60163,-5.751011,35.69039988517761
1619377570.61725,-9.902235,35.70601987838745
1619377570.63288,-14.15452,35.72164988517761
1619377570.6485,-17.95341,35.73726987838745
1619377570.66413,-20.81894,35.75289988517761
1619377570.67976,-22.54762,35.76852989196777
1619377570.69538,-23.36901,35.78414988517761
1619377570.71101,-23.83956,35.79977989196777
1619377570.72663,-24.60262,35.81539988517761
1619377570.74226,-26.154,35.83102989196777
1619377570.75788,-28.69762,35.84664988517761
1619377570.77351,-32.04437,35.86227989196777
1619377570.78914,-35.71107,35.877909898757935
1619377570.80476,-38.94616,35.89352989196777
1619377570.82039,-40.7934,35.909159898757935
1619377570.83601,-40.35299,35.92477989196777
1619377570.85164,-36.88788,35.940409898757935
1619377570.86726,-30.11227,35.95602989196777
1619377570.88289,-20.30992,35.971659898757935
1619377570.89852,-8.2882,35.987289905548096
1619377570.91414,4.860252,36.002909898757935
1619377570.92977,18.05231,36.018539905548096
1619377570.94539,30.49656,36.034159898757935
1619377570.96102,41.73482,36.049789905548096
1619377570.97664,51.60326,36.065409898757935
1619377570.99227,60.21246,36.081039905548096
1619377571.0079,67.8031,36.09666991233826
1619377571.02352,74.70587,36.112289905548096
1619377571.03915,81.11241,36.12791991233826
1619377571.05477,86.95712,36.143539905548096
1619377571.0704,91.8531,36.15916991233826
1619377571.08602,95.18151,36.174789905548096
1619377571.10165,96.34267,36.19041991233826
1619377571.11728,95.07138,36.20604991912842
1619377571.1329,91.59203,36.22166991233826
1619377571.14853,86.56598,36.23729991912842
1619377571.16415,80.8197,36.25291991233826
1619377571.17978,75.08064,36.26854991912842
1619377571.1954,69.81322,36.28416991233826
1619377571.21103,65.30588,36.29979991912842
1619377571.22666,61.72739,36.31542992591858
1619377571.24228,59.24059,36.33104991912842
1619377571.25791,57.90771,36.34667992591858
1619377571.27353,57.51305,36.36229991912842
1619377571.28916,57.47708,36.37792992591858
1619377571.30478,56.87817,36.39354991912842
1619377571.32041,54.84424,36.40917992591858
1619377571.33604,50.72174,36.42480993270874
1619377571.35166,44.20033,36.44042992591858
1619377571.36729,35.25964,36.45605993270874
1619377571.38291,23.8994,36.47167992591858
1619377571.39854,10.11061,36.48730993270874
1619377571.41416,-6.040665,36.50292992591858
1619377571.42979,-24.18704,36.51855993270874
1619377571.44542,-43.42828,36.5341899394989
1619377571.46104,-62.31415,36.54980993270874
1619377571.47667,-79.24252,36.5654399394989
1619377571.49229,-92.91541,36.58105993270874
1619377571.50792,-102.712,36.5966899394989
1619377571.52354,-108.7834,36.61230993270874
1619377571.53917,-111.7763,36.6279399394989
1619377571.5548,-112.5293,36.64356994628906
1619377571.57042,-111.7565,36.6591899394989
1619377571.58605,-109.9968,36.67481994628906
1619377571.60167,-107.6541,36.6904399394989
1619377571.6173,-105.1083,36.70606994628906
1619377571.63292,-102.7014,36.7216899394989
1619377571.64855,-100.5351,36.73731994628906
1619377571.66418,-98.3017,36.752949953079224
1619377571.6798,-95.33325,36.76856994628906
1619377571.69543,-90.9707,36.784199953079224
1619377571.71105,-85.00104,36.79981994628906
1619377571.72668,-78.07916,36.815449953079224
1619377571.7423,-71.64157,36.83106994628906
1619377571.75793,-67.35474,36.846699953079224
1619377571.77356,-66.32385,36.862329959869385
1619377571.78918,-68.40753,36.877949953079224
1619377571.80481,-72.19391,36.893579959869385
1619377571.82043,-75.50302,36.909199953079224
1619377571.83606,-76.26346,36.924829959869385
1619377571.85168,-73.26974,36.940449953079224
1619377571.86731,-66.49286,36.956079959869385
1619377571.88294,-56.88391,36.971709966659546
1619377571.89856,-45.89407,36.987329959869385
1619377571.91419,-34.87759,37.002959966659546
1619377571.92981,-24.80942,37.018579959869385
1619377571.94544,-16.18924,37.034209966659546
1619377571.96106,-9.137115,37.049829959869385
1619377571.97669,-3.579742,37.065459966659546
1619377571.99232,0.701355,37.08108997344971
1619377572.00794,3.994354,37.096709966659546
1619377572.02357,6.60907,37.11233997344971
1619377572.03919,8.772247,37.127959966659546
1619377572.05482,10.63599,37.14358997344971
1619377572.07044,12.23801,37.159209966659546
1619377572.08607,13.55975,37.17483997344971
1619377572.1017,14.53549,37.19046998023987
1619377572.11732,15.09857,37.20608997344971
1619377572.13295,15.16431,37.22171998023987
1619377572.14857,14.68015,37.23733997344971
1619377572.1642,13.61267,37.25296998023987
1619377572.17982,11.99857,37.26858997344971
1619377572.19545,9.957703,37.28421998023987
1619377572.21108,7.710541,37.29984998703003
1619377572.2267,5.522522,37.31546998023987
1619377572.24233,3.62738,37.33109998703003
1619377572.25795,2.02301,37.34671998023987
1619377572.27358,0.4786072,37.36234998703003
1619377572.2892,-1.413879,37.37796998023987
1619377572.30483,-4.017303,37.39359998703003
1619377572.32046,-7.423828,37.40922999382019
1619377572.33608,-11.43082,37.42484998703003
1619377572.35171,-15.55161,37.44047999382019
1619377572.36733,-19.37671,37.45609998703003
1619377572.38296,-22.69543,37.47172999382019
1619377572.39859,-25.69598,37.48736000061035
1619377572.41421,-28.81619,37.50297999382019
1619377572.42984,-32.61011,37.51861000061035
1619377572.44546,-37.47565,37.53422999382019
1619377572.46109,-43.44742,37.54986000061035
1619377572.47671,-50.21765,37.56547999382019
1619377572.49234,-57.05356,37.58111000061035
1619377572.50797,-62.97336,37.59674000740051
1619377572.52359,-66.86612,37.61236000061035
1619377572.53922,-67.76685,37.62799000740051
1619377572.55484,-65.07593,37.64361000061035
1619377572.57047,-58.83182,37.65924000740051
1619377572.58609,-49.64542,37.67486000061035
1619377572.60172,-38.58167,37.69049000740051
1619377572.61735,-26.82077,37.706120014190674
1619377572.63297,-15.28049,37.72174000740051
1619377572.6486,-4.474487,37.737370014190674
1619377572.66422,5.489044,37.75299000740051
1619377572.67985,14.69513,37.768620014190674
1619377572.69547,23.20114,37.78424000740051
1619377572.7111,30.78152,37.799870014190674
1619377572.72673,37.08798,37.815500020980835
1619377572.74235,41.81781,37.831120014190674
1619377572.75798,44.80344,37.846750020980835
1619377572.7736,46.19827,37.862370014190674
1619377572.78923,46.37125,37.878000020980835
1619377572.80485,45.76532,37.893620014190674
1619377572.82048,44.79807,37.909250020980835
1619377572.83611,43.76962,37.924880027770996
1619377572.85173,42.82529,37.940500020980835
1619377572.86736,42.03741,37.956130027770996
1619377572.88298,41.47652,37.971750020980835
1619377572.89861,41.09271,37.987380027770996
1619377572.91423,40.85321,38.003000020980835
1619377572.92986,40.63998,38.018630027770996
1619377572.94549,40.26366,38.03425979614258
1619377572.96111,39.55188,38.049880027770996
1619377572.97674,38.3248,38.06550979614258
1619377572.99236,36.43619,38.081130027770996
1619377573.00799,33.80695,38.09675979614258
1619377573.02361,30.42528,38.112380027770996
1619377573.03924,26.35446,38.12800979614258
1619377573.05487,21.83928,38.14363980293274
1619377573.07049,17.24088,38.15925979614258
1619377573.08612,12.85721,38.17488980293274
1619377573.10174,8.878769,38.19050979614258
1619377573.11737,5.247925,38.20613980293274
1619377573.13299,1.673477,38.22175979614258
1619377573.14862,-2.209641,38.23738980293274
1619377573.16425,-6.618851,38.2530198097229
1619377573.17987,-11.52864,38.26863980293274
1619377573.1955,-16.61008,38.2842698097229
1619377573.21112,-21.42102,38.29988980293274
1619377573.22675,-25.70795,38.3155198097229
1619377573.24237,-29.43402,38.33113980293274
1619377573.258,-32.85376,38.3467698097229
1619377573.27363,-36.33952,38.36239981651306
1619377573.28925,-40.17702,38.3780198097229
1619377573.30488,-44.43652,38.39364981651306
1619377573.3205,-49.05544,38.4092698097229
1619377573.33613,-53.80669,38.42489981651306
1619377573.35175,-58.38443,38.4405198097229
1619377573.36738,-62.33121,38.45614981651306
1619377573.38301,-64.88429,38.47177982330322
1619377573.39863,-65.14998,38.48739981651306
1619377573.41426,-62.30737,38.50302982330322
1619377573.42988,-55.94946,38.51864981651306
1619377573.44551,-46.26408,38.53427982330322
1619377573.46113,-34.15111,38.54989981651306
1619377573.47676,-20.8703,38.56552982330322
1619377573.49239,-7.713974,38.581159830093384
1619377573.50801,4.394714,38.59677982330322
1619377573.52364,15.03238,38.612409830093384
1619377573.53926,24.08078,38.62802982330322
1619377573.55489,31.57629,38.643659830093384
1619377573.57051,37.55051,38.65927982330322
1619377573.58614,42.03693,38.674909830093384
1619377573.60177,45.02184,38.690539836883545
1619377573.61739,46.62181,38.706159830093384
1619377573.63302,47.08197,38.721789836883545
1619377573.64864,46.7187,38.737409830093384
1619377573.66427,45.87032,38.753039836883545
1619377573.67989,44.79045,38.768659830093384
1619377573.69552,43.62876,38.784289836883545
1619377573.71115,42.47173,38.799919843673706
1619377573.72677,41.37145,38.815539836883545
1619377573.7424,40.34848,38.831169843673706
1619377573.75802,39.45061,38.846789836883545
1619377573.77365,38.73196,38.862419843673706
1619377573.78927,38.22011,38.878039836883545
1619377573.8049,37.86587,38.893669843673706
1619377573.82053,37.47197,38.90929985046387
1619377573.83615,36.77754,38.924919843673706
1619377573.85178,35.5223,38.94054985046387
1619377573.8674,33.47762,38.956169843673706
1619377573.88303,30.52753,38.97179985046387
1619377573.89865,26.6882,38.987419843673706
1619377573.91428,22.13986,39.00304985046387
1619377573.92991,17.15098,39.01867985725403
1619377573.94553,12.0946,39.03429985046387
1619377573.96116,7.31385,39.04992985725403
1619377573.97678,3.011383,39.06554985046387
1619377573.99241,-0.8080215,39.08117985725403
1619377574.00803,-4.402107,39.09679985046387
1619377574.02366,-8.10865,39.11242985725403
1619377574.03929,-12.14626,39.12805986404419
1619377574.05491,-16.4469,39.14367985725403
1619377574.07054,-20.72193,39.15930986404419
1619377574.08616,-24.57277,39.17492985725403
1619377574.10179,-27.75529,39.19055986404419
1619377574.11741,-30.37179,39.20617985725403
1619377574.13304,-32.83393,39.22180986404419
1619377574.14867,-35.73233,39.23743987083435
1619377574.16429,-39.59357,39.25305986404419
1619377574.17992,-44.64165,39.26868987083435
1619377574.19554,-50.69233,39.28430986404419
1619377574.21117,-57.13816,39.29993987083435
1619377574.22679,-63.00945,39.31555986404419
1619377574.24242,-67.11443,39.33118987083435
1619377574.25805,-68.30713,39.34681987762451
1619377574.27367,-65.83704,39.36243987083435
1619377574.2893,-59.56652,39.37806987762451
1619377574.30492,-50.04905,39.39368987083435
1619377574.32055,-38.36919,39.40931987762451
1619377574.33617,-25.78078,39.42493987083435
1619377574.3518,-13.32916,39.44056987762451
1619377574.36743,-1.714382,39.45619988441467
1619377574.38305,8.780823,39.47181987762451
1619377574.39868,18.07856,39.48744988441467
1619377574.4143,26.19981,39.50306987762451
1619377574.42993,33.09039,39.51869988441467
1619377574.44555,38.63822,39.53431987762451
1619377574.46118,42.76049,39.54994988441467
1619377574.47681,45.3894,39.565579891204834
1619377574.49243,46.59005,39.58119988441467
1619377574.50806,46.51191,39.596829891204834
1619377574.52368,45.4054,39.61244988441467
1619377574.53931,43.57627,39.628079891204834
1619377574.55493,41.37762,39.64369988441467
1619377574.57056,39.15479,39.659329891204834
1619377574.58619,37.16139,39.674959897994995
1619377574.60181,35.5958,39.690579891204834
1619377574.61744,34.56443,39.706209897994995
1619377574.63306,34.09568,39.721829891204834
1619377574.64869,34.13797,39.737459897994995
1619377574.66431,34.4591,39.753079891204834
1619377574.67994,34.63813,39.768709897994995
1619377574.69557,34.18801,39.784339904785156
1619377574.71119,32.75542,39.799959897994995
1619377574.72682,30.1505,39.815589904785156
1619377574.74244,26.52716,39.831209897994995
1619377574.75807,22.27679,39.846839904785156
1619377574.77369,17.8717,39.862459897994995
1619377574.78932,13.70003,39.878089904785156
1619377574.80495,9.954962,39.89371991157532
1619377574.82057,6.58617,39.909339904785156
1619377574.8362,3.354124,39.92496991157532
1619377574.85182,0.04226685,39.940589904785156
1619377574.86745,-3.55452,39.95621991157532
1619377574.88308,-7.467777,39.97184991836548
1619377574.8987,-11.62851,39.98746991157532
1619377574.91433,-15.81929,40.00309991836548
1619377574.92995,-19.83349,40.01871991157532
1619377574.94558,-23.49612,40.03434991836548
1619377574.9612,-26.79285,40.04996991157532
1619377574.97683,-29.8534,40.06559991836548
1619377574.99246,-32.94117,40.08122992515564
1619377575.00808,-36.38829,40.09684991836548
1619377575.02371,-40.42377,40.11247992515564
1619377575.03933,-45.08545,40.12809991836548
1619377575.05496,-50.09698,40.14372992515564
1619377575.07058,-54.78207,40.15934991836548
1619377575.08621,-58.17023,40.17497992515564
1619377575.10184,-59.20285,40.1906099319458
1619377575.11746,-57.04762,40.20622992515564
1619377575.13309,-51.36339,40.2218599319458
1619377575.14871,-42.49437,40.23747992515564
1619377575.16434,-31.38266,40.2531099319458
1619377575.17996,-19.30853,40.26872992515564
1619377575.19559,-7.538132,40.2843599319458
1619377575.21122,3.094826,40.29998993873596
1619377575.22684,12.24464,40.3156099319458
1619377575.24247,20.00591,40.33123993873596
1619377575.25809,26.59581,40.3468599319458
1619377575.27372,32.14368,40.36248993873596
1619377575.28934,36.52792,40.3781099319458
1619377575.30497,39.47134,40.39373993873596
1619377575.3206,40.73776,40.40936994552612
1619377575.33622,40.36943,40.42498993873596
1619377575.35185,38.78586,40.44061994552612
1619377575.36747,36.6226,40.45623993873596
1619377575.3831,34.54678,40.47186994552612
1619377575.39872,32.97613,40.48748993873596
1619377575.41435,32.02159,40.50311994552612
1619377575.42998,31.51749,40.518749952316284
1619377575.4456,31.21104,40.53436994552612
1619377575.46123,30.8513,40.549999952316284
1619377575.47685,30.27887,40.56561994552612
1619377575.49248,29.40296,40.581249952316284
1619377575.5081,28.20184,40.59686994552612
1619377575.52373,26.6644,40.612499952316284
1619377575.53936,24.90372,40.628129959106445
1619377575.55498,23.03206,40.643749952316284
1619377575.57061,21.15988,40.659379959106445
1619377575.58623,19.30637,40.674999952316284
1619377575.60186,17.3601,40.690629959106445
1619377575.61748,15.09706,40.706249952316284
1619377575.63311,12.30413,40.721879959106445
1619377575.64874,8.929062,40.737509965896606
1619377575.66436,5.035957,40.753129959106445
1619377575.67999,0.884819,40.768759965896606
1619377575.69561,-3.273682,40.784379959106445
1619377575.71124,-7.230637,40.800009965896606
1619377575.72686,-10.91762,40.815629959106445
1619377575.74249,-14.38191,40.831259965896606
1619377575.75812,-17.75922,40.84688997268677
1619377575.77374,-21.24171,40.862509965896606
1619377575.78937,-25.02428,40.87813997268677
1619377575.80499,-29.26634,40.893759965896606
1619377575.82062,-34.02488,40.90938997268677
1619377575.83624,-39.15391,40.925009965896606
1619377575.85187,-44.18324,40.94063997268677
1619377575.8675,-48.34423,40.95626997947693
1619377575.88312,-50.61604,40.97188997268677
1619377575.89875,-50.0377,40.98751997947693
1619377575.91437,-46.02148,41.00313997268677
1619377575.93,-38.62444,41.01876997947693
1619377575.94562,-28.57532,41.03438997268677
1619377575.96125,-17.07626,41.05001997947693
1619377575.97688,-5.391342,41.06564998626709
1619377575.9925,5.510849,41.08126997947693
1619377576.00813,15.12627,41.09689998626709
1619377576.02375,23.28661,41.11251997947693
1619377576.03938,30.0107,41.12814998626709
1619377576.055,35.23169,41.14376997947693
1619377576.07063,38.81158,41.15939998626709
1619377576.08626,40.67366,41.17502999305725
1619377576.10188,40.92699,41.19064998626709
1619377576.11751,39.9803,41.20627999305725
1619377576.13313,38.44295,41.22189998626709
1619377576.14876,36.92577,41.23752999305725
1619377576.16438,35.77266,41.25314998626709
1619377576.18001,35.05304,41.26877999305725
1619377576.19564,34.51953,41.28440999984741
1619377576.21126,33.84026,41.30002999305725
1619377576.22689,32.83153,41.31565999984741
1619377576.24251,31.53519,41.33127999305725
1619377576.25814,30.24159,41.34690999984741
1619377576.27376,29.28178,41.36252999305725
1619377576.28939,28.81854,41.37815999984741
1619377576.30502,28.68581,41.39379000663757
1619377576.32064,28.46762,41.40940999984741
1619377576.33627,27.65836,41.42504000663757
1619377576.35189,25.94221,41.44065999984741
1619377576.36752,23.32832,41.45629000663757
1619377576.38314,20.16623,41.47190999984741
1619377576.39877,16.93584,41.48754000663757
1619377576.4144,14.04402,41.503170013427734
1619377576.43002,11.61406,41.51879000663757
1619377576.44565,9.439896,41.534420013427734
1619377576.46127,7.135635,41.55004000663757
1619377576.4769,4.289078,41.565670013427734
1619377576.49252,0.6598206,41.58129000663757
1619377576.50815,-3.755722,41.596920013427734
1619377576.52378,-8.724823,41.612550020217896
1619377576.5394,-13.81966,41.628170013427734
1619377576.55503,-18.65947,41.643800020217896
1619377576.57065,-22.96152,41.659420013427734
1619377576.58628,-26.73994,41.675050020217896
1619377576.6019,-30.23839,41.690670013427734
1619377576.61753,-33.78232,41.706300020217896
1619377576.63316,-37.6566,41.72193002700806
1619377576.64878,-41.87851,41.737550020217896
1619377576.66441,-46.33333,41.75318002700806
1619377576.68003,-50.70381,41.768800020217896
1619377576.69566,-54.52985,41.78443002700806
1619377576.71128,-57.24799,41.800050020217896
1619377576.72691,-58.15262,41.81568002700806
1619377576.74254,-56.46689,41.83130979537964
1619377576.75816,-51.50772,41.84693002700806
1619377576.77379,-42.91847,41.86255979537964
1619377576.78941,-30.84329,41.87818002700806
1619377576.80504,-16.07101,41.89380979537964
1619377576.82066,0.1962128,41.90943002700806
1619377576.83629,16.5913,41.92505979537964
1619377576.85192,31.96282,41.9406898021698
1619377576.86754,45.59032,41.95630979537964
1619377576.88317,57.22086,41.9719398021698
1619377576.89879,66.9239,41.98755979537964
1619377576.91442,75.00165,42.0031898021698
1619377576.93004,81.85893,42.01880979537964
1619377576.94567,87.88592,42.0344398021698
1619377576.9613,93.37224,42.05006980895996
1619377576.97692,98.39085,42.0656898021698
1619377576.99255,102.7433,42.08131980895996
1619377577.00817,106.0725,42.0969398021698
1619377577.0238,107.9721,42.11256980895996
1619377577.03942,108.2235,42.1281898021698
1619377577.05505,106.8717,42.14381980895996
1619377577.07068,104.3292,42.15944981575012
1619377577.0863,101.0773,42.17506980895996
1619377577.10193,97.5204,42.19069981575012
1619377577.11755,93.83265,42.20631980895996
1619377577.13318,89.8153,42.22194981575012
1619377577.1488,85.16965,42.23756980895996
1619377577.16443,79.5259,42.25319981575012
1619377577.18006,72.63408,42.26882982254028
1619377577.19568,64.52408,42.28444981575012
1619377577.21131,55.63964,42.30007982254028
1619377577.22693,46.81565,42.31569981575012
1619377577.24256,39.07208,42.33132982254028
1619377577.25819,33.14554,42.346959829330444
1619377577.27381,28.87266,42.36257982254028
1619377577.28944,24.99326,42.378209829330444
1619377577.30506,19.29534,42.39382982254028
1619377577.32069,9.447456,42.409459829330444
1619377577.33631,-6.011722,42.42507982254028
1619377577.35194,-26.90296,42.440709829330444
1619377577.36757,-51.28677,42.456339836120605
1619377577.38319,-76.07487,42.471959829330444
1619377577.39882,-98.07159,42.487589836120605
1619377577.41444,-114.8673,42.503209829330444
1619377577.43007,-125.2996,42.518839836120605
1619377577.44569,-129.2738,42.534459829330444
1619377577.46132,-127.4325,42.550089836120605
1619377577.47695,-120.7546,42.56571984291077
1619377577.49257,-110.405,42.581339836120605
1619377577.5082,-97.58886,42.59696984291077
1619377577.52382,-83.48552,42.612589836120605
1619377577.53945,-69.05888,42.62821984291077
1619377577.55507,-54.90845,42.643839836120605
1619377577.5707,-41.26273,42.65946984291077
1619377577.58633,-28.19772,42.67509984970093
1619377577.60195,-16.00912,42.69071984291077
1619377577.61758,-5.42128,42.70634984970093
1619377577.6332,2.627182,42.72196984291077
1619377577.64883,7.414742,42.73759984970093
1619377577.66445,8.8078,42.75321984291077
1619377577.68008,7.383812,42.76884984970093
1619377577.69571,4.055733,42.78447985649109
1619377577.71133,-0.5858307,42.80009984970093
1619377577.72696,-6.492294,42.81572985649109
1619377577.74258,-14.14492,42.83134984970093
1619377577.75821,-23.89639,42.84697985649109
1619377577.77383,-35.36913,42.86259984970093
1619377577.78946,-47.13634,42.87822985649109
1619377577.80509,-57.09585,42.89385986328125
1619377577.82071,-63.2338,42.90947985649109
1619377577.83634,-64.46262,42.92510986328125
1619377577.85196,-61.10077,42.94072985649109
1619377577.86759,-54.57069,42.95635986328125
1619377577.88321,-46.7628,42.97197985649109
1619377577.89884,-39.19543,42.98760986328125
1619377577.91447,-32.58434,43.00323987007141
1619377577.93009,-26.91115,43.01885986328125
1619377577.94572,-21.76109,43.03448987007141
1619377577.96134,-16.77716,43.05010986328125
1619377577.97697,-12.01884,43.06573987007141
1619377577.99259,-7.908218,43.08135986328125
1619377578.00822,-4.963516,43.09698987007141
1619377578.02385,-3.559402,43.11261987686157
1619377578.03947,-3.569565,43.12823987007141
1619377578.0551,-4.495239,43.14386987686157
1619377578.07072,-5.650192,43.15948987007141
1619377578.08635,-6.469147,43.17511987686157
1619377578.10197,-6.699249,43.19073987007141
1619377578.1176,-6.561905,43.20636987686157
1619377578.13323,-6.503479,43.22199988365173
1619377578.14885,-6.963333,43.23761987686157
1619377578.16448,-8.296173,43.25324988365173
1619377578.1801,-10.49559,43.26886987686157
1619377578.19573,-13.26714,43.28449988365173
1619377578.21135,-16.22655,43.30011987686157
1619377578.22698,-19.01154,43.31574988365173
1619377578.24261,-21.44182,43.331379890441895
1619377578.25823,-23.5731,43.34699988365173
1619377578.27386,-25.6003,43.362629890441895
1619377578.28948,-27.70071,43.37824988365173
1619377578.30511,-30.05748,43.393879890441895
1619377578.32073,-32.75577,43.40949988365173
1619377578.33636,-35.87422,43.425129890441895
1619377578.35199,-39.54402,43.440759897232056
1619377578.36761,-43.80351,43.456379890441895
1619377578.38324,-48.57246,43.472009897232056
1619377578.39886,-53.43345,43.487629890441895
1619377578.41449,-57.59761,43.503259897232056
1619377578.43011,-60.04581,43.518879890441895
1619377578.44574,-59.81217,43.534509897232056
1619377578.46137,-56.27818,43.55013990402222
1619377578.47699,-49.41989,43.565759897232056
1619377578.49262,-39.82159,43.58138990402222
1619377578.50824,-28.34359,43.597009897232056
1619377578.52387,-16.09727,43.61263990402222
1619377578.53949,-3.997978,43.628259897232056
1619377578.55512,7.276611,43.64388990402222
1619377578.57075,17.28139,43.65951991081238
1619377578.58637,25.75928,43.67513990402222
1619377578.602,32.63721,43.69076991081238
1619377578.61762,37.9647,43.70638990402222
1619377578.63325,41.83108,43.72201991081238
1619377578.64887,44.46835,43.73763990402222
1619377578.6645,46.03233,43.75326991081238
1619377578.68013,46.64385,43.76889991760254
1619377578.69575,46.37158,43.78451991081238
1619377578.71138,45.30608,43.80014991760254
1619377578.727,43.57787,43.81576991081238
1619377578.74263,41.486,43.83139991760254
1619377578.75825,39.38863,43.84701991081238
1619377578.77388,37.58237,43.86264991760254
1619377578.78951,36.26913,43.8782799243927
1619377578.80513,35.45081,43.89389991760254
1619377578.82076,34.99648,43.9095299243927
1619377578.83638,34.65658,43.92514991760254
1619377578.85201,34.16661,43.9407799243927
1619377578.86763,33.32645,43.95639991760254
1619377578.88326,32.0286,43.9720299243927
1619377578.89889,30.26619,43.98765993118286
1619377578.91451,28.07698,44.0032799243927
1619377578.93014,25.55664,44.01890993118286
1619377578.94576,22.84372,44.0345299243927
1619377578.96139,20.12465,44.05015993118286
1619377578.97701,17.61268,44.0657799243927
1619377578.99264,15.37909,44.08140993118286
1619377579.00827,13.395,44.09703993797302
1619377579.02389,11.42352,44.11265993118286
1619377579.03952,9.056171,44.12828993797302
1619377579.05514,5.92112,44.14390993118286
1619377579.07077,1.926445,44.15953993797302
1619377579.08639,-2.723,44.17515993118286
1619377579.10202,-7.515949,44.19078993797302
1619377579.11765,-11.85178,44.206419944763184
1619377579.13327,-15.40705,44.22203993797302
1619377579.1489,-18.26033,44.237669944763184
1619377579.16452,-20.86588,44.25328993797302
1619377579.18015,-23.86418,44.268919944763184
1619377579.19577,-27.803,44.28453993797302
1619377579.2114,-32.84877,44.300169944763184
1619377579.22703,-38.81765,44.315799951553345
1619377579.24265,-45.13926,44.331419944763184
1619377579.25828,-50.91355,44.347049951553345
1619377579.2739,-55.10488,44.362669944763184
1619377579.28953,-56.70757,44.378299951553345
1619377579.30515,-54.93521,44.393919944763184
1619377579.32078,-49.47248,44.409549951553345
1619377579.33641,-40.67833,44.425179958343506
1619377579.35203,-29.47258,44.440799951553345
1619377579.36766,-17.15239,44.456429958343506
1619377579.38328,-5.01095,44.472049951553345
1619377579.39891,5.977345,44.487679958343506
1619377579.41454,15.2741,44.50330996513367
1619377579.43016,22.67172,44.518929958343506
1619377579.44579,28.21605,44.53455996513367
1619377579.46141,31.93699,44.550179958343506
1619377579.47704,33.90541,44.56580996513367
1619377579.49266,34.25791,44.581429958343506
1619377579.50829,33.32007,44.59705996513367
1619377579.52392,31.66133,44.61268997192383
1619377579.53954,29.9071,44.62830996513367
1619377579.55517,28.53416,44.64393997192383
1619377579.57079,27.76176,44.65955996513367
1619377579.58642,27.50013,44.67518997192383
1619377579.60204,27.54688,44.69080996513367
1619377579.61767,27.79065,44.70643997192383
1619377579.6333,28.4084,44.72206997871399
1619377579.64892,29.7175,44.73768997192383
1619377579.66455,32.00029,44.75331997871399
1619377579.68017,35.21073,44.76893997192383
1619377579.6958,38.86394,44.78456997871399
1619377579.71142,42.16396,44.80018997192383
1619377579.72705,44.31197,44.81581997871399
1619377579.74268,44.77296,44.83144998550415
1619377579.7583,43.46467,44.84706997871399
1619377579.77393,40.70694,44.86269998550415
1619377579.78955,36.92779,44.87831997871399
1619377579.80518,32.53931,44.89394998550415
1619377579.8208,27.76765,44.90956997871399
1619377579.83643,22.68318,44.92519998550415
1619377579.85206,17.14694,44.94082999229431
1619377579.86768,10.96798,44.95644998550415
1619377579.88331,3.991841,44.97207999229431
1619377579.89893,-3.785443,44.98769998550415
1619377579.91456,-12.06232,45.00332999229431
1619377579.93018,-20.3396,45.01894998550415
1619377579.94581,-27.98271,45.03457999229431
1619377579.96144,-34.57412,45.05020999908447
1619377579.97706,-39.95605,45.06582999229431
1619377579.99269,-44.45488,45.08145999908447
1619377580.00831,-48.65049,45.09707999229431
1619377580.02394,-53.07135,45.11270999908447
1619377580.03956,-57.96985,45.12832999229431
1619377580.05519,-63.00301,45.14395999908447
1619377580.07082,-67.35277,45.159590005874634
1619377580.08644,-69.87159,45.17520999908447
1619377580.10207,-69.51428,45.190840005874634
1619377580.11769,-65.69798,45.20645999908447
1619377580.13332,-58.45974,45.222090005874634
1619377580.14894,-48.49416,45.23770999908447
1619377580.16457,-36.83805,45.253340005874634
1619377580.1802,-24.65695,45.268970012664795
1619377580.19582,-12.77182,45.284590005874634
1619377580.21145,-1.695689,45.300220012664795
1619377580.22707,8.370801,45.315840005874634
1619377580.2427,17.32526,45.331470012664795
1619377580.25832,24.93681,45.347090005874634
1619377580.27395,30.94246,45.362720012664795
1619377580.28958,35.17107,45.378350019454956
1619377580.3052,37.68018,45.393970012664795
1619377580.32083,38.75125,45.409600019454956
1619377580.33645,38.96138,45.425220012664795
1619377580.35208,38.86869,45.440850019454956
1619377580.3677,38.87075,45.456470012664795
1619377580.38333,39.18155,45.472100019454956
1619377580.39896,39.76773,45.48773002624512
1619377580.41458,40.53479,45.503350019454956
1619377580.43021,41.28835,45.51898002624512
1619377580.44583,41.80507,45.534600019454956
1619377580.46146,41.75418,45.55023002624512
1619377580.47708,40.89478,45.565850019454956
1619377580.49271,39.12173,45.58148002624512
1619377580.50834,36.61309,45.5971097946167
1619377580.52396,33.85764,45.61273002624512
1619377580.53959,31.44465,45.6283597946167
1619377580.55521,29.90396,45.64398002624512
1619377580.57084,29.38,45.6596097946167
1619377580.58646,29.62527,45.67523002624512
1619377580.60209,30.05559,45.6908597946167
1619377580.61772,30.02098,45.70648980140686
1619377580.63334,28.94684,45.7221097946167
1619377580.64897,26.45148,45.73773980140686
1619377580.66459,22.34808,45.7533597946167
1619377580.68022,16.53805,45.76898980140686
