,index,PPG_Raw,PPG_Clean,PPG_Rate,PPG_Peaks,EDA_Raw,EDA_Clean,EDA_Tonic,EDA_Phasic,SCR_Onsets,SCR_Peaks,SCR_Height,SCR_Amplitude,SCR_RiseTime,SCR_Recovery,SCR_RecoveryTime,Index,Label,Condition,id
0,0.0,-0.8725586,30.456484937959914,36.3498674744415,0,0.3945549000000001,0.3945663546501278,0.3946314194294286,-6.501785327057974e-05,0,0,0,0,0,0,1,0,1,neutral,0
1,0.015873015873015872,-1.215942,27.346097676439967,36.3498674744415,0,0.39457201123522345,0.3946523418107943,0.39463492808432576,1.746079815459446e-05,0,0,0,0,0,0,0,1,1,neutral,0
2,0.031746031746031744,-1.19812,25.419790973386714,36.3498674744415,0,0.394621433057139,0.39473962677883434,0.39463843367801954,0.00010124031803325495,0,0,0,0,0,0,0,2,1,neutral,0
3,0.047619047619047616,-1.061401,24.6893287393109,36.3498674744415,0,0.3947002976401145,0.3948319546815574,0.3946419361085096,0.00019006593567069577,0,0,0,0,0,0,0,3,1,neutral,0
4,0.06349206349206349,-1.078125,24.70181185187409,36.3498674744415,0,0.394805737158518,0.3949327445978119,0.39464543527385587,0.0002873568318511057,0,0,0,0,0,0,0,4,1,neutral,0
5,0.07936507936507936,-1.397949,24.869177723262265,36.3498674744415,0,0.3949348837867173,0.3950448540877645,0.394648931072231,0.000395970668564103,0,0,0,0,0,0,0,5,1,neutral,0
6,0.09523809523809523,-2.035767,24.760578286263513,36.3498674744415,0,0.3950848696990803,0.3951703999225976,0.3946524234019776,0.000518024318644687,0,0,0,0,0,0,0,6,1,neutral,0
7,0.1111111111111111,-2.870117,24.226959227483203,36.3498674744415,0,0.3952528270699749,0.3953106443824042,0.3946559121616722,0.0006547801636049939,0,0,0,0,0,0,0,7,1,neutral,0
8,0.12698412698412698,-3.767212,23.364942601843275,36.3498674744415,0,0.395435888073769,0.3954659496288277,0.3946593972501962,0.00080660046620239,0,0,0,0,0,0,0,8,1,neutral,0
9,0.14285714285714285,-4.592773,22.39532971921104,36.3498674744415,0,0.39563118488483057,0.39563579652306197,0.39466287856681564,0.000972966188360315,0,0,0,0,0,0,0,9,1,neutral,0
10,0.15873015873015872,-5.263916,21.53555483442814,36.3498674744415,0,0.3958358496775275,0.3958188593437069,0.394666356011269,0.0011525517089356783,0,0,0,0,0,0,0,10,1,neutral,0
11,0.1746031746031746,-5.691162,20.91493470599322,36.3498674744415,0,0.39604701462622766,0.3960131244116439,0.39466982948386337,0.001343343448498042,0,0,0,0,0,0,0,11,1,neutral,0
12,0.19047619047619047,-5.851807,20.546898827178577,36.3498674744415,0,0.3962618119052989,0.396216038704765,0.39467329888557834,0.0015427884839553394,0,0,0,0,0,0,0,12,1,neutral,0
13,0.20634920634920634,-5.782349,20.349480853896146,36.3498674744415,0,0.3964773736891093,0.39642467405311327,0.39467676411817587,0.0017479587435840147,0,0,0,0,0,0,0,13,1,neutral,0
14,0.2222222222222222,-5.619873,20.194836762536426,36.3498674744415,0,0.3966908321520265,0.3966358932544667,0.3946802250843152,0.001955717122498054,0,0,0,0,0,0,0,14,1,neutral,0
15,0.23809523809523808,-5.541992,19.964826507326634,36.3498674744415,0,0.3968993194684187,0.39684650619147605,0.39468368168767143,0.002162873599668601,0,0,0,0,0,0,0,15,1,neutral,0
16,0.25396825396825395,-5.647827,19.590124412223403,36.3498674744415,0,0.39709996781265355,0.39705340648554993,0.39468713383305465,0.0023663218916893684,0,0,0,0,0,0,0,16,1,neutral,0
17,0.2698412698412698,-5.960815,19.057061512220958,36.3498674744415,0,0.3972901933272953,0.3972536821051616,0.39469058142652985,0.0025631500609636986,0,0,0,0,0,0,0,17,1,neutral,0
18,0.2857142857142857,-6.372681,18.381130129445154,36.3498674744415,0,0.39746888939662045,0.39744469638047714,0.3946940243755339,0.002750721530216184,0,0,0,0,0,0,0,18,1,neutral,0
19,0.30158730158730157,-6.786987,17.564413978832786,36.3498674744415,0,0.39763542825331527,0.39762413880249475,0.3946974625889892,0.002926725881517763,0,0,0,0,0,0,0,19,1,neutral,0
20,0.31746031746031744,-7.164185,16.565775900904125,36.3498674744415,0,0.39778918237772004,0.3977900475713367,0.39470089597741176,0.003089201404469773,0,0,0,0,0,0,0,20,1,neutral,0
21,0.3333333333333333,-7.651001,15.307502095242821,36.3498674744415,0,0.3979295242501747,0.39794080791805664,0.39470432445301307,0.003236533417909529,0,0,0,0,0,0,0,21,1,neutral,0
22,0.3492063492063492,-8.463135,13.719419459374022,36.3498674744415,0,0.398055826351019,0.3980751316349243,0.39470774792979363,0.0033674338001012274,0,0,0,0,0,0,0,22,1,neutral,0
23,0.36507936507936506,-9.730347,11.793464454621672,36.3498674744415,0,0.3981674611605932,0.3981920239639267,0.3947111663236285,0.003480907877152035,0,0,0,0,0,0,0,23,1,neutral,0
24,0.38095238095238093,-11.41345,9.60738613330626,36.3498674744415,0,0.39826380115923715,0.3982907440381903,0.3947145795523427,0.003576214864358302,0,0,0,0,0,0,0,24,1,neutral,0
25,0.3968253968253968,-13.28699,7.288317807491535,36.3498674744415,0,0.398344218827291,0.3983707645311648,0.394717987535777,0.003652827515323999,0,0,0,0,0,0,0,25,1,neutral,0
26,0.4126984126984127,-15.14099,4.921407528978268,36.3498674744415,0,0.39840808664509464,0.39843173517008984,0.39472139019584324,0.003710395635371886,0,0,0,0,0,0,0,26,1,neutral,0
27,0.42857142857142855,-16.9126,2.446635205222584,36.3498674744415,0,0.39845477709298804,0.3984734534641419,0.39472478745656847,0.0037487168096464072,0,0,0,0,0,0,0,27,1,neutral,0
28,0.4444444444444444,-18.79431,0.0,36.3498674744415,0,0.39848366265131124,0.39849584454350623,0.3947281792441285,0.003767716242151839,0,1,0,-2147483648,-2147483648,0,0,28,1,neutral,0
29,0.4603174603174603,-21.18188,0.0,36.3498674744415,0,0.39849411580040417,0.39849895055931445,0.39473156548686983,0.003767436155668167,0,0,0,0,0,0,0,29,1,neutral,0
30,0.47619047619047616,-24.5863,0.0,36.3498674744415,0,0.3984855090206069,0.39848292879688824,0.39473494611532106,0.003748033904983331,0,0,0,0,0,0,0,30,1,neutral,0
31,0.49206349206349204,-29.3999,0.0,36.3498674744415,0,0.3984572147922595,0.39844805662267413,0.39473832106219264,0.0037097869238282054,0,0,0,0,0,0,0,31,1,neutral,0
32,0.5079365079365079,-35.67981,0.0,36.3498674744415,0,0.39840860559570185,0.39839474070278935,0.39474169026236555,0.0036531019434338898,0,0,0,0,0,0,0,32,1,neutral,0
33,0.5238095238095237,-42.95227,0.0,36.3498674744415,0,0.3983392708656192,0.39832352764237833,0.3947450536528694,0.00357852563190998,0,0,0,0,0,0,0,33,1,neutral,0
34,0.5396825396825397,-50.25635,0.0,36.3498674744415,0,0.3982502780262404,0.3982351132976243,0.3947484111728495,0.0034867539062889714,0,0,0,0,0,0,0,34,1,neutral,0
35,0.5555555555555556,-56.48608,0.0,36.3498674744415,0,0.3981433108544495,0.3981303484542581,0.3947517627635239,0.003378637611078315,0,0,0,0,0,0,0,35,1,neutral,0
36,0.5714285714285714,-60.85742,0.0,36.3498674744415,0,0.39802005517294897,0.3980102392519393,0.3947551083681306,0.0032551829426944383,0,0,0,0,0,0,0,36,1,neutral,0
37,0.5873015873015872,-63.42871,0.0,36.3498674744415,0,0.39788219680444153,0.39787594154204187,0.39475844793186443,0.003117545807311047,0,0,0,0,0,0,0,37,1,neutral,0
38,0.6031746031746031,-65.21729,0.0,36.3498674744415,0,0.39773142157162955,0.39772874917758416,0.3947617814018062,0.0029670201108603135,0,0,0,0,0,0,0,38,1,neutral,0
39,0.6190476190476191,-67.83276,0.0,36.3498674744415,0,0.3975694152972157,0.39757007695204283,0.394765108726843,0.0028050206979262924,0,0,0,0,0,0,0,39,1,neutral,0
40,0.6349206349206349,-72.67578,0.0,36.3498674744415,0,0.3973978638039024,0.3974014394648894,0.3947684298575813,0.0026330622173687413,0,0,0,0,0,0,0,40,1,neutral,0
41,0.6507936507936507,-80.09375,0.0,36.3498674744415,0,0.3972184529143923,0.39722442756301723,0.3947717447462532,0.00245273556384322,0,0,0,0,0,0,0,41,1,neutral,0
42,0.6666666666666666,-89.08142,0.0,36.3498674744415,0,0.39703286845138785,0.3970406841802864,0.39477505334661717,0.0022656837174460324,0,0,0,0,0,0,0,42,1,neutral,0
43,0.6825396825396826,-97.56238,0.0,36.3498674744415,0,0.3968427962375917,0.3968518813812036,0.3947783556138537,0.0020735787874976595,0,0,0,0,0,0,0,43,1,neutral,0
44,0.6984126984126984,-103.3523,0.0,36.3498674744415,0,0.3966499220957063,0.3966597002299112,0.39478165150445743,0.001878101881640549,0,0,0,0,0,0,0,44,1,neutral,0
45,0.7142857142857142,-105.2578,0.0,36.3498674744415,0,0.3964559318484342,0.39646581477994464,0.3947849409761258,0.0016809270957069123,0,0,0,0,0,0,0,45,1,neutral,0
46,0.7301587301587301,-103.7076,0.0,36.3498674744415,0,0.39626251131847806,0.3962718810452944,0.3947882239876462,0.0014837104848944033,0,0,0,0,0,0,0,46,1,neutral,0
47,0.746031746031746,-100.71,0.0,36.3498674744415,0,0.39607134632854024,0.3960795313028533,0.3947915004987818,0.001288084366326751,0,0,0,0,0,0,0,47,1,neutral,0
48,0.7619047619047619,-98.99921,0.0,36.3498674744415,0,0.39588412270132334,0.39589037352524115,0.3947947704701578,0.0010956567519930533,0,0,0,0,0,0,0,48,1,neutral,0
49,0.7777777777777777,-100.9746,0.0,36.3498674744415,0,0.39570249826269044,0.3957059951875361,0.3947980338631481,0.0009080151555917075,0,0,0,0,0,0,0,49,1,neutral,0
50,0.7936507936507936,-107.6601,0.0,36.3498674744415,0,0.39552787747392826,0.39552797016986685,0.39480129063976416,0.0007267334952342373,0,0,0,0,0,0,0,50,1,neutral,0
51,0.8095238095238095,-118.144,0.0,36.3498674744415,0,0.39536153011661684,0.3953578670308723,0.3948045407625464,0.0005533803670133649,0,0,0,0,0,0,0,51,1,neutral,0
52,0.8253968253968254,-129.5384,0.0,36.3498674744415,0,0.39520472472686025,0.3951972565968077,0.3948077841944596,0.00038952663421387457,0,0,0,0,0,0,0,52,1,neutral,0
53,0.8412698412698412,-137.3449,0.0,36.3498674744415,0,0.39505872984076235,0.3950477166374494,0.39481102089879244,0.00023675010331736598,0,0,0,0,0,0,0,53,1,neutral,0
54,0.8571428571428571,-136.3463,0.0,36.3498674744415,0,0.394924813994427,0.39491083141498173,0.3948142508390629,9.663507298437416e-05,0,0,0,0,0,0,0,54,1,neutral,0
55,0.873015873015873,-121.7845,0.0,36.3498674744415,0,0.3948042457239584,0.39478818411465305,0.39481747397893,-2.9235235201813186e-05,0,0,0,0,0,0,0,55,1,neutral,0
56,0.8888888888888888,-90.8667,0.0,36.3498674744415,0,0.3946982935654602,0.3946813405984153,0.39482069028211325,-0.00013929492301455467,0,0,0,0,0,0,0,56,1,neutral,0
57,0.9047619047619047,-44.1405,0.0,36.3498674744415,0,0.39460822605503665,0.39459182354915856,0.3948238997123195,-0.00023202127127667631,0,0,0,0,0,0,0,57,1,neutral,0
58,0.9206349206349206,13.71606,0.0,36.3498674744415,0,0.39453531172879147,0.3945210768592204,0.3948271022331799,-0.0003059703512877054,0,0,0,0,0,0,0,58,1,neutral,0
59,0.9365079365079365,74.33167,50.12078525612746,36.3498674744415,0,0.3944808191228287,0.3944704210104209,0.3948302978081962,-0.0003598216447352533,0,0,0,0,0,0,0,59,1,neutral,0
60,0.9523809523809523,127.5583,99.30759442151012,36.3498674744415,0,0.39444601677325225,0.3944410011254788,0.3948334864006982,-0.0003924299922367637,0,0,0,0,0,0,0,60,1,neutral,0
61,0.9682539682539681,164.4203,133.59780852492344,36.3498674744415,0,0.39443217321616625,0.39443373026071354,0.39483666797381306,-0.0004028823006059144,0,0,0,0,0,0,0,61,1,neutral,0
62,0.9841269841269841,179.9241,148.7912475546981,36.3498674744415,1,0.3944405569876744,0.3944492312679528,0.39483984249044635,-0.00039055568092684746,0,0,0,0,0,0,0,62,1,neutral,0
63,1.0,174.6236,144.95123382762904,37.88763254906822,0,0.3944724366238807,0.3944877810900109,0.3948430099132764,-0.0003551731530695184,0,0,0,0,0,0,0,63,1,neutral,0
0,0.0,51.70313,69.09895521759515,59.86274183041191,0,0.3954009525171563,0.39539479014821555,0.38968281637079155,0.005710719086944656,0,0,0,0,0,0,0,957,3,neutral,2
1,0.015873015873015872,54.03464,71.72317389560216,60.183042403018206,0,0.39722838303630303,0.39721113192542046,0.38966989431888305,0.00753997984234181,0,0,0,0,0,0,0,958,3,neutral,2
2,0.031746031746031744,56.85342,74.85252179507887,60.45227557203072,0,0.39904083746118857,0.3990105969582456,0.3896569180248929,0.00935241810444122,0,0,0,0,0,0,0,959,3,neutral,2
3,0.047619047619047616,59.81955,78.21687730782189,60.6669532641405,0,0.4008164351583261,0.4007687535800672,0.3896438864369806,0.011123603258596237,0,0,0,0,0,0,0,960,3,neutral,2
4,0.06349206349206349,62.43222,81.3460679035686,60.823806219851534,0,0.40253329549422806,0.402462502944729,0.38963079850872456,0.012830437505209777,0,0,0,0,0,0,0,961,3,neutral,2
5,0.07936507936507936,64.2345,83.68629976543787,60.91983847095581,0,0.40416953783540777,0.4040707612118251,0.3896176532001438,0.014451838043995132,0,0,0,0,0,0,0,962,3,neutral,2
6,0.09523809523809523,64.78888,84.72429044347813,60.95238095238095,1,0.4057032815483783,0.40557505594392806,0.3896044494786827,0.01596933347021951,0,0,0,0,0,0,0,963,3,neutral,2
7,0.1111111111111111,63.81073,84.09879646174821,60.947099491978236,0,0.40711264599965236,0.4069600126455426,0.38959118632014744,0.01736755031272137,0,0,0,0,0,0,0,964,3,neutral,2
8,0.12698412698412698,61.0054,81.68353527286469,60.931391890303864,0,0.4083757505557432,0.4082137118557844,0.3895778627095821,0.018634570125712593,0,0,0,0,0,0,0,965,3,neutral,2
9,0.14285714285714285,56.371,77.62274481534506,60.905471030641685,0,0.4094732174755762,0.40932790315347783,0.3895644776420774,0.019762143493068162,0,0,0,0,0,0,0,966,3,neutral,2
10,0.15873015873015872,50.2999,72.30152540365258,60.869559514535794,0,0.4104062306654361,0.41029806976011146,0.3895510301235037,0.02074575463054803,0,0,0,0,0,0,0,967,3,neutral,2
11,0.1746031746031746,43.49014,66.2498040180243,60.823888945954366,0,0.41118606423234916,0.4111233457043719,0.3895375191711648,0.02158453854967794,0,0,0,0,0,0,0,968,3,neutral,2
12,0.19047619047619047,36.70844,60.0082711926495,60.76869921007957,0,0.4118240619300127,0.41180629595701657,0.3895239438143683,0.022281061192051102,0,0,0,0,0,0,0,969,3,neutral,2
13,0.20634920634920634,30.34494,54.00662498563469,60.70423775017898,0,0.4123315675121236,0.41235257758155824,0.3895103030949135,0.02284098057952522,0,0,0,0,0,0,0,970,3,neutral,2
14,0.2222222222222222,24.4975,48.49936233946531,60.63075884587452,0,0.41271992473237923,0.4127705058969762,0.3894965960674976,0.023272612976527475,0,0,0,0,0,0,0,971,3,neutral,2
15,0.23809523809523808,19.16895,43.573474373276845,60.54852289596695,0,0.4130004773444767,0.4130705533750337,0.38948282180004273,0.023586431787044344,0,0,0,0,0,0,0,972,3,neutral,2
16,0.25396825396825395,14.33139,39.20700569176933,60.45779570880081,0,0.41318456910211304,0.413264810371984,0.3894689793739501,0.023794528286074472,0,0,0,0,0,0,0,973,3,neutral,2
17,0.2698412698412698,9.862549,35.33878581209519,60.35884780296817,0,0.4132835437589856,0.41336643603764,0.3894550678842855,0.023910062528512063,0,0,0,0,0,0,0,974,3,neutral,2
18,0.2857142857142857,5.769653,31.914109420687435,60.25195372095253,0,0.4133087450687915,0.4133891252777751,0.389441086439904,0.023946730311423574,0,1,0,0,0,0,0,975,3,neutral,2
19,0.30158730158730157,2.113617,28.892135999094034,60.13739135810911,0,0.4132715167852277,0.4133466139764167,0.3894270341635207,0.023918268396269916,0,0,0,0,0,0,0,976,3,neutral,2
20,0.31746031746031744,-1.051788,26.225718980481243,60.0154413091673,0,0.4131832026619915,0.4132522403081615,0.38941291019173646,0.023838015821196573,0,0,0,0,0,0,0,977,3,neutral,2
21,0.3333333333333333,-3.741425,23.83917343479567,59.88638623422645,0,0.4130551464527801,0.4131185753051024,0.3893987136750249,0.023718544467973134,0,0,0,0,0,0,0,978,3,neutral,2
22,0.3492063492063492,-6.302063,21.62518121529008,59.75051024600102,0,0.4128986919112904,0.41295713119443966,0.3893844437776894,0.023571367399647377,0,0,0,0,0,0,0,979,3,neutral,2
23,0.36507936507936506,-8.988495,19.463123673011612,59.608098319856445,0,0.4127251827912199,0.41277815157995656,0.38937009967779723,0.023406729042087095,0,0,0,0,0,0,0,980,3,neutral,2
24,0.38095238095238093,-11.80319,17.24522799432191,59.45943572796481,0,0.4125459628462655,0.41259048339416976,0.3893556805670971,0.023233477136212766,0,0,0,0,0,0,0,981,3,neutral,2
25,0.3968253968253968,-14.5127,14.898434426311315,59.304807498702,0,0.4123718072507058,0.41240152673265107,0.38934118565092596,0.023059012572412458,0,0,0,0,0,0,0,982,3,neutral,2
26,0.4126984126984127,-17.22833,12.402501540927146,59.144497902205686,0,0.41220719655696264,0.4122172552320913,0.3893266141481108,0.022889309768704073,0,0,0,0,0,0,0,983,3,neutral,2
27,0.42857142857142855,-20.04977,9.808816326510529,58.97878996281922,0,0.41205269505863057,0.4120422966581331,0.38931196529086887,0.022728997258667928,0,0,0,0,0,0,0,984,3,neutral,2
28,0.4444444444444444,-22.896,7.253102245065155,58.80796499895939,0,0.41190880798547275,0.4118800609945758,0.38929723832471064,0.022581485780748516,0,0,0,0,0,0,0,985,3,neutral,2
29,0.4603174603174603,-25.58466,4.943509873243191,58.632302190769366,0,0.4117760405672519,0.4117329017816047,0.3892824325083476,0.022449129616575903,0,0,0,0,0,0,0,986,3,neutral,2
30,0.47619047619047616,-27.72867,3.1092224102036496,58.452078175750536,0,0.41165489803373106,0.41160229590869196,0.38926754711360745,0.022333406383951756,0,0,0,0,0,0,0,987,3,neutral,2
31,0.49206349206349204,-29.41364,1.9134187461745484,58.267566672410645,0,0.41154588561467315,0.41148902758790246,0.38925258142535774,0.022235101010231455,0,0,0,0,0,0,0,988,3,neutral,2
32,0.5079365079365079,-30.57431,1.35831825558296,58.07903813182016,0,0.41144950853984114,0.41139336374065516,0.3892375347414387,0.022154481119152573,0,0,0,0,0,0,0,989,3,neutral,2
33,0.5238095238095237,-30.98013,1.2315862682352123,57.886759416834785,0,0.41136627203899795,0.41131521033955104,0.38922240637260624,0.02209145337271952,0,0,0,0,0,0,0,990,3,neutral,2
34,0.5396825396825397,-30.38797,1.150967479902076,57.690993508619854,0,0.4112966813419065,0.4112542421026709,0.3892071956424852,0.02204569316554855,0,0,0,0,0,0,0,991,3,neutral,2
35,0.5555555555555556,-29.89203,0.7328241302701227,57.491999240001356,0,0.41124124167832976,0.4112100010597381,0.3891919018875327,0.02201674319106681,0,0,0,0,0,0,0,992,3,neutral,2
36,0.5714285714285714,-30.42505,0.0,57.29003105506937,0,0.4112004582780306,0.41118196262179263,0.3891765244570116,0.022004079511213536,0,0,0,0,0,0,0,993,3,neutral,2
37,0.5873015873015872,-31.98306,0.0,57.08533879437186,0,0.411174836370772,0.411169570640872,0.3891610627129733,0.02200714661613729,0,0,0,0,0,0,0,994,3,neutral,2
38,0.6031746031746031,-33.612,0.0,56.87816750495996,0,0.41116488118631694,0.4111722453399276,0.3891455160302502,0.02202536535412055,0,0,0,0,0,0,0,995,3,neutral,2
39,0.6190476190476191,-33.61038,0.0,56.66875727448006,0,0.41117109795442824,0.41118936977592374,0.38912988379645763,0.022058119394676636,0,0,0,0,0,0,0,996,3,neutral,2
40,0.6349206349206349,-31.90668,0.3696060025041364,56.45734308845237,0,0.4111939919048689,0.41122026158047364,0.3891141654120039,0.02210472696917554,0,0,0,0,0,0,0,997,3,neutral,2
41,0.6507936507936507,-28.80713,3.579866891137749,56.24415470982961,0,0.411233971198464,0.41126413707522835,0.38909836029010914,0.022164404986213773,0,0,0,0,0,0,0,998,3,neutral,2
42,0.6666666666666666,-24.73401,6.992784131390967,56.029416579893436,0,0.4112899506538247,0.4113200745215502,0.38908246785683237,0.022236232281261332,0,0,0,0,0,0,0,999,3,neutral,2
43,0.6825396825396826,-20.30075,9.075123620291208,55.813347739518,0,0.41135967422600406,0.41138698233836846,0.3890664875511058,0.022319117834482594,0,0,0,0,0,0,0,1000,3,neutral,2
44,0.6984126984126984,-18.59842,8.422723443605303,55.59616176981083,0,0.41144085449576656,0.41146357676685635,0.3890504188247761,0.022411778435372388,0,0,0,0,0,0,0,1001,3,neutral,2
45,0.7142857142857142,-21.81314,4.451623970391009,55.378066751129374,0,0.41153120404387694,0.4115483718669525,0.3890342611426523,0.022512728679229342,0,0,0,0,0,0,0,1002,3,neutral,2
46,0.7301587301587301,-29.58136,0.0,55.159265239466116,0,0.41162843545109973,0.41163968308963067,0.3890180139825592,0.022620284539372468,0,0,0,0,0,0,0,1003,3,neutral,2
47,0.746031746031746,-39.12656,0.0,54.93995425919729,0,0.41173026129819984,0.4117356441404648,0.38900167683539516,0.022732580230647788,0,0,0,0,0,0,0,1004,3,neutral,2
48,0.7619047619047619,-46.11227,0.0,54.72032531119672,0,0.41183439416594164,0.41183423554904197,0.3889852492051943,0.022847596778779622,0,0,0,0,0,0,0,1005,3,neutral,2
49,0.7777777777777777,-49.9053,0.0,54.50056439532936,0,0.41193854663508994,0.4119333223545578,0.3889687306091909,0.022963199705901473,0,0,0,0,0,0,0,1006,3,neutral,2
50,0.7936507936507936,-51.16025,0.0,54.28085204635607,0,0.4120404312864094,0.4120306976430651,0.388952120577886,0.023077182567738094,0,0,0,0,0,0,0,1007,3,neutral,2
51,0.8095238095238095,-50.9975,0.0,54.06136338230151,0,0.4121377607006644,0.4121241283320031,0.38893541865511344,0.023187312738068747,0,0,0,0,0,0,0,1008,3,neutral,2
52,0.8253968253968254,-50.84866,0.0,53.84226816436344,0,0.4122282474586199,0.4122113995802141,0.38891862439810565,0.02329137581867798,0,0,0,0,0,0,0,1009,3,neutral,2
53,0.8412698412698412,-55.66019,0.0,53.623730867467614,0,0.4123096041410403,0.4122903544823634,0.3889017373775568,0.023387215333712515,0,0,0,0,0,0,0,1010,3,neutral,2
54,0.8571428571428571,-68.56635,0.0,53.40591076060417,0,0.4123795433286905,0.41235892625374715,0.3888847571776826,0.023472764914428845,0,0,0,0,0,0,0,1011,3,neutral,2
55,0.873015873015873,-88.53427,0.0,53.18896199611374,0,0.4124357776023349,0.41241516088725,0.3888676833962755,0.023546070956096406,0,0,0,0,0,0,0,1012,3,neutral,2
56,0.8888888888888888,-111.0587,0.0,52.97303370712522,0,0.4124760195427384,0.41245722922440997,0.3888505156447535,0.02360530468901297,0,0,0,0,0,0,0,1013,3,neutral,2
57,0.9047619047619047,-129.6578,0.0,52.75827011238358,0,0.41249801841287187,0.41248342847312697,0.3888332535482025,0.02364876369617119,0,0,0,0,0,0,0,1014,3,neutral,2
58,0.9206349206349206,-143.9154,0.0,52.5448106277425,0,0.41250034457221535,0.41249217435719787,0.3888158967454101,0.023674864062759933,0,0,0,0,0,0,0,1015,3,neutral,2
59,0.9365079365079365,-155.252,0.0,52.332789983633965,0,0.41248237711716607,0.41248198621075155,0.38879844488889054,0.023682125470574376,0,0,0,0,0,0,0,1016,3,neutral,2
60,0.9523809523809523,-165.183,0.0,52.12233834786501,0,0.41244352935423095,0.41245146832899454,0.38878089764489887,0.023669152548746984,0,0,0,0,0,0,0,1017,3,neutral,2
61,0.9682539682539681,-175.3456,0.0,51.9135814531298,0,0.4123832145899174,0.4123992916423851,0.38876325469343526,0.023634616547917823,0,0,0,0,0,0,0,1018,3,neutral,2
62,0.9841269841269841,-191.9823,0.0,51.70664072866316,0,0.4123008461307326,0.4123241801911626,0.38874551572823696,0.023577241814771933,0,0,0,0,0,0,0,1019,3,neutral,2
63,1.0,-219.6045,0.0,51.50163343549946,0,0.4121958372831838,0.4122249068663486,0.3887276804567579,0.023495801533060533,0,0,0,0,0,0,0,1020,3,neutral,2
0,0.0,7.915817,3.865359221821776,13.831851404136353,0,0.3770145217135225,0.37704270119317224,0.3805119035153736,-0.003441191081335599,0,0,0,0,0,0,0,1848,5,neutral,4
1,0.015873015873015872,8.214722,3.9363375951478927,13.79994940687166,0,0.3768038858976332,0.3768345550518364,0.3805258464747794,-0.0036632064470354646,0,0,0,0,0,0,0,1849,5,neutral,4
2,0.031746031746031744,8.400436,3.8900982141905653,13.76867008471987,0,0.3766253575641195,0.3766551629106931,0.38053981141664917,-0.0038564899604403226,0,0,0,0,0,0,0,1850,5,neutral,4
3,0.047619047619047616,8.38681,3.6724719821037186,13.738010911942398,0,0.3764830726071581,0.37650687570630975,0.3805537981174774,-0.004018690464408504,0,0,0,0,0,0,0,1851,5,neutral,4
4,0.06349206349206349,8.140549,3.2635985271905468,13.707969470388385,0,0.3763767975887517,0.3763913029897936,0.380567806351512,-0.004148198185028343,0,0,0,0,0,0,0,1852,5,neutral,4
5,0.07936507936507936,7.689148,2.7013604277036123,13.67854344967264,0,0.3763051072988205,0.3763093419407677,0.3805818358906605,-0.004244115717548393,0,0,0,0,0,0,0,1853,5,neutral,4
6,0.09523809523809523,7.130035,2.0787290107857985,13.649730647391,0,0.376266576500417,0.37626123093102165,0.3805958865044155,-0.004306204462652147,0,0,0,0,0,0,0,1854,5,neutral,4
7,0.1111111111111111,6.609406,1.5139079944104579,13.621528969373841,0,0.37625977995659393,0.3762466226058065,0.38060995795979863,-0.0043348115451071765,1,0,0,0,0,0,0,1855,5,neutral,4
8,0.12698412698412698,6.281693,1.1052415250978023,13.59393642997892,0,0.37628329243040387,0.37626467064906427,0.3806240500213246,-0.004330783048499633,0,0,0,0,0,0,0,1856,5,neutral,4
9,0.14285714285714285,6.216614,0.891601023823229,13.566951152424348,0,0.37633568868489947,0.3763141241161795,0.38063816245098403,-0.004295369682465639,0,0,0,0,0,0,0,1857,5,neutral,4
10,0.15873015873015872,6.383301,0.8384029008583291,13.54057136916279,0,0.3764155434831334,0.3763934234436984,0.3806522950082457,-0.004230130772974278,0,0,0,0,0,0,0,1858,5,neutral,4
11,0.1746031746031746,6.644913,0.858205699941983,13.514795422298002,0,0.3765214315881583,0.3765007929032526,0.3806664474500764,-0.004136841808424163,0,0,0,0,0,0,0,1859,5,neutral,4
12,0.19047619047619047,6.832748,0.8573836100361834,13.489621764044681,0,0.37665192776302675,0.3766343252400233,0.38068061953097826,-0.0040174098012161815,0,0,0,0,0,0,0,1860,5,neutral,4
13,0.20634920634920634,6.845093,0.7855960252953369,13.46504895723285,0,0.37680560677079145,0.3767920553917749,0.38069481100304237,-0.0038737995687738824,0,0,0,0,0,0,0,1861,5,neutral,4
14,0.2222222222222222,6.707382,0.661527193795096,13.441075675857835,0,0.3769810433745051,0.3769720213926474,0.38070902161601755,-0.0037079728298194483,0,0,0,0,0,0,0,1862,5,neutral,4
15,0.23809523809523808,6.546677,0.5598459381729173,13.417700705677161,0,0.3771768123372203,0.3771723117124398,0.3807232511173932,-0.003521840865173601,0,0,0,0,0,0,0,1863,5,neutral,4
16,0.25396825396825395,6.536804,0.5652360878996489,13.394922944855496,0,0.3773914884219897,0.37739109927748915,0.3807374992524949,-0.0033172304969720304,0,0,0,0,0,0,0,1864,5,neutral,4
17,0.2698412698412698,6.782928,0.7182639910845263,13.372741404659015,0,0.37762364639186596,0.3776266632026634,0.3807517657645918,-0.003095862356779914,0,0,0,0,0,0,0,1865,5,neutral,4
18,0.2857142857142857,7.229492,0.9836290019940179,13.351155210200446,0,0.37787186100990167,0.37787739980400736,0.3807660503950151,-0.002859339873064607,0,0,0,0,0,0,0,1866,5,neutral,4
19,0.30158730158730157,7.707672,1.259919950843047,13.330163601236283,0,0.37813472351741795,0.3781418247539083,0.3807803528832859,-0.0026091471161577883,0,0,0,0,0,0,0,1867,5,neutral,4
20,0.31746031746031744,8.020996,1.4275119106773935,13.309765933017484,0,0.3784109188363977,0.37841856830380083,0.38079467296725183,-0.002346653575687543,0,0,0,0,0,0,0,1868,5,neutral,4
21,0.3333333333333333,8.049469,1.4105401960562791,13.289961677195285,0,0.3786991649498666,0.378706365369324,0.3808090103832324,-0.0020731240755665218,0,0,0,0,0,0,0,1869,5,neutral,4
22,0.3492063492063492,7.816574,1.2214433802583147,13.27075042278353,0,0.37899817987838813,0.3790040419971669,0.38082336486617074,-0.0017897323072978018,0,0,0,0,0,0,0,1870,5,neutral,4
23,0.36507936507936506,7.471817,0.9657521926838063,13.25213187717935,0,0.3793066816425258,0.37931049936603617,0.380837736149792,-0.0014975768291661151,0,0,0,0,0,0,0,1871,5,neutral,4
24,0.38095238095238093,7.247131,0.8048296454880235,13.234105867243562,0,0.3796233882628431,0.3796246960730635,0.3808521239667675,-0.0011976987799946302,0,0,0,0,0,0,0,1872,5,neutral,4
25,0.3968253968253968,7.338791,0.8941986709519651,13.216672340442882,0,0.37994701775990364,0.3799456290765741,0.3808665280488841,-0.0008911009365456281,0,0,0,0,0,0,0,1873,5,neutral,4
26,0.4126984126984127,7.823242,1.3249696039582064,13.199831366055502,0,0.38027628815427084,0.3802723133554431,0.380880948127218,-0.0005787680543381168,0,0,0,0,0,0,0,1874,5,neutral,4
27,0.42857142857142855,8.663376,2.091890358926484,13.183583136442062,0,0.3806099174665084,0.38060376014324876,0.3808953839323124,-0.00026168863367236365,0,0,0,0,0,0,0,1875,5,neutral,4
28,0.4444444444444444,9.710144,3.0975452822913367,13.167927968383971,0,0.38094662371717963,0.3809389535277491,0.38090983519435856,5.9121679666069606e-05,0,0,0,0,0,0,0,1876,5,neutral,4
29,0.4603174603174603,10.7942,4.186644813963556,13.15286630449108,0,0.3812851249268483,0.38127682528300644,0.38092430164337937,0.00038259492634638414,0,0,0,0,0,0,0,1877,5,neutral,4
30,0.47619047619047616,11.75719,5.194721292501412,13.138398714680928,0,0.38162413911607773,0.38161622801640466,0.3809387830094154,0.0007075839803246994,0,0,0,0,0,0,0,1878,5,neutral,4
31,0.49206349206349204,12.50092,5.994597387192776,13.124525897731731,0,0.3819623843054316,0.38195590704329424,0.3809532790227124,0.0010328344233008,0,0,0,0,0,0,0,1879,5,neutral,4
32,0.5079365079365079,12.97112,6.529333621194988,13.111248682911487,0,0.3822985785154732,0.38229447181104936,0.38096778941390946,0.0013569559685874303,0,0,0,0,0,0,0,1880,5,neutral,4
33,0.5238095238095237,13.23036,6.827314441630551,13.098568031685595,0,0.38263143976676633,0.38263036813369766,0.38098231391422743,0.0016783946955514903,0,0,0,0,0,0,0,1881,5,neutral,4
34,0.5396825396825397,13.40746,6.999855907031654,13.086485039505519,0,0.38295968607987446,0.38296185291334434,0.3809968522556568,0.0019954077708502203,0,0,0,0,0,0,0,1882,5,neutral,4
35,0.5555555555555556,13.63995,7.222460565197575,13.075000937681217,0,0.3832819179252926,0.383286973360735,0.3810114041711437,0.0023060426688081676,0,0,0,0,0,0,0,1883,5,neutral,4
36,0.5714285714285714,14.0728,7.6984463636930505,13.064117095339965,0,0.38359585720774636,0.3836035529375621,0.3810259693947731,0.002608123113539967,0,0,0,0,0,0,0,1884,5,neutral,4
37,0.5873015873015872,14.80283,8.602210247564592,13.053835021474574,0,0.3838988281895297,0.38390918629541965,0.38104054766194884,0.002899244017725447,0,0,0,0,0,0,0,1885,5,neutral,4
38,0.6031746031746031,15.8911,10.004665911686933,13.044156367083957,0,0.3841881531728943,0.3842012453664137,0.38105513870956803,0.0031767775730455125,0,0,0,0,0,0,0,1886,5,neutral,4
39,0.6190476190476191,17.33791,11.798134981852167,13.0350829274092,0,0.3844611544600922,0.3844768984680465,0.3810697422761894,0.003437892354897642,0,0,0,0,0,0,0,1887,5,neutral,4
40,0.6349206349206349,19.01108,13.656539344356773,13.02661664426842,0,0.38471515435337544,0.38473314382546436,0.3810843581021935,0.0036795868444839683,0,0,0,0,0,0,0,1888,5,neutral,4
41,0.6507936507936507,20.53813,15.074538777293627,13.01875960849385,0,0.3849474751549959,0.3849668582927126,0.3810989859299335,0.003898738149914876,0,0,0,0,0,0,0,1889,5,neutral,4
42,0.6666666666666666,21.34242,15.510604253144951,13.011514062474712,0,0.38515543916720524,0.3851748612777054,0.38111362550387473,0.004092165931039953,0,0,0,0,0,0,0,1890,5,neutral,4
43,0.6825396825396826,20.82437,14.611039675146497,13.004882402809695,0,0.3853363686922556,0.3853539929579057,0.3811282765707205,0.004256710615001318,0,0,0,0,0,0,0,1891,5,neutral,4
44,0.6984126984126984,18.69966,12.43396370573472,12.998867183072871,0,0.3854875860323989,0.3855012048465433,0.3811429388795239,0.004389323962340504,0,0,0,0,0,0,0,1892,5,neutral,4
45,0.7142857142857142,15.38295,9.5600831422515,12.993471116697236,0,0.38560641348988706,0.38561365968682915,0.38115761218178207,0.004487168961117833,0,0,0,0,0,0,0,1893,5,neutral,4
46,0.7301587301587301,12.03342,7.001658533448615,12.988697079980076,0,0.3856901733669719,0.3856888365938158,0.38117229623151266,0.004547724968696835,0,0,0,0,0,0,0,1894,5,neutral,4
47,0.746031746031746,10.18137,5.9033169136165435,12.984548115214778,0,0.3857361879659055,0.38572463643365484,0.3811869907853097,0.004568893090945634,0,1,0,0,0,0,0,1895,5,neutral,4
48,0.7619047619047619,11.06821,7.130418960093679,12.981027433953649,0,0.38574177958893957,0.38571948174768556,0.38120169560237815,0.004549096106291029,0,0,0,0,0,0,0,1896,5,neutral,4
49,0.7777777777777777,15.02371,10.904945325154559,12.97813842040677,0,0.38570427053832623,0.38567240521712726,0.38121641044454574,0.004487366930399023,0,0,0,0,0,0,0,1897,5,neutral,4
50,0.7936507936507936,21.17663,16.635038694145482,12.975884634981965,0,0.3856209831163173,0.3855831208305906,0.381231135076251,0.00438341978369784,0,0,0,0,0,0,0,1898,5,neutral,4
51,0.8095238095238095,27.78962,22.998337837532446,12.974269817971344,0,0.38548967296944603,0.385452072628144,0.38124586926450754,0.004237698935480294,0,0,0,0,0,0,0,1899,5,neutral,4
52,0.8253968253968254,32.8213,28.23164290890434,12.973297893390015,0,0.38531242687505907,0.3852804571499787,0.3812606127788435,0.004051401152629039,0,0,0,0,0,0,0,1900,5,neutral,4
53,0.8412698412698412,34.53616,30.51200015569918,12.972972972972974,1,0.38509382332150605,0.3850702174191878,0.3812753653912175,0.003826469682479932,0,0,0,0,0,0,0,1901,5,neutral,4
54,0.8571428571428571,31.80473,28.317545099016968,13.01388504247025,0,0.3848384706278466,0.38482400824712015,0.38129012687591096,0.0035655595582835763,0,0,0,0,0,0,0,1902,5,neutral,4
55,0.873015873015873,24.04265,20.71018127995564,13.134248650164784,0,0.3845509771131405,0.3845451346205035,0.3813048970093982,0.00327197598645806,0,0,0,0,0,0,0,1903,5,neutral,4
56,0.8888888888888888,11.13216,7.533850457950086,13.33244311588823,0,0.38423595109644754,0.38423746667656433,0.3813196755701958,0.0029495893218595987,0,0,0,0,0,0,0,1904,5,neutral,4
57,0.9047619047619047,-6.527267,0.0,13.609189416035909,0,0.38389800089682724,0.38390533612826294,0.3813344623386934,0.002602731493186671,0,0,0,0,0,0,0,1905,5,neutral,4
58,0.9206349206349206,-27.77087,0.0,13.967397391475146,0,0.38354173483333937,0.38355341988840536,0.38134925709696765,0.0022360796272781957,0,0,0,0,0,0,0,1906,5,neutral,4
59,0.9365079365079365,-50.46507,0.0,14.412164270839938,0,0.38317176122504354,0.3831866170573754,0.3813640596285821,0.0018545330370453549,0,0,0,0,0,0,0,1907,5,neutral,4
60,0.9523809523809523,-71.70704,0.0,14.950908233205649,0,0.38279268839099956,0.38280992543285586,0.38137886971837565,0.0014630897314043276,0,0,0,0,0,0,0,1908,5,neutral,4
61,0.9682539682539681,-88.45846,0.0,15.59363665304894,0,0.3824091246502672,0.38242832334293686,0.38139368715224264,0.0010667282486049087,0,0,0,0,0,0,0,1909,5,neutral,4
62,0.9841269841269841,-98.50291,0.0,16.353362327591583,0,0.382025678321906,0.3820466619713204,0.38140851171690693,0.0006702999816605012,0,0,0,0,0,0,0,1910,5,neutral,4
63,1.0,-101.0969,0.0,17.246694623667004,0,0.38164695772497553,0.3816695724996331,0.38142334319969284,0.00027843632088985154,0,0,0,0,0,0,0,1911,5,neutral,4
