timestamp,value,norm_ts
1619376264.74985,27.37,4.877560138702393
1619376264.76548,23.4314,4.893190145492554
1619376264.7811,20.29111,4.908810138702393
1619376264.79673,17.96494,4.924440145492554
1619376264.81235,15.99725,4.940060138702393
1619376264.82798,13.62415,4.955690145492554
1619376264.84361,10.14218,4.971320152282715
1619376264.85923,5.228882,4.986940145492554
1619376264.87486,-0.8922119,5.002570152282715
1619376264.89048,-7.546631,5.018190145492554
1619376264.90611,-13.96594,5.033820152282715
1619376264.92174,-19.61026,5.049450159072876
1619376264.93736,-24.39407,5.065070152282715
1619376264.95299,-28.68369,5.080700159072876
1619376264.96861,-33.05725,5.096320152282715
1619376264.98424,-38.03464,5.111950159072876
1619376264.99986,-43.95941,5.127570152282715
1619376265.01549,-50.88785,5.143200159072876
1619376265.03112,-58.57709,5.158830165863037
1619376265.04674,-66.49445,5.174450159072876
1619376265.06237,-73.78879,5.190080165863037
1619376265.07799,-79.24792,5.205700159072876
1619376265.09362,-81.45734,5.221330165863037
1619376265.10924,-79.13461,5.236950159072876
1619376265.12487,-71.51556,5.252580165863037
1619376265.1405,-58.73059,5.268210172653198
1619376265.15612,-41.87454,5.283830165863037
1619376265.17175,-22.77011,5.299460172653198
1619376265.18737,-3.530334,5.315080165863037
1619376265.203,13.97797,5.330710172653198
1619376265.21862,28.49448,5.346330165863037
1619376265.23425,39.4808,5.361960172653198
1619376265.24988,47.00302,5.377590179443359
1619376265.2655,51.48416,5.393210172653198
1619376265.28113,53.44125,5.408840179443359
1619376265.29675,53.30762,5.424460172653198
1619376265.31238,51.46567,5.440090179443359
1619376265.328,48.20929,5.455710172653198
1619376265.34363,43.90689,5.471340179443359
1619376265.35926,38.98489,5.4869701862335205
1619376265.37488,33.9292,5.502590179443359
1619376265.39051,29.12268,5.5182201862335205
1619376265.40613,24.77209,5.533840179443359
1619376265.42176,20.85056,5.5494701862335205
1619376265.43738,17.15146,5.565090179443359
1619376265.45301,13.47794,5.5807201862335205
1619376265.46864,9.762695,5.596350193023682
1619376265.48426,6.137268,5.6119701862335205
1619376265.49989,2.785797,5.627600193023682
1619376265.51551,-0.2224426,5.6432201862335205
1619376265.53114,-3.101898,5.658850193023682
1619376265.54676,-6.331329,5.6744701862335205
1619376265.56239,-10.46323,5.690100193023682
1619376265.57802,-15.83887,5.705730199813843
1619376265.59364,-22.34998,5.721350193023682
1619376265.60927,-29.50543,5.736980199813843
1619376265.62489,-36.60257,5.752600193023682
1619376265.64052,-43.0892,5.768230199813843
1619376265.65614,-48.87866,5.783850193023682
1619376265.67177,-54.35925,5.799480199813843
1619376265.6874,-60.26379,5.815110206604004
1619376265.70302,-67.26276,5.830730199813843
1619376265.71865,-75.73022,5.846360206604004
1619376265.73427,-85.45563,5.861980199813843
1619376265.7499,-95.67822,5.877610206604004
1619376265.76552,-105.0819,5.893230199813843
1619376265.78115,-112.0342,5.908860206604004
1619376265.79678,-114.9461,5.924490213394165
1619376265.8124,-112.5651,5.940110206604004
1619376265.82803,-104.3834,5.955740213394165
1619376265.84365,-90.78853,5.971360206604004
1619376265.85928,-73.02675,5.986990213394165
1619376265.8749,-52.83441,6.002610206604004
1619376265.89053,-32.02866,6.018240213394165
1619376265.90616,-12.08067,6.033870220184326
1619376265.92178,6.02002,6.049490213394165
1619376265.93741,21.67625,6.065120220184326
1619376265.95303,34.54347,6.080740213394165
1619376265.96866,44.38414,6.096370220184326
1619376265.98428,51.13078,6.111990213394165
1619376265.99991,54.94054,6.127620220184326
1619376266.01554,56.28688,6.143249988555908
1619376266.03116,55.90642,6.158870220184326
1619376266.04679,54.56554,6.174499988555908
1619376266.06241,52.91379,6.190120220184326
1619376266.07804,51.25613,6.205749988555908
1619376266.09366,49.60146,6.221370220184326
1619376266.10929,47.72992,6.236999988555908
1619376266.12492,45.40263,6.252629995346069
1619376266.14054,42.54662,6.268249988555908
1619376266.15617,39.29845,6.283879995346069
1619376266.17179,35.95174,6.299499988555908
1619376266.18742,32.79462,6.315129995346069
1619376266.20304,30.01086,6.330749988555908
1619376266.21867,27.45259,6.346379995346069
1619376266.2343,24.76881,6.3620100021362305
1619376266.24992,21.46428,6.377629995346069
1619376266.26555,17.14079,6.3932600021362305
1619376266.28117,11.70519,6.408879995346069
1619376266.2968,5.404594,6.4245100021362305
1619376266.31242,-1.251022,6.440129995346069
1619376266.32805,-7.719215,6.4557600021362305
1619376266.34368,-13.64334,6.471390008926392
1619376266.3593,-19.00958,6.4870100021362305
1619376266.37493,-24.10694,6.502640008926392
1619376266.39055,-29.46539,6.5182600021362305
1619376266.40618,-35.65871,6.533890008926392
1619376266.4218,-43.126,6.5495100021362305
1619376266.43743,-51.96797,6.565140008926392
1619376266.45306,-61.71917,6.580770015716553
1619376266.46868,-71.25134,6.596390008926392
1619376266.48431,-78.81226,6.612020015716553
1619376266.49993,-82.36106,6.627640008926392
1619376266.51556,-80.12231,6.643270015716553
1619376266.53118,-71.16075,6.658890008926392
1619376266.54681,-55.81671,6.674520015716553
1619376266.56244,-35.62353,6.690150022506714
1619376266.57806,-12.89998,6.705770015716553
1619376266.59369,9.98167,6.721400022506714
1619376266.60931,31.15233,6.737020015716553
1619376266.62494,49.48947,6.752650022506714
1619376266.64056,64.50182,6.768270015716553
1619376266.65619,76.04662,6.783900022506714
1619376266.67182,84.11098,6.799530029296875
1619376266.68744,88.71054,6.815150022506714
1619376266.70307,90.10077,6.830780029296875
1619376266.71869,88.79436,6.846400022506714
1619376266.73432,85.59646,6.862030029296875
1619376266.74994,81.37475,6.877650022506714
1619376266.76557,76.81091,6.893280029296875
1619376266.7812,72.21584,6.908910036087036
1619376266.79682,67.54044,6.924530029296875
1619376266.81245,62.60925,6.940160036087036
1619376266.82807,57.29521,6.955780029296875
1619376266.8437,51.7415,6.971410036087036
1619376266.85932,46.29127,6.987030029296875
1619376266.87495,41.3859,7.002660036087036
1619376266.89058,37.30075,7.018290042877197
1619376266.9062,34.01704,7.033910036087036
1619376266.92183,31.24728,7.049540042877197
1619376266.93745,28.4955,7.065160036087036
1619376266.95308,25.26965,7.080790042877197
1619376266.9687,21.25496,7.096410036087036
1619376266.98433,16.41482,7.112040042877197
1619376266.99996,11.00098,7.127670049667358
1619376267.01558,5.432373,7.143290042877197
1619376267.03121,0.08202553,7.158920049667358
1619376267.04683,-4.853659,7.174540042877197
1619376267.06246,-9.422396,7.190170049667358
1619376267.07808,-13.93904,7.205790042877197
1619376267.09371,-18.82167,7.221420049667358
1619376267.10934,-24.4327,7.2370500564575195
1619376267.12496,-30.96033,7.252670049667358
1619376267.14059,-38.31746,7.2683000564575195
1619376267.15621,-46.14674,7.283920049667358
1619376267.17184,-53.84061,7.2995500564575195
1619376267.18746,-60.53818,7.315170049667358
1619376267.20309,-65.16003,7.3308000564575195
1619376267.21872,-66.61348,7.346430063247681
1619376267.23434,-63.99211,7.3620500564575195
1619376267.24997,-56.86586,7.377680063247681
1619376267.26559,-45.46538,7.3933000564575195
1619376267.28122,-30.72779,7.408930063247681
1619376267.29684,-14.03484,7.4245500564575195
1619376267.31247,3.047508,7.440180063247681
1619376267.3281,19.16403,7.455810070037842
1619376267.34372,33.31431,7.471430063247681
1619376267.35935,44.83995,7.487060070037842
1619376267.37497,53.39899,7.502680063247681
1619376267.3906,58.85048,7.518310070037842
1619376267.40622,61.27066,7.533930063247681
1619376267.42185,60.98997,7.549560070037842
1619376267.43748,58.65499,7.565190076828003
1619376267.4531,55.08329,7.580810070037842
1619376267.46873,51.1048,7.596440076828003
1619376267.48435,47.31888,7.612060070037842
1619376267.49998,43.96135,7.627690076828003
1619376267.5156,40.99627,7.643310070037842
1619376267.53123,38.2208,7.658940076828003
1619376267.54686,35.44576,7.674570083618164
1619376267.56248,32.62298,7.690190076828003
1619376267.57811,29.80472,7.705820083618164
1619376267.59373,27.06827,7.721440076828003
1619376267.60936,24.45142,7.737070083618164
1619376267.62499,21.87072,7.752700090408325
1619376267.64061,19.15439,7.768320083618164
1619376267.65624,16.12069,7.783950090408325
1619376267.67186,12.60285,7.799570083618164
1619376267.68749,8.562466,7.815200090408325
1619376267.70311,4.121117,7.830820083618164
1619376267.71874,-0.502964,7.846450090408325
1619376267.73437,-5.080639,7.862080097198486
1619376267.74999,-9.482388,7.877700090408325
1619376267.76562,-13.75765,7.893330097198486
1619376267.78124,-18.1512,7.908950090408325
1619376267.79687,-22.94178,7.924580097198486
1619376267.81249,-28.44739,7.940200090408325
1619376267.82812,-34.85819,7.955830097198486
1619376267.84375,-42.19938,7.9714601039886475
1619376267.85937,-50.31658,7.987080097198486
1619376267.875,-58.72554,8.002710103988647
1619376267.89062,-66.57447,8.018330097198486
1619376267.90625,-72.57013,8.033960103988647
1619376267.92187,-75.16055,8.049580097198486
1619376267.9375,-72.94997,8.065210103988647
1619376267.95313,-65.21002,8.080840110778809
1619376267.96875,-52.2333,8.096460103988647
1619376267.98438,-35.29654,8.112090110778809
1619376268.0,-16.339,8.127710103988647
1619376268.01563,2.6567,8.143340110778809
1619376268.03125,20.10122,8.158960103988647
1619376268.04688,35.01653,8.174590110778809
1619376268.06251,46.93889,8.19022011756897
1619376268.07813,55.69638,8.205840110778809
1619376268.09376,61.21336,8.22147011756897
1619376268.10938,63.50106,8.237090110778809
1619376268.12501,62.80957,8.25272011756897
1619376268.14063,59.72841,8.268340110778809
1619376268.15626,55.13402,8.28397011756897
1619376268.17189,49.97009,8.29960012435913
1619376268.18751,44.95239,8.31522011756897
1619376268.20314,40.43428,8.33085012435913
1619376268.21876,36.38127,8.34647011756897
1619376268.23439,32.55067,8.36210012435913
1619376268.25001,28.7055,8.37772011756897
1619376268.26564,24.8017,8.39335012435913
1619376268.28127,20.98421,8.408980131149292
1619376268.29689,17.53895,8.42460012435913
1619376268.31252,14.67481,8.440230131149292
1619376268.32814,12.38945,8.45585012435913
1619376268.34377,10.46037,8.471480131149292
1619376268.35939,8.452282,8.48710012435913
1619376268.37502,5.920925,8.502730131149292
1619376268.39065,2.532486,8.518360137939453
1619376268.40627,-1.799028,8.533980131149292
1619376268.4219,-6.894077,8.549610137939453
1619376268.43752,-12.3814,8.565230131149292
1619376268.45315,-17.89169,8.580860137939453
1619376268.46877,-23.22341,8.596480131149292
1619376268.4844,-28.37718,8.612110137939453
1619376268.50003,-33.59698,8.627740144729614
1619376268.51565,-39.17003,8.643360137939453
1619376268.53128,-45.36597,8.658990144729614
1619376268.5469,-52.27953,8.674610137939453
1619376268.56253,-59.75443,8.690240144729614
1619376268.57815,-67.2675,8.705860137939453
1619376268.59378,-73.84286,8.721490144729614
1619376268.60941,-78.13768,8.737120151519775
1619376268.62503,-78.65311,8.752740144729614
1619376268.64066,-74.14578,8.768370151519775
1619376268.65628,-64.12192,8.783990144729614
1619376268.67191,-49.14283,8.799620151519775
1619376268.68753,-30.80087,8.815240144729614
1619376268.70316,-11.29747,8.830870151519775
1619376268.71879,7.224396,8.846500158309937
1619376268.73441,23.21132,8.862120151519775
1619376268.75004,35.91615,8.877750158309937
1619376268.76566,45.29843,8.893370151519775
1619376268.78129,51.62114,8.909000158309937
1619376268.79691,55.18676,8.924620151519775
1619376268.81254,56.21602,8.940250158309937
1619376268.82817,54.96243,8.955880165100098
1619376268.84379,51.8905,8.971500158309937
1619376268.85942,47.71147,8.987130165100098
1619376268.87504,43.21397,9.002750158309937
1619376268.89067,39.03676,9.018380165100098
1619376268.90629,35.42147,9.034000158309937
1619376268.92192,32.24947,9.049630165100098
1619376268.93755,29.21195,9.065260171890259
1619376268.95317,26.07026,9.080880165100098
1619376268.9688,22.83113,9.096510171890259
1619376268.98442,19.73339,9.112130165100098
1619376269.00005,17.08556,9.127760171890259
1619376269.01567,15.01884,9.143380165100098
1619376269.0313,13.38164,9.159010171890259
1619376269.04693,11.67915,9.17464017868042
1619376269.06255,9.309647,9.190260171890259
1619376269.07818,5.805535,9.20589017868042
1619376269.0938,1.023406,9.221510171890259
1619376269.10943,-4.738676,9.23714017868042
1619376269.12505,-10.93031,9.252760171890259
1619376269.14068,-16.92085,9.26839017868042
1619376269.15631,-22.27424,9.284020185470581
1619376269.17193,-26.93722,9.29964017868042
1619376269.18756,-31.26796,9.315270185470581
1619376269.20318,-35.88432,9.33089017868042
1619376269.21881,-41.4165,9.346520185470581
1619376269.23443,-48.22607,9.36214017868042
1619376269.25006,-56.266,9.377770185470581
1619376269.26569,-64.88086,9.393400192260742
1619376269.28131,-72.92304,9.409020185470581
1619376269.29694,-78.88113,9.424650192260742
1619376269.31256,-81.19085,9.440270185470581
1619376269.32819,-78.67204,9.455900192260742
1619376269.34381,-70.75885,9.471520185470581
1619376269.35944,-57.77488,9.487150192260742
1619376269.37507,-40.80369,9.502780199050903
1619376269.39069,-21.50268,9.518400192260742
1619376269.40632,-1.710711,9.534030199050903
1619376269.42194,16.89062,9.549650192260742
1619376269.43757,33.02107,9.565280199050903
1619376269.45319,45.86983,9.580900192260742
1619376269.46882,55.10743,9.596530199050903
1619376269.48445,60.79123,9.612160205841064
1619376269.50007,63.31378,9.627780199050903
1619376269.5157,63.3059,9.643410205841064
1619376269.53132,61.55612,9.659030199050903
1619376269.54695,58.80586,9.674660205841064
1619376269.56257,55.59842,9.690280199050903
1619376269.5782,52.18571,9.705910205841064
1619376269.59383,48.50032,9.721540212631226
1619376269.60945,44.37555,9.737160205841064
1619376269.62508,39.69233,9.752790212631226
1619376269.6407,34.5456,9.768410205841064
1619376269.65633,29.30648,9.784040212631226
1619376269.67195,24.49591,9.799660205841064
1619376269.68758,20.51043,9.815290212631226
1619376269.70321,17.48473,9.830920219421387
1619376269.71883,15.17262,9.846540212631226
1619376269.73446,13.03038,9.862170219421387
1619376269.75008,10.41705,9.877790212631226
1619376269.76571,6.826687,9.893420219421387
1619376269.78134,2.004661,9.909049987792969
1619376269.79696,-3.947925,9.924670219421387
1619376269.81259,-10.64215,9.940299987792969
1619376269.82821,-17.62658,9.955920219421387
1619376269.84384,-24.50106,9.971549987792969
1619376269.85946,-31.08431,9.987170219421387
1619376269.87509,-37.50064,10.002799987792969
1619376269.89072,-44.06615,10.01842999458313
1619376269.90634,-51.24083,10.034049987792969
1619376269.92197,-59.44864,10.04967999458313
1619376269.93759,-68.89876,10.065299987792969
1619376269.95322,-79.41656,10.08092999458313
1619376269.96884,-90.3161,10.096549987792969
1619376269.98447,-100.3849,10.11217999458313
1619376270.0001,-108.0057,10.127810001373291
1619376270.01572,-111.6307,10.14342999458313
1619376270.03135,-110.1514,10.159060001373291
1619376270.04697,-103.3433,10.17467999458313
1619376270.0626,-91.91431,10.190310001373291
1619376270.07822,-77.28522,10.20592999458313
1619376270.09385,-61.13315,10.221560001373291
1619376270.10948,-44.90439,10.237190008163452
1619376270.1251,-29.61626,10.252810001373291
1619376270.14073,-15.8704,10.268440008163452
1619376270.15635,-4.129074,10.284060001373291
1619376270.17198,5.135921,10.299690008163452
1619376270.1876,11.36591,10.315310001373291
1619376270.20323,14.1032,10.330940008163452
1619376270.21886,13.28836,10.346570014953613
1619376270.23448,9.387863,10.362190008163452
1619376270.25011,3.454086,10.377820014953613
1619376270.26573,-3.006493,10.393440008163452
1619376270.28136,-8.414551,10.409070014953613
1619376270.29698,-11.57752,10.424690008163452
1619376270.31261,-12.04807,10.440320014953613
1619376270.32824,-10.35686,10.455950021743774
1619376270.34386,-7.859131,10.471570014953613
1619376270.35949,-6.149147,10.487200021743774
1619376270.37511,-6.512596,10.502820014953613
1619376270.39074,-9.345901,10.518450021743774
1619376270.40636,-14.00162,10.534070014953613
1619376270.42199,-19.01169,10.549700021743774
1619376270.43762,-22.66238,10.565330028533936
1619376270.45324,-23.58172,10.580950021743774
1619376270.46887,-21.05647,10.596580028533936
1619376270.48449,-15.1337,10.612200021743774
1619376270.50012,-6.36087,10.627830028533936
1619376270.51574,4.352036,10.643450021743774
1619376270.53137,16.00032,10.659080028533936
1619376270.547,27.50055,10.674710035324097
1619376270.56262,37.79257,10.690330028533936
1619376270.57825,45.89011,10.705960035324097
1619376270.59387,50.93874,10.721580028533936
1619376270.6095,52.39934,10.737210035324097
1619376270.62512,50.04262,10.752830028533936
1619376270.64075,44.03511,10.768460035324097
1619376270.65638,34.84468,10.784090042114258
1619376270.672,23.26939,10.799710035324097
1619376270.68763,10.39214,10.815340042114258
1619376270.70325,-2.392609,10.830960035324097
1619376270.71888,-13.48817,10.846590042114258
1619376270.7345,-21.31076,10.862210035324097
1619376270.75013,-24.63194,10.877840042114258
1619376270.76576,-22.93909,10.893470048904419
1619376270.78138,-16.54999,10.909090042114258
1619376270.79701,-6.501694,10.924720048904419
1619376270.81263,5.789276,10.940340042114258
1619376270.82826,18.93616,10.955970048904419
1619376270.84388,31.81227,10.971590042114258
1619376270.85951,43.59021,10.987220048904419
1619376270.87514,53.68149,11.00285005569458
1619376270.89076,61.62915,11.018470048904419
1619376270.90639,67.05104,11.03410005569458
1619376270.92201,69.80328,11.049720048904419
1619376270.93764,70.06433,11.06535005569458
1619376270.95326,68.35199,11.080970048904419
1619376270.96889,65.43674,11.09660005569458
1619376270.98452,62.04883,11.112230062484741
1619376271.00014,58.7106,11.12785005569458
1619376271.01577,55.61938,11.143480062484741
1619376271.03139,52.73663,11.15910005569458
1619376271.04702,49.89789,11.174730062484741
1619376271.06264,46.97433,11.19035005569458
1619376271.07827,43.99945,11.205980062484741
1619376271.0939,41.06659,11.221610069274902
1619376271.10952,38.3078,11.237230062484741
1619376271.12515,35.73633,11.252860069274902
1619376271.14077,33.2645,11.268480062484741
1619376271.1564,30.69916,11.284110069274902
1619376271.17202,27.84628,11.299730062484741
1619376271.18765,24.54984,11.315360069274902
1619376271.20328,20.72076,11.330990076065063
1619376271.2189,16.33154,11.346610069274902
1619376271.23453,11.38266,11.362240076065063
1619376271.25015,5.934448,11.377860069274902
1619376271.26578,0.07876587,11.393490076065063
1619376271.2814,-6.032166,11.409110069274902
1619376271.29703,-12.293,11.424740076065063
1619376271.31266,-18.77478,11.440370082855225
1619376271.32828,-25.75882,11.455990076065063
1619376271.34391,-33.63275,11.471620082855225
1619376271.35953,-42.61487,11.487240076065063
1619376271.37516,-52.42966,11.502870082855225
1619376271.39078,-62.11948,11.518490076065063
1619376271.40641,-70.14658,11.534120082855225
1619376271.42204,-74.77301,11.549750089645386
1619376271.43766,-74.59174,11.565370082855225
1619376271.45329,-69.00247,11.581000089645386
1619376271.46891,-58.36649,11.596620082855225
1619376271.48454,-43.85947,11.612250089645386
1619376271.50016,-27.15799,11.627870082855225
1619376271.51579,-9.988251,11.643500089645386
1619376271.53142,6.170105,11.659130096435547
1619376271.54704,20.28125,11.674750089645386
1619376271.56267,31.75311,11.690380096435547
1619376271.57829,40.36853,11.706000089645386
1619376271.59392,46.16992,11.721630096435547
1619376271.60954,49.35342,11.737250089645386
1619376271.62517,50.20667,11.752880096435547
1619376271.6408,49.0354,11.768510103225708
1619376271.65642,46.21124,11.784130096435547
1619376271.67205,42.16916,11.799760103225708
1619376271.68767,37.44608,11.815380096435547
1619376271.7033,32.57587,11.831010103225708
1619376271.71892,27.99231,11.846630096435547
1619376271.73455,23.89413,11.862260103225708
1619376271.75018,20.25735,11.87789011001587
1619376271.7658,16.96323,11.893510103225708
1619376271.78143,13.89011,11.90914011001587
1619376271.79705,11.07507,11.924760103225708
1619376271.81268,8.625092,11.94039011001587
1619376271.8283,6.616516,11.956010103225708
1619376271.84393,4.959412,11.97164011001587
1619376271.85956,3.324249,11.98727011680603
1619376271.87518,1.268219,12.00289011001587
1619376271.89081,-1.580078,12.01852011680603
1619376271.90643,-5.350677,12.03414011001587
1619376271.92206,-9.91214,12.04977011680603
1619376271.93768,-14.9353,12.06539011001587
1619376271.95331,-20.06967,12.08102011680603
1619376271.96894,-25.1376,12.096650123596191
1619376271.98456,-30.13571,12.11227011680603
1619376272.00019,-35.27692,12.127900123596191
1619376272.01581,-40.83585,12.14352011680603
1619376272.03144,-47.13812,12.159150123596191
1619376272.04707,-54.39664,12.174780130386353
1619376272.06269,-62.5567,12.190400123596191
1619376272.07832,-71.13196,12.206030130386353
1619376272.09394,-79.0343,12.221650123596191
1619376272.10957,-84.6795,12.237280130386353
1619376272.12519,-86.30798,12.252900123596191
1619376272.14082,-82.53964,12.268530130386353
1619376272.15645,-72.85526,12.284160137176514
1619376272.17207,-57.87787,12.299780130386353
1619376272.1877,-39.22729,12.315410137176514
1619376272.20332,-19.04523,12.331030130386353
1619376272.21895,0.6931152,12.346660137176514
1619376272.23457,18.58011,12.362280130386353
1619376272.2502,33.89359,12.377910137176514
1619376272.26583,46.43723,12.393540143966675
1619376272.28145,56.1954,12.409160137176514
1619376272.29708,63.11023,12.424790143966675
1619376272.3127,67.08142,12.440410137176514
1619376272.32833,68.13196,12.456040143966675
1619376272.34395,66.53851,12.471660137176514
1619376272.35958,62.96896,12.487290143966675
1619376272.37521,58.2652,12.502920150756836
1619376272.39083,53.21542,12.518540143966675
1619376272.40646,48.35178,12.534170150756836
1619376272.42208,43.7991,12.549790143966675
1619376272.43771,39.38925,12.565420150756836
1619376272.45333,34.87866,12.581040143966675
1619376272.46896,30.17606,12.596670150756836
1619376272.48459,25.4411,12.612300157546997
1619376272.50021,21.0141,12.627920150756836
1619376272.51584,17.22864,12.643550157546997
1619376272.53146,14.21704,12.659170150756836
1619376272.54709,11.8158,12.674800157546997
1619376272.56271,9.65271,12.690420150756836
1619376272.57834,7.268494,12.706050157546997
1619376272.59397,4.320251,12.721680164337158
1619376272.60959,0.6725464,12.737300157546997
1619376272.62522,-3.606995,12.752930164337158
1619376272.64084,-8.304413,12.768550157546997
1619376272.65647,-13.19266,12.784180164337158
1619376272.67209,-18.10013,12.799800157546997
1619376272.68772,-23.04395,12.815430164337158
1619376272.70335,-28.21301,12.83106017112732
1619376272.71897,-33.97137,12.846680164337158
1619376272.7346,-40.71039,12.86231017112732
1619376272.75022,-48.69308,12.877930164337158
1619376272.76585,-57.90488,12.89356017112732
1619376272.78147,-67.86923,12.909180164337158
1619376272.7971,-77.6163,12.92481017112732
1619376272.81273,-85.78958,12.94044017791748
1619376272.82835,-90.79675,12.95606017112732
1619376272.84398,-91.19229,12.97169017791748
1619376272.8596,-86.05399,12.98731017112732
1619376272.87523,-75.30472,13.00294017791748
1619376272.89085,-59.82471,13.01856017112732
1619376272.90648,-41.30704,13.03419017791748
1619376272.92211,-21.81506,13.049820184707642
1619376272.93773,-3.254181,13.06544017791748
1619376272.95336,13.05823,13.081070184707642
1619376272.96898,26.552,13.09669017791748
1619376272.98461,37.2767,13.112320184707642
1619376273.00023,45.47028,13.12794017791748
1619376273.01586,51.37311,13.143570184707642
1619376273.03149,55.09686,13.159200191497803
1619376273.04711,56.72296,13.174820184707642
1619376273.06274,56.54504,13.190450191497803
1619376273.07836,55.1084,13.206070184707642
1619376273.09399,53.13165,13.221700191497803
1619376273.10961,51.27002,13.237320184707642
1619376273.12524,49.9104,13.252950191497803
1619376273.14087,49.02072,13.268580198287964
1619376273.15649,48.30981,13.284200191497803
1619376273.17212,47.42899,13.299830198287964
1619376273.18774,46.20227,13.315450191497803
1619376273.20337,44.73849,13.331080198287964
1619376273.21899,43.34647,13.346700191497803
1619376273.23462,42.36075,13.362330198287964
1619376273.25025,41.9451,13.377960205078125
1619376273.26587,41.96912,13.393580198287964
1619376273.2815,42.00522,13.409210205078125
1619376273.29712,41.50427,13.424830198287964
1619376273.31275,40.005,13.440460205078125
1619376273.32837,37.33521,13.456080198287964
1619376273.344,33.66348,13.471710205078125
1619376273.35963,29.38821,13.487340211868286
1619376273.37525,24.93658,13.502960205078125
1619376273.39088,20.57785,13.518590211868286
1619376273.4065,16.29047,13.534210205078125
1619376273.42213,11.83051,13.549840211868286
1619376273.43775,6.841248,13.565460205078125
1619376273.45338,1.024323,13.581090211868286
1619376273.46901,-5.861725,13.596720218658447
1619376273.48463,-13.92889,13.612340211868286
1619376273.50026,-23.12143,13.627970218658447
1619376273.51588,-33.11609,13.643590211868286
1619376273.53151,-43.14346,13.659220218658447
1619376273.54713,-51.9584,13.674840211868286
1619376273.56276,-57.97736,13.690470218658447
1619376273.57839,-59.67694,13.70609998703003
1619376273.59401,-56.06729,13.721720218658447
1619376273.60964,-47.12503,13.73734998703003
1619376273.62526,-33.84137,13.752970218658447
1619376273.64089,-17.92844,13.76859998703003
1619376273.65651,-1.33847,13.784220218658447
1619376273.67214,14.24387,13.79984998703003
1619376273.68777,27.76181,13.81547999382019
1619376273.70339,38.79715,13.83109998703003
1619376273.71902,47.37903,13.84672999382019
1619376273.73464,53.7001,13.86234998703003
1619376273.75027,57.91147,13.87797999382019
1619376273.76589,60.11328,13.89359998703003
1619376273.78152,60.46121,13.90922999382019
1619376273.79715,59.27521,13.924860000610352
1619376273.81277,57.02936,13.94047999382019
1619376273.8284,54.2887,13.956110000610352
1619376273.84402,51.50693,13.97172999382019
1619376273.85965,48.87115,13.987360000610352
1619376273.87527,46.26373,14.00297999382019
1619376273.8909,43.38364,14.018610000610352
1619376273.90653,39.95911,14.034240007400513
1619376273.92215,35.95886,14.049860000610352
1619376273.93778,31.65805,14.065490007400513
1619376273.9534,27.51489,14.081110000610352
1619376273.96903,23.98044,14.096740007400513
1619376273.98465,21.21799,14.112360000610352
1619376274.00028,19.07205,14.127990007400513
1619376274.01591,17.05231,14.143620014190674
1619376274.03153,14.57816,14.159240007400513
1619376274.04716,11.22388,14.174870014190674
1619376274.06278,6.819977,14.190490007400513
1619376274.07841,1.518341,14.206120014190674
1619376274.09403,-4.328278,14.221740007400513
1619376274.10966,-10.30521,14.237370014190674
1619376274.12529,-16.1319,14.253000020980835
1619376274.14091,-21.66287,14.268620014190674
1619376274.15654,-26.92618,14.284250020980835
1619376274.17216,-32.09863,14.299870014190674
1619376274.18779,-37.40979,14.315500020980835
1619376274.20341,-43.16962,14.331120014190674
1619376274.21904,-49.67139,14.346750020980835
1619376274.23467,-56.99481,14.362380027770996
1619376274.25029,-64.79446,14.378000020980835
1619376274.26592,-72.1835,14.393630027770996
1619376274.28154,-77.70932,14.409250020980835
1619376274.29717,-79.75558,14.424880027770996
1619376274.31279,-77.03928,14.440500020980835
1619376274.32842,-69.14404,14.456130027770996
1619376274.34405,-56.71759,14.471760034561157
1619376274.35967,-41.32852,14.487380027770996
1619376274.3753,-24.94366,14.503010034561157
1619376274.39092,-9.330048,14.518630027770996
1619376274.40655,4.281647,14.534260034561157
1619376274.42217,15.29834,14.549880027770996
1619376274.4378,23.53967,14.565510034561157
1619376274.45343,28.95474,14.581140041351318
1619376274.46905,31.54071,14.596760034561157
1619376274.48468,31.40079,14.612390041351318
1619376274.5003,28.90375,14.628010034561157
1619376274.51593,24.73248,14.643640041351318
1619376274.53155,19.77365,14.659260034561157
1619376274.54718,14.83313,14.674890041351318
1619376274.56281,10.4498,14.69052004814148
1619376274.57843,6.832428,14.706140041351318
1619376274.59406,3.969818,14.72177004814148
1619376274.60968,1.852295,14.737390041351318
1619376274.62531,0.5855408,14.75302004814148
1619376274.64094,0.343399,14.76865005493164
1619376274.65656,1.268585,14.78427004814148
1619376274.67219,3.282928,14.79990005493164
1619376274.68781,6.01149,14.81552004814148
1619376274.70344,8.839859,14.83115005493164
1619376274.71906,11.03995,14.84677004814148
1619376274.73469,11.94014,14.86240005493164
1619376274.75032,11.13544,14.878030061721802
1619376274.76594,8.556473,14.89365005493164
1619376274.78157,4.503738,14.909280061721802
1619376274.79719,-0.4299316,14.92490005493164
1619376274.81282,-5.548965,14.940530061721802
1619376274.82844,-10.29053,14.95615005493164
1619376274.84407,-14.34381,14.971780061721802
1619376274.8597,-17.76015,14.987410068511963
1619376274.87532,-20.92567,15.003030061721802
1619376274.89095,-24.39507,15.018660068511963
1619376274.90657,-28.7932,15.034280061721802
1619376274.9222,-34.55048,15.049910068511963
1619376274.93782,-41.72159,15.065530061721802
1619376274.95345,-49.77573,15.081160068511963
1619376274.96908,-57.51398,15.096790075302124
1619376274.9847,-63.20242,15.112410068511963
1619376275.00033,-64.95889,15.128040075302124
1619376275.01595,-61.35823,15.143660068511963
1619376275.03158,-51.88986,15.159290075302124
1619376275.0472,-37.17508,15.174910068511963
1619376275.06283,-18.76199,15.190540075302124
1619376275.07846,1.308578,15.206170082092285
1619376275.09408,21.0598,15.221790075302124
1619376275.10971,38.9234,15.237420082092285
1619376275.12533,53.88896,15.253040075302124
1619376275.14096,65.44589,15.268670082092285
1619376275.15658,73.37482,15.284290075302124
1619376275.17221,77.70419,15.299920082092285
1619376275.18784,78.6483,15.315550088882446
1619376275.20346,76.68108,15.331170082092285
1619376275.21909,72.48257,15.346800088882446
1619376275.23471,66.86765,15.362420082092285
1619376275.25034,60.64619,15.378050088882446
1619376275.26596,54.4584,15.393670082092285
1619376275.28159,48.68961,15.409300088882446
1619376275.29722,43.4315,15.424930095672607
1619376275.31284,38.61186,15.440550088882446
1619376275.32847,34.09935,15.456180095672607
1619376275.34409,29.86324,15.471800088882446
1619376275.35972,26.01227,15.487430095672607
1619376275.37534,22.76709,15.503050088882446
1619376275.39097,20.33516,15.518680095672607
1619376275.4066,18.77061,15.534310102462769
1619376275.42222,17.88504,15.549930095672607
1619376275.43785,17.21191,15.565560102462769
1619376275.45347,16.18611,15.581180095672607
1619376275.4691,14.25372,15.596810102462769
1619376275.48472,11.08324,15.612430095672607
1619376275.50035,6.664169,15.628060102462769
1619376275.51598,1.316513,15.64369010925293
1619376275.5316,-4.482178,15.659310102462769
1619376275.54723,-10.23692,15.67494010925293
1619376275.56285,-15.58829,15.690560102462769
1619376275.57848,-20.44904,15.70619010925293
1619376275.5941,-24.98543,15.721810102462769
1619376275.60973,-29.60652,15.73744010925293
1619376275.62536,-34.86517,15.75307011604309
1619376275.64098,-41.22906,15.76869010925293
1619376275.65661,-48.83069,15.78432011604309
1619376275.67223,-57.24309,15.79994010925293
1619376275.68786,-65.42445,15.81557011604309
1619376275.70348,-71.78629,15.83119010925293
1619376275.71911,-74.65679,15.84682011604309
1619376275.73474,-72.7745,15.862450122833252
1619376275.75036,-65.76017,15.87807011604309
1619376275.76599,-54.28905,15.893700122833252
1619376275.78161,-39.83435,15.90932011604309
1619376275.79724,-24.18195,15.924950122833252
1619376275.81286,-8.875885,15.94057011604309
1619376275.82849,5.067177,15.956200122833252
1619376275.84412,17.22208,15.971830129623413
1619376275.85974,27.55537,15.987450122833252
1619376275.87537,36.11231,16.003080129623413
1619376275.89099,42.78593,16.018700122833252
1619376275.90662,47.2719,16.034330129623413
1619376275.92224,49.27397,16.049950122833252
1619376275.93787,48.72674,16.065580129623413
1619376275.9535,46.04152,16.081210136413574
1619376275.96912,42.05614,16.096830129623413
1619376275.98475,37.82262,16.112460136413574
1619376276.00037,34.21883,16.128080129623413
1619376276.016,31.68717,16.143710136413574
1619376276.03162,30.09515,16.159330129623413
1619376276.04725,28.91921,16.174960136413574
1619376276.06288,27.55905,16.190590143203735
1619376276.0785,25.69123,16.206210136413574
1619376276.09413,23.35299,16.221840143203735
1619376276.10975,20.87774,16.237460136413574
1619376276.12538,18.60621,16.253090143203735
1619376276.141,16.65919,16.268710136413574
1619376276.15663,14.82864,16.284340143203735
1619376276.17226,12.69305,16.299970149993896
1619376276.18788,9.834307,16.315590143203735
1619376276.20351,6.063927,16.331220149993896
1619376276.21913,1.494864,16.346840143203735
1619376276.23476,-3.466751,16.362470149993896
1619376276.25038,-8.337978,16.378090143203735
1619376276.26601,-12.74037,16.393720149993896
1619376276.28164,-16.58265,16.409350156784058
1619376276.29726,-20.07783,16.424970149993896
1619376276.31289,-23.63276,16.440600156784058
1619376276.32851,-27.67916,16.456220149993896
1619376276.34414,-32.46285,16.471850156784058
1619376276.35976,-38.01102,16.487470149993896
1619376276.37539,-44.03106,16.503100156784058
1619376276.39102,-49.94365,16.51873016357422
1619376276.40664,-54.83533,16.534350156784058
1619376276.42227,-57.53943,16.54998016357422
1619376276.43789,-56.8368,16.565600156784058
1619376276.45352,-51.78442,16.58123016357422
1619376276.46914,-42.12762,16.596850156784058
1619376276.48477,-28.48633,16.61248016357422
1619376276.5004,-12.34004,16.62811017036438
1619376276.51602,4.382206,16.64373016357422
1619376276.53165,19.81784,16.65936017036438
1619376276.54727,32.70576,16.67498016357422
1619376276.5629,42.55064,16.69061017036438
1619376276.57852,49.60195,16.70623016357422
1619376276.59415,54.46295,16.72186017036438
1619376276.60978,57.6908,16.73749017715454
1619376276.6254,59.4566,16.75311017036438
1619376276.64103,59.59344,16.76874017715454
1619376276.65665,57.78561,16.78436017036438
1619376276.67228,53.91885,16.79999017715454
1619376276.6879,48.30614,16.81561017036438
1619376276.70353,41.67693,16.83124017715454
1619376276.71916,34.96064,16.846870183944702
1619376276.73478,28.92115,16.86249017715454
1619376276.75041,23.91944,16.878120183944702
1619376276.76603,19.82185,16.89374017715454
1619376276.78166,16.24538,16.909370183944702
1619376276.79728,12.85135,16.92499017715454
1619376276.81291,9.613403,16.940620183944702
1619376276.82854,6.742783,16.956250190734863
1619376276.84416,4.540375,16.971870183944702
1619376276.85979,3.09127,16.987500190734863
1619376276.87541,2.104706,17.003120183944702
1619376276.89104,0.9718018,17.018750190734863
1619376276.90667,-1.001816,17.034380197525024
1619376276.92229,-4.290665,17.050000190734863
1619376276.93792,-8.913742,17.065630197525024
1619376276.95354,-14.41484,17.081250190734863
1619376276.96917,-20.09547,17.096880197525024
1619376276.98479,-25.29562,17.112500190734863
1619376277.00042,-29.70288,17.128130197525024
1619376277.01605,-33.44724,17.143760204315186
1619376277.03167,-36.9736,17.159380197525024
1619376277.0473,-40.83348,17.175010204315186
1619376277.06292,-45.47818,17.190630197525024
1619376277.07855,-51.23659,17.206260204315186
1619376277.09417,-58.1946,17.221880197525024
1619376277.1098,-66.18132,17.237510204315186
1619376277.12543,-74.59831,17.253140211105347
1619376277.14105,-82.3033,17.268760204315186
1619376277.15668,-87.70953,17.284390211105347
1619376277.1723,-89.15144,17.300010204315186
1619376277.18793,-85.44154,17.315640211105347
1619376277.20355,-76.41812,17.331260204315186
1619376277.21918,-63.09264,17.346890211105347
1619376277.23481,-47.3118,17.362520217895508
1619376277.25043,-31.07687,17.378140211105347
1619376277.26606,-15.8786,17.393770217895508
1619376277.28168,-2.404495,17.409390211105347
1619376277.29731,9.273422,17.425020217895508
1619376277.31293,19.27942,17.440640211105347
1619376277.32856,27.50616,17.456270217895508
1619376277.34419,33.5134,17.47189998626709
1619376277.35981,36.8519,17.487520217895508
1619376277.37544,37.44456,17.50314998626709
1619376277.39106,35.81509,17.518770217895508
1619376277.40669,32.98508,17.53439998626709
1619376277.42231,30.10187,17.550020217895508
1619376277.43794,27.90526,17.56564998626709
1619376277.45357,26.54527,17.58127999305725
1619376277.46919,25.60954,17.59689998626709
1619376277.48482,24.49448,17.61252999305725
1619376277.50044,22.77832,17.62814998626709
1619376277.51607,20.48666,17.64377999305725
1619376277.53169,17.99149,17.65939998626709
1619376277.54732,15.74709,17.67502999305725
1619376277.56295,14.03276,17.690659999847412
1619376277.57857,12.66809,17.70627999305725
1619376277.5942,11.14713,17.721909999847412
1619376277.60982,8.820129,17.73752999305725
1619376277.62545,5.246216,17.753159999847412
1619376277.64107,0.418457,17.76877999305725
1619376277.6567,-5.162109,17.784409999847412
1619376277.67233,-10.72867,17.800040006637573
1619376277.68795,-15.59607,17.815659999847412
1619376277.70358,-19.46576,17.831290006637573
1619376277.7192,-22.58005,17.846909999847412
1619376277.73483,-25.61462,17.862540006637573
1619376277.75045,-29.37045,17.878159999847412
1619376277.76608,-34.4509,17.893790006637573
1619376277.78171,-41.03992,17.909420013427734
1619376277.79733,-48.90198,17.925040006637573
1619376277.81296,-57.45529,17.940670013427734
1619376277.82858,-65.86108,17.956290006637573
1619376277.84421,-73.11969,17.971920013427734
1619376277.85983,-78.06665,17.987540006637573
1619376277.87546,-79.5126,18.003170013427734
1619376277.89109,-76.46402,18.018800020217896
1619376277.90671,-68.46698,18.034420013427734
1619376277.92234,-55.80417,18.050050020217896
1619376277.93796,-39.57919,18.065670013427734
1619376277.95359,-21.47653,18.081300020217896
1619376277.96921,-3.291473,18.096920013427734
1619376277.98484,13.45853,18.112550020217896
1619376278.00047,27.83093,18.128180027008057
1619376278.01609,39.45972,18.143800020217896
1619376278.03172,48.39807,18.159430027008057
1619376278.04734,54.85791,18.175050020217896
1619376278.06297,59.02942,18.190680027008057
1619376278.07859,61.06335,18.206300020217896
1619376278.09422,61.10269,18.221930027008057
1619376278.10985,59.44009,18.237560033798218
1619376278.12547,56.52917,18.253180027008057
1619376278.1411,52.93176,18.268810033798218
1619376278.15672,49.13992,18.284430027008057
1619376278.17235,45.46536,18.300060033798218
1619376278.18797,41.97458,18.315680027008057
1619376278.2036,38.54309,18.331310033798218
1619376278.21923,35.08344,18.34694004058838
1619376278.23485,31.65433,18.362560033798218
1619376278.25048,28.48935,18.37819004058838
1619376278.2661,25.81061,18.393810033798218
1619376278.28173,23.65424,18.40944004058838
1619376278.29735,21.71918,18.425060033798218
1619376278.31298,19.45465,18.44069004058838
1619376278.32861,16.28604,18.45632004737854
1619376278.34423,11.8627,18.47194004058838
1619376278.35986,6.244629,18.48757004737854
1619376278.37548,-0.1138,18.50319004058838
1619376278.39111,-6.553894,18.51882004737854
1619376278.40673,-12.48471,18.53444004058838
1619376278.42236,-17.63925,18.55007004737854
1619376278.43799,-22.11978,18.5657000541687
1619376278.45361,-26.40991,18.58132004737854
1619376278.46924,-31.17673,18.5969500541687
1619376278.48486,-37.06201,18.61257004737854
1619376278.50049,-44.40872,18.6282000541687
1619376278.51611,-53.10461,18.64382004737854
1619376278.53174,-62.45508,18.6594500541687
1619376278.54737,-71.21262,18.675080060958862
1619376278.56299,-77.82468,18.6907000541687
1619376278.57862,-80.76968,18.706330060958862
1619376278.59424,-78.99332,18.7219500541687
1619376278.60987,-72.19125,18.737580060958862
1619376278.62549,-60.92038,18.7532000541687
1619376278.64112,-46.44159,18.768830060958862
1619376278.65675,-30.37994,18.784460067749023
1619376278.67237,-14.30008,18.800080060958862
1619376278.688,0.5733948,18.815710067749023
1619376278.70362,13.4584,18.831330060958862
1619376278.71925,23.89096,18.846960067749023
1619376278.73487,31.60071,18.862580060958862
1619376278.7505,36.40332,18.878210067749023
1619376278.76613,38.30402,18.893840074539185
1619376278.78175,37.53937,18.909460067749023
1619376278.79738,34.73584,18.925090074539185
1619376278.813,30.76108,18.940710067749023
1619376278.82863,26.53464,18.956340074539185
1619376278.84425,22.75421,18.971960067749023
1619376278.85988,19.74976,18.987590074539185
1619376278.87551,17.46448,19.003220081329346
1619376278.89113,15.61148,19.018840074539185
1619376278.90676,13.92157,19.034470081329346
1619376278.92238,12.27609,19.050090074539185
1619376278.93801,10.75897,19.065720081329346
1619376278.95363,9.569519,19.081340074539185
1619376278.96926,8.837952,19.096970081329346
1619376278.98489,8.495483,19.112600088119507
1619376279.00051,8.294037,19.128220081329346
1619376279.01614,7.820435,19.143850088119507
1619376279.03176,6.647339,19.159470081329346
1619376279.04739,4.416901,19.175100088119507
1619376279.06301,0.9679871,19.190720081329346
1619376279.07864,-3.652496,19.206350088119507
1619376279.09427,-9.272278,19.221980094909668
1619376279.10989,-15.67371,19.237600088119507
1619376279.12552,-22.72327,19.253230094909668
1619376279.14114,-30.35721,19.268850088119507
1619376279.15677,-38.64276,19.284480094909668
1619376279.17239,-47.57251,19.300100088119507
1619376279.18802,-57.0527,19.315730094909668
1619376279.20365,-66.79276,19.33136010169983
1619376279.21927,-76.30869,19.346980094909668
1619376279.2349,-84.86191,19.36261010169983
1619376279.25052,-91.5329,19.378230094909668
1619376279.26615,-95.22162,19.39386010169983
1619376279.28178,-94.84128,19.40949010848999
1619376279.2974,-89.56216,19.42511010169983
1619376279.31303,-79.04437,19.44074010848999
1619376279.32865,-63.68506,19.45636010169983
1619376279.34428,-44.61584,19.47199010848999
1619376279.3599,-23.48468,19.48761010169983
1619376279.37553,-2.003265,19.50324010848999
1619376279.39116,18.37027,19.51887011528015
1619376279.40678,36.71567,19.53449010848999
1619376279.42241,52.56662,19.55012011528015
1619376279.43803,65.7103,19.56574010848999
1619376279.45366,75.94525,19.58137011528015
1619376279.46928,83.02151,19.59699010848999
1619376279.48491,86.76245,19.61262011528015
1619376279.50054,87.29965,19.628250122070312
1619376279.51616,85.2796,19.64387011528015
1619376279.53179,81.76874,19.659500122070312
1619376279.54741,77.94446,19.67512011528015
1619376279.56304,74.63483,19.690750122070312
1619376279.57866,72.02277,19.70637011528015
1619376279.59429,69.63324,19.722000122070312
1619376279.60992,66.76456,19.737630128860474
1619376279.62554,62.95667,19.753250122070312
1619376279.64117,58.40356,19.768880128860474
1619376279.65679,53.93396,19.784500122070312
1619376279.67242,50.61099,19.800130128860474
1619376279.68804,49.18341,19.815750122070312
1619376279.70367,49.65591,19.831380128860474
1619376279.7193,51.19974,19.847010135650635
1619376279.73492,52.55557,19.862630128860474
1619376279.75055,52.67874,19.878260135650635
1619376279.76617,51.23178,19.893880128860474
1619376279.7818,48.72757,19.909510135650635
1619376279.79742,46.05151,19.925130128860474
1619376279.81305,43.82953,19.940760135650635
1619376279.82868,41.90131,19.956390142440796
1619376279.8443,39.29578,19.972010135650635
1619376279.85993,34.79089,19.987640142440796
1619376279.87555,27.75357,20.003260135650635
1619376279.89118,18.77545,20.018890142440796
1619376279.9068,9.659058,20.034510135650635
1619376279.92243,2.804779,20.050140142440796
1619376279.93806,0.2523193,20.065770149230957
1619376279.95368,2.937195,20.081390142440796
1619376279.96931,10.43854,20.097020149230957
1619376279.98493,21.34363,20.112640142440796
1619376280.00056,33.73218,20.128270149230957
1619376280.01618,45.7348,20.143890142440796
1619376280.03181,55.75107,20.159520149230957
1619376280.04744,62.55646,20.175150156021118
1619376280.06306,65.38242,20.190770149230957
1619376280.07869,64.06598,20.206400156021118
1619376280.09431,59.18127,20.222020149230957
1619376280.10994,51.8739,20.237650156021118
1619376280.12556,43.50974,20.253270149230957
1619376280.14119,35.12668,20.268900156021118
1619376280.15682,27.18637,20.28453016281128
1619376280.17244,19.58228,20.300150156021118
1619376280.18807,11.94513,20.31578016281128
1619376280.20369,4.08606,20.331400156021118
1619376280.21932,-3.846802,20.34703016281128
1619376280.23494,-11.42633,20.362650156021118
1619376280.25057,-18.3374,20.37828016281128
1619376280.2662,-24.72656,20.39391016960144
1619376280.28182,-31.35651,20.40953016281128
1619376280.29745,-39.41559,20.42516016960144
1619376280.31307,-49.94733,20.44078016281128
1619376280.3287,-62.99097,20.45641016960144
1619376280.34432,-76.86316,20.47203016281128
1619376280.35995,-87.96472,20.48766016960144
1619376280.37558,-91.77032,20.5032901763916
1619376280.3912,-84.69708,20.51891016960144
1619376280.40683,-66.26373,20.5345401763916
1619376280.42245,-40.32898,20.55016016960144
1619376280.43808,-14.42328,20.5657901763916
1619376280.4537,2.725342,20.58141016960144
1619376280.46933,4.456482,20.5970401763916
1619376280.48496,-11.27722,20.612670183181763
1619376280.50058,-41.35852,20.6282901763916
1619376280.51621,-79.27063,20.643920183181763
1619376280.53183,-117.9149,20.6595401763916
1619376280.54746,-152.2238,20.675170183181763
1619376280.56308,-180.2266,20.6907901763916
1619376280.57871,-202.4373,20.706420183181763
1619376280.59434,-220.2032,20.722050189971924
1619376280.60996,-234.3259,20.737670183181763
1619376280.62559,-244.4655,20.753300189971924
1619376280.64121,-249.6112,20.768920183181763
1619376280.65684,-248.9642,20.784550189971924
1619376280.67246,-242.5762,20.800170183181763
1619376280.68809,-231.4884,20.815800189971924
1619376280.70372,-217.2383,20.831430196762085
1619376280.71934,-201.193,20.847050189971924
1619376280.73497,-183.9348,20.862680196762085
1619376280.75059,-165.1836,20.878300189971924
1619376280.76622,-144.1989,20.893930196762085
1619376280.78184,-120.5645,20.909550189971924
1619376280.79747,-94.8421,20.925180196762085
1619376280.8131,-68.76746,20.940810203552246
1619376280.82872,-44.79712,20.956430196762085
1619376280.84435,-25.23016,20.972060203552246
1619376280.85997,-11.30615,20.987680196762085
1619376280.8756,-2.818115,21.003310203552246
1619376280.89122,1.721436,21.018930196762085
1619376280.90685,4.347046,21.034560203552246
1619376280.92248,6.735657,21.050190210342407
1619376280.9381,9.648285,21.065810203552246
1619376280.95373,12.88177,21.081440210342407
1619376280.96935,15.73489,21.097060203552246
1619376280.98498,17.54681,21.112690210342407
1619376281.0006,18.23245,21.128310203552246
1619376281.01623,18.28583,21.143940210342407
1619376281.03186,18.58054,21.15957021713257
1619376281.04748,19.90637,21.175190210342407
1619376281.06311,22.57205,21.19082021713257
1619376281.07873,26.1962,21.206440210342407
1619376281.09436,29.74829,21.22207021713257
1619376281.10998,31.89676,21.237690210342407
1619376281.12561,31.4303,21.25332021713257
1619376281.14124,27.75583,21.26894998550415
1619376281.15686,21.20166,21.28457021713257
1619376281.17249,12.87888,21.30019998550415
1619376281.18811,4.25415,21.31582021713257
1619376281.20374,-3.454285,21.33144998550415
1619376281.21936,-9.795441,21.34707021713257
1619376281.23499,-15.22009,21.36269998550415
1619376281.25062,-20.74902,21.37832999229431
1619376281.26624,-27.48692,21.39394998550415
1619376281.28187,-36.16042,21.40957999229431
1619376281.29749,-46.83592,21.42519998550415
1619376281.31312,-58.99535,21.44082999229431
1619376281.32874,-71.61618,21.45644998550415
1619376281.34437,-83.25122,21.47207999229431
1619376281.36,-92.13148,21.487709999084473
1619376281.37562,-96.39468,21.50332999229431
1619376281.39125,-94.48209,21.518959999084473
1619376281.40687,-85.59463,21.53457999229431
1619376281.4225,-70.08224,21.550209999084473
1619376281.43812,-49.39256,21.56582999229431
1619376281.45375,-25.70988,21.581459999084473
1619376281.46938,-1.290855,21.597090005874634
1619376281.485,22.04232,21.612709999084473
1619376281.50063,43.14211,21.628340005874634
1619376281.51625,61.41847,21.643959999084473
1619376281.53188,76.589,21.659590005874634
1619376281.5475,88.4043,21.675209999084473
1619376281.56313,96.70389,21.690840005874634
1619376281.57876,101.5441,21.706470012664795
1619376281.59438,103.325,21.722090005874634
1619376281.61001,102.8708,21.737720012664795
1619376281.62563,101.2116,21.753340005874634
1619376281.64126,99.19308,21.768970012664795
1619376281.65688,97.30492,21.784590005874634
1619376281.67251,95.57808,21.800220012664795
1619376281.68814,93.71165,21.815850019454956
1619376281.70376,91.38383,21.831470012664795
1619376281.71939,88.49364,21.847100019454956
1619376281.73501,85.19629,21.862720012664795
1619376281.75064,81.87285,21.878350019454956
1619376281.76627,78.8233,21.893980026245117
1619376281.78189,76.04361,21.909600019454956
1619376281.79752,73.18315,21.925230026245117
1619376281.81314,69.64098,21.940850019454956
1619376281.82877,64.8078,21.956480026245117
1619376281.84439,58.35509,21.972100019454956
1619376281.86002,50.37852,21.987730026245117
1619376281.87565,41.37656,22.00336003303528
1619376281.89127,32.05338,22.018980026245117
1619376281.9069,23.03012,22.03461003303528
1619376281.92252,14.63135,22.050230026245117
1619376281.93815,6.864288,22.06586003303528
1619376281.95377,-0.5432129,22.081480026245117
1619376281.9694,-8.034271,22.09711003303528
1619376281.98503,-16.02341,22.11274003982544
1619376282.00065,-24.89127,22.12836003303528
1619376282.01628,-34.84769,22.14399003982544
1619376282.0319,-45.78845,22.15961003303528
1619376282.04753,-57.13089,22.17524003982544
1619376282.06315,-67.70587,22.19086003303528
1619376282.07878,-75.81061,22.20649003982544
1619376282.09441,-79.56577,22.2221200466156
1619376282.11003,-77.41968,22.23774003982544
1619376282.12566,-68.64038,22.2533700466156
1619376282.14128,-53.62698,22.26899003982544
1619376282.15691,-33.83136,22.2846200466156
1619376282.17253,-11.37045,22.30024003982544
1619376282.18816,11.54709,22.3158700466156
1619376282.20379,33.0542,22.33150005340576
1619376282.21941,51.88132,22.3471200466156
1619376282.23504,67.30801,22.36275005340576
1619376282.25066,79.06049,22.3783700466156
1619376282.26629,87.14282,22.39400005340576
1619376282.28191,91.74448,22.4096200466156
1619376282.29754,93.25238,22.42525005340576
1619376282.31317,92.20239,22.440880060195923
1619376282.32879,89.25256,22.45650005340576
1619376282.34442,85.08841,22.472130060195923
1619376282.36004,80.29031,22.48775005340576
1619376282.37567,75.25046,22.503380060195923
1619376282.39129,70.15955,22.51900005340576
1619376282.40692,65.07642,22.534630060195923
1619376282.42255,60.01114,22.550260066986084
1619376282.43817,54.99136,22.565880060195923
1619376282.4538,50.2002,22.581510066986084
1619376282.46942,45.91565,22.597130060195923
1619376282.48505,42.43042,22.612760066986084
1619376282.50067,39.80554,22.628380060195923
1619376282.5163,37.82391,22.644010066986084
1619376282.53193,35.93555,22.659640073776245
1619376282.54755,33.41205,22.675260066986084
1619376282.56318,29.6936,22.690890073776245
1619376282.5788,24.55475,22.706510066986084
1619376282.59443,18.22363,22.722140073776245
1619376282.61005,11.25043,22.737760066986084
1619376282.62568,4.221741,22.753390073776245
1619376282.64131,-2.497559,22.769020080566406
1619376282.65693,-8.880554,22.784640073776245
1619376282.67256,-15.20642,22.800270080566406
1619376282.68818,-21.92444,22.815890073776245
1619376282.70381,-29.46094,22.831520080566406
1619376282.71943,-38.1051,22.847140073776245
1619376282.73506,-47.90039,22.862770080566406
1619376282.75069,-58.42023,22.878400087356567
1619376282.76631,-68.68427,22.894020080566406
1619376282.78194,-77.13037,22.909650087356567
1619376282.79756,-81.87927,22.925270080566406
1619376282.81319,-81.216,22.940900087356567
1619376282.82881,-74.17206,22.956520080566406
1619376282.84444,-60.87415,22.972150087356567
1619376282.86007,-42.60675,22.98778009414673
1619376282.87569,-21.38269,23.003400087356567
1619376282.89132,0.6251831,23.01903009414673
1619376282.90694,21.58929,23.034650087356567
1619376282.92257,40.33203,23.05028009414673
1619376282.93819,56.20673,23.065900087356567
1619376282.95382,68.87561,23.08153009414673
1619376282.96945,78.09485,23.09716010093689
1619376282.98507,83.70776,23.11278009414673
1619376283.0007,85.77106,23.12841010093689
1619376283.01632,84.71307,23.14403009414673
1619376283.03195,81.41345,23.15966010093689
1619376283.04757,76.97839,23.17528009414673
1619376283.0632,72.46942,23.19091010093689
1619376283.07883,68.53571,23.20654010772705
1619376283.09445,65.24957,23.22216010093689
1619376283.11008,62.23419,23.23779010772705
1619376283.1257,58.99231,23.25341010093689
1619376283.14133,55.26996,23.26904010772705
1619376283.15695,51.20459,23.28466010093689
1619376283.17258,47.28735,23.30029010772705
1619376283.18821,43.98169,23.315920114517212
1619376283.20383,41.47784,23.33154010772705
1619376283.21946,39.48352,23.347170114517212
1619376283.23508,37.32477,23.36279010772705
1619376283.25071,34.25159,23.378420114517212
1619376283.26633,29.76697,23.39404010772705
1619376283.28196,23.82837,23.409670114517212
1619376283.29759,16.78638,23.425300121307373
1619376283.31321,9.225037,23.440920114517212
1619376283.32884,1.695129,23.456550121307373
1619376283.34446,-5.440979,23.472170114517212
1619376283.36009,-12.11676,23.487800121307373
1619376283.37571,-18.48468,23.503420114517212
1619376283.39134,-24.85681,23.519050121307373
1619376283.40697,-31.60974,23.534680128097534
1619376283.42259,-39.07611,23.550300121307373
1619376283.43822,-47.49152,23.565930128097534
1619376283.45384,-56.84082,23.581550121307373
1619376283.46947,-66.68042,23.597180128097534
1619376283.48509,-75.98676,23.612800121307373
1619376283.50072,-83.15637,23.628430128097534
1619376283.51635,-86.31519,23.644060134887695
1619376283.53197,-83.78998,23.659680128097534
1619376283.5476,-74.71417,23.675310134887695
1619376283.56322,-59.35876,23.690930128097534
1619376283.57885,-39.17682,23.706560134887695
1619376283.59447,-16.38995,23.722180128097534
1619376283.6101,6.661255,23.737810134887695
1619376283.62573,28.09534,23.753440141677856
1619376283.64135,46.79553,23.769060134887695
1619376283.65698,62.30621,23.784690141677856
1619376283.6726,74.56091,23.800310134887695
1619376283.68823,83.52014,23.815940141677856
1619376283.70385,89.10596,23.831560134887695
1619376283.71948,91.2804,23.847190141677856
1619376283.73511,90.27124,23.862820148468018
1619376283.75073,86.71112,23.878440141677856
1619376283.76636,81.54333,23.894070148468018
1619376283.78198,75.82721,23.909690141677856
1619376283.79761,70.40314,23.925320148468018
1619376283.81323,65.71594,23.940940141677856
1619376283.82886,61.74329,23.956570148468018
1619376283.84449,58.20056,23.97220015525818
1619376283.86011,54.7157,23.987820148468018
1619376283.87574,51.09436,24.00345015525818
1619376283.89136,47.36133,24.019070148468018
1619376283.90699,43.71008,24.03470015525818
1619376283.92261,40.35217,24.050320148468018
1619376283.93824,37.33313,24.06595015525818
1619376283.95387,34.46179,24.08158016204834
1619376283.96949,31.28558,24.09720015525818
1619376283.98512,27.27087,24.11283016204834
1619376284.00074,22.00739,24.12845015525818
1619376284.01637,15.38348,24.14408016204834
1619376284.032,7.638184,24.1597101688385
1619376284.04762,-0.7075195,24.17533016204834
1619376284.06325,-9.050598,24.1909601688385
1619376284.07887,-16.93323,24.20658016204834
1619376284.0945,-24.16724,24.2222101688385
1619376284.11012,-30.8844,24.23783016204834
1619376284.12575,-37.4325,24.2534601688385
1619376284.14138,-44.24146,24.269090175628662
1619376284.157,-51.70508,24.2847101688385
1619376284.17263,-60.01556,24.300340175628662
1619376284.18825,-69.07928,24.3159601688385
1619376284.20388,-78.29578,24.331590175628662
1619376284.2195,-86.54169,24.3472101688385
1619376284.23513,-92.21136,24.362840175628662
1619376284.25076,-93.55573,24.378470182418823
1619376284.26638,-89.1554,24.394090175628662
1619376284.28201,-78.41602,24.409720182418823
1619376284.29763,-61.87476,24.425340175628662
1619376284.31326,-41.09204,24.440970182418823
1619376284.32888,-18.26385,24.456590175628662
1619376284.34451,4.426147,24.472220182418823
1619376284.36014,25.2699,24.487850189208984
1619376284.37576,43.27563,24.503470182418823
1619376284.39139,58.04419,24.519100189208984
1619376284.40701,69.51843,24.534720182418823
1619376284.42264,77.75323,24.550350189208984
1619376284.43826,82.78925,24.565970182418823
1619376284.45389,84.78375,24.581600189208984
1619376284.46952,84.10107,24.597230195999146
1619376284.48514,81.35455,24.612850189208984
1619376284.50077,77.33344,24.628480195999146
1619376284.51639,72.79321,24.644100189208984
1619376284.53202,68.26038,24.659730195999146
1619376284.54764,63.9292,24.675350189208984
1619376284.56327,59.75458,24.690980195999146
1619376284.5789,55.5824,24.706610202789307
1619376284.59452,51.35712,24.722230195999146
1619376284.61015,47.16333,24.737860202789307
1619376284.62577,43.19415,24.753480195999146
1619376284.6414,39.66119,24.769110202789307
1619376284.65702,36.65063,24.784730195999146
1619376284.67265,34.09253,24.800360202789307
1619376284.68828,31.7417,24.815990209579468
1619376284.7039,29.26721,24.831610202789307
1619376284.71953,26.29749,24.847240209579468
1619376284.73515,22.49219,24.862860202789307
1619376284.75078,17.61804,24.878490209579468
1619376284.7664,11.60284,24.894110202789307
1619376284.78203,4.620667,24.909740209579468
1619376284.79766,-2.932373,24.92537021636963
1619376284.81328,-10.52911,24.940990209579468
1619376284.82891,-17.67706,24.95662021636963
1619376284.84453,-24.12396,24.972240209579468
1619376284.86016,-29.94379,24.98787021636963
1619376284.87578,-35.50916,25.003490209579468
1619376284.89141,-41.35736,25.01912021636963
1619376284.90704,-47.96979,25.03475022315979
1619376284.92266,-55.57111,25.05037021636963
1619376284.93829,-64.02057,25.06600022315979
1619376284.95391,-72.72546,25.08162021636963
1619376284.96954,-80.57465,25.09725022315979
1619376284.98516,-86.10754,25.11287021636963
1619376285.00079,-87.70496,25.12850022315979
1619376285.01642,-84.01697,25.144129991531372
1619376285.03204,-74.41119,25.15975022315979
1619376285.04767,-59.28851,25.175379991531372
1619376285.06329,-40.0791,25.19100022315979
1619376285.07892,-18.92346,25.206629991531372
1619376285.09454,1.92511,25.22225022315979
1619376285.11017,20.68097,25.237879991531372
1619376285.1258,36.27124,25.253509998321533
1619376285.14142,48.32465,25.269129991531372
1619376285.15705,56.90359,25.284759998321533
1619376285.17267,62.19852,25.300379991531372
1619376285.1883,64.4169,25.316009998321533
1619376285.20392,63.82462,25.331629991531372
1619376285.21955,60.93896,25.347259998321533
1619376285.23518,56.54767,25.362890005111694
1619376285.2508,51.59204,25.378509998321533
1619376285.26643,46.89532,25.394140005111694
1619376285.28205,42.89938,25.409759998321533
1619376285.29768,39.61621,25.425390005111694
1619376285.3133,36.71381,25.441009998321533
1619376285.32893,33.79416,25.456640005111694
1619376285.34456,30.60672,25.472270011901855
1619376285.36018,27.22507,25.487890005111694
1619376285.37581,23.96948,25.503520011901855
1619376285.39143,21.258,25.519140005111694
1619376285.40706,19.35443,25.534770011901855
1619376285.42268,18.18402,25.550390005111694
1619376285.43831,17.31244,25.566020011901855
1619376285.45394,16.07104,25.581650018692017
1619376285.46956,13.85052,25.597270011901855
1619376285.48519,10.32962,25.612900018692017
1619376285.50081,5.690216,25.628520011901855
1619376285.51644,0.5412598,25.644150018692017
1619376285.53206,-4.357239,25.659770011901855
1619376285.54769,-8.451263,25.675400018692017
1619376285.56332,-11.69754,25.691030025482178
1619376285.57894,-14.55988,25.706650018692017
1619376285.59457,-17.78427,25.722280025482178
1619376285.61019,-22.03738,25.737900018692017
1619376285.62582,-27.63934,25.753530025482178
1619376285.64144,-34.51239,25.769150018692017
1619376285.65707,-42.2999,25.784780025482178
1619376285.6727,-50.43936,25.80041003227234
1619376285.68832,-58.11487,25.816030025482178
1619376285.70395,-64.23328,25.83166003227234
1619376285.71957,-67.40082,25.847280025482178
1619376285.7352,-66.26334,25.86291003227234
1619376285.75082,-60.01093,25.878530025482178
1619376285.76645,-48.79559,25.89416003227234
1619376285.78208,-33.91046,25.9097900390625
1619376285.7977,-17.31195,25.92541003227234
1619376285.81333,-1.00235,25.9410400390625
1619376285.82895,13.66849,25.95666003227234
1619376285.84458,26.15747,25.9722900390625
1619376285.8602,36.54761,25.98791003227234
1619376285.87583,44.97235,26.0035400390625
1619376285.89146,51.31387,26.01917004585266
1619376285.90708,55.17151,26.0347900390625
1619376285.92271,56.1785,26.05042004585266
1619376285.93833,54.38107,26.0660400390625
1619376285.95396,50.42754,26.08167004585266
1619376285.96958,45.40988,26.0972900390625
1619376285.98521,40.55444,26.11292004585266
1619376286.00084,36.99002,26.128550052642822
1619376286.01646,35.6804,26.14417004585266
1619376286.03209,37.41524,26.159800052642822
1619376286.04771,42.78145,26.17542004585266
1619376286.06334,51.9427,26.191050052642822
1619376286.07896,64.41972,26.20667004585266
1619376286.09459,79.04266,26.222300052642822
1619376286.11022,94.19601,26.237930059432983
1619376286.12584,108.2191,26.253550052642822
1619376286.14147,119.8862,26.269180059432983
1619376286.15709,128.5297,26.284800052642822
1619376286.17272,133.8912,26.300430059432983
1619376286.18834,135.8718,26.316050052642822
1619376286.20397,134.4263,26.331680059432983
1619376286.2196,129.7118,26.347310066223145
1619376286.23522,122.369,26.362930059432983
1619376286.25085,113.5597,26.378560066223145
1619376286.26647,104.639,26.394180059432983
1619376286.2821,96.54651,26.409810066223145
1619376286.29772,89.25584,26.425430059432983
1619376286.31335,81.77451,26.441060066223145
1619376286.32898,72.73834,26.456690073013306
1619376286.3446,61.28701,26.472310066223145
1619376286.36023,47.62505,26.487940073013306
1619376286.37585,32.95676,26.503560066223145
1619376286.39148,18.91428,26.519190073013306
1619376286.4071,6.752865,26.534810066223145
1619376286.42273,-3.187691,26.550440073013306
1619376286.43836,-11.41341,26.566070079803467
1619376286.45398,-18.81213,26.581690073013306
1619376286.46961,-26.21633,26.597320079803467
1619376286.48523,-34.20992,26.612940073013306
1619376286.50086,-43.19615,26.628570079803467
1619376286.51648,-53.32402,26.644190073013306
1619376286.53211,-64.00656,26.659820079803467
1619376286.54774,-73.5217,26.675450086593628
1619376286.56336,-79.0097,26.691070079803467
1619376286.57899,-77.41539,26.706700086593628
1619376286.59461,-66.97366,26.722320079803467
1619376286.61024,-48.68324,26.737950086593628
1619376286.62587,-26.61337,26.75358009338379
1619376286.64149,-6.725418,26.769200086593628
1619376286.65712,5.287628,26.78483009338379
1619376286.67274,6.184143,26.800450086593628
1619376286.68837,-3.900452,26.81608009338379
1619376286.70399,-22.00314,26.831700086593628
1619376286.71962,-43.89441,26.84733009338379
1619376286.73525,-65.74936,26.86296010017395
1619376286.75087,-85.11038,26.87858009338379
1619376286.7665,-100.8825,26.89421010017395
1619376286.78212,-112.7535,26.90983009338379
1619376286.79775,-120.7072,26.92546010017395
1619376286.81337,-124.849,26.94108009338379
1619376286.829,-125.5378,26.95671010017395
1619376286.84463,-123.508,26.97234010696411
1619376286.86025,-119.837,26.98796010017395
1619376286.87588,-115.7768,27.00359010696411
1619376286.8915,-112.3662,27.01921010017395
1619376286.90713,-110.1585,27.03484010696411
1619376286.92275,-109.0818,27.05046010017395
1619376286.93838,-108.556,27.06609010696411
1619376286.95401,-107.8145,27.081720113754272
1619376286.96963,-106.3109,27.09734010696411
1619376286.98526,-104.0045,27.112970113754272
1619376287.00088,-101.4181,27.12859010696411
1619376287.01651,-99.43127,27.144220113754272
1619376287.03213,-98.8176,27.15984010696411
1619376287.04776,-99.86737,27.175470113754272
1619376287.06339,-102.1797,27.191100120544434
1619376287.07901,-104.8861,27.206720113754272
1619376287.09464,-107.0464,27.222350120544434
1619376287.11026,-108.107,27.237970113754272
1619376287.12589,-108.2123,27.253600120544434
1619376287.14151,-108.1314,27.269220113754272
1619376287.15714,-108.835,27.284850120544434
1619376287.17277,-110.952,27.300480127334595
1619376287.18839,-114.215,27.316100120544434
1619376287.20402,-117.2664,27.331730127334595
1619376287.21964,-118.0131,27.347350120544434
1619376287.23527,-114.3261,27.362980127334595
1619376287.25089,-104.8499,27.378600120544434
1619376287.26652,-89.5434,27.394230127334595
1619376287.28215,-69.7124,27.409860134124756
1619376287.29777,-47.46912,27.425480127334595
1619376287.3134,-25.10986,27.441110134124756
1619376287.32902,-4.476624,27.456730127334595
1619376287.34465,13.31854,27.472360134124756
1619376287.36027,27.84766,27.487980127334595
1619376287.3759,39.04504,27.503610134124756
1619376287.39153,47.03925,27.519240140914917
1619376287.40715,52.0025,27.534860134124756
1619376287.42278,54.229,27.550490140914917
1619376287.4384,54.24274,27.566110134124756
1619376287.45403,52.75336,27.581740140914917
1619376287.46965,50.5246,27.597360134124756
1619376287.48528,48.16626,27.612990140914917
1619376287.50091,45.99231,27.628620147705078
1619376287.51653,43.98984,27.644240140914917
1619376287.53216,41.98157,27.659870147705078
1619376287.54778,39.73233,27.675490140914917
1619376287.56341,37.13547,27.691120147705078
1619376287.57903,34.25385,27.706740140914917
1619376287.59466,31.22531,27.722370147705078
1619376287.61029,28.18396,27.73800015449524
1619376287.62591,25.19318,27.753620147705078
1619376287.64154,22.21854,27.76925015449524
1619376287.65716,19.15219,27.784870147705078
1619376287.67279,15.87158,27.80050015449524
1619376287.68841,12.2381,27.816120147705078
1619376287.70404,8.081268,27.83175015449524
1619376287.71967,3.27179,27.8473801612854
1619376287.73529,-2.210846,27.86300015449524
1619376287.75092,-8.274323,27.8786301612854
1619376287.76654,-14.63605,27.89425015449524
1619376287.78217,-20.99982,27.9098801612854
1619376287.79779,-27.13403,27.92550015449524
1619376287.81342,-32.95465,27.9411301612854
1619376287.82905,-38.50854,27.95676016807556
1619376287.84467,-43.96777,27.9723801612854
1619376287.8603,-49.54144,27.98801016807556
1619376287.87592,-55.4744,28.0036301612854
1619376287.89155,-62.00269,28.01926016807556
1619376287.90717,-69.21771,28.0348801612854
1619376287.9228,-76.86804,28.05051016807556
1619376287.93843,-84.16602,28.066140174865723
1619376287.95405,-89.74142,28.08176016807556
1619376287.96968,-91.88953,28.097390174865723
1619376287.9853,-89.12192,28.11301016807556
1619376288.00093,-80.68683,28.128640174865723
1619376288.01655,-66.98587,28.14426016807556
1619376288.03218,-49.44174,28.159890174865723
1619376288.04781,-30.03934,28.175520181655884
1619376288.06343,-10.73499,28.191140174865723
1619376288.07906,7.031342,28.206770181655884
1619376288.09468,22.45114,28.222390174865723
1619376288.11031,35.16028,28.238020181655884
1619376288.12593,44.98196,28.253640174865723
1619376288.14156,51.75824,28.269270181655884
1619376288.15719,55.39307,28.284900188446045
1619376288.17281,55.98639,28.300520181655884
1619376288.18844,54.02704,28.316150188446045
1619376288.20406,50.3801,28.331770181655884
1619376288.21969,46.09042,28.347400188446045
1619376288.23531,42.13406,28.363020181655884
1619376288.25094,39.06363,28.378650188446045
1619376288.26657,36.92563,28.394280195236206
1619376288.28219,35.27753,28.409900188446045
1619376288.29782,33.49225,28.425530195236206
1619376288.31344,31.05295,28.441150188446045
1619376288.32907,27.81033,28.456780195236206
1619376288.34469,24.08194,28.472400188446045
1619376288.36032,20.43182,28.488030195236206
1619376288.37595,17.39743,28.503660202026367
1619376288.39157,15.18365,28.519280195236206
1619376288.4072,13.58762,28.534910202026367
1619376288.42282,12.05942,28.550530195236206
1619376288.43845,9.989746,28.566160202026367
1619376288.45407,6.934723,28.581780195236206
1619376288.4697,2.751923,28.597410202026367
1619376288.48533,-2.40683,28.61304020881653
1619376288.50095,-8.231812,28.628660202026367
1619376288.51658,-14.38379,28.64429020881653
1619376288.5322,-20.59589,28.659910202026367
1619376288.54783,-26.69641,28.67554020881653
1619376288.56345,-32.6265,28.691160202026367
1619376288.57908,-38.47192,28.70679020881653
1619376288.59471,-44.4751,28.72242021560669
1619376288.61033,-50.99411,28.73804020881653
1619376288.62596,-58.3663,28.75367021560669
1619376288.64158,-66.67078,28.76929020881653
1619376288.65721,-75.439,28.78492021560669
1619376288.67283,-83.50969,28.80054020881653
1619376288.68846,-89.1449,28.81617021560669
1619376288.70409,-90.43045,28.83180022239685
1619376288.71971,-85.90132,28.84742021560669
1619376288.73534,-75.09845,28.86305022239685
1619376288.75096,-58.80527,28.87867021560669
1619376288.76659,-38.77859,28.89430022239685
1619376288.78221,-17.24883,28.90992021560669
1619376288.79784,3.756287,28.92555022239685
1619376288.81347,22.83902,28.941179990768433
1619376288.82909,39.24846,28.95680022239685
1619376288.84472,52.68254,28.972429990768433
1619376288.86034,62.95795,28.98805022239685
1619376288.87597,69.88434,29.003679990768433
1619376288.8916,73.31131,29.019309997558594
1619376288.90722,73.41901,29.034929990768433
1619376288.92285,70.82541,29.050559997558594
1619376288.93847,66.55447,29.066179990768433
1619376288.9541,61.75017,29.081809997558594
1619376288.96972,57.30461,29.097429990768433
1619376336.96637,0.0,77.09408020973206
1619376336.98199,0.0,77.1097002029419
1619376336.99762,0.0,77.12533020973206
1619376337.01325,0.0,77.14096021652222
1619376337.02887,0.0,77.15658020973206
1619376337.0445,0.0,77.17221021652222
1619376337.06012,0.0,77.18783020973206
1619376337.07575,0.0,77.20346021652222
1619376337.09137,0.0,77.21908020973206
1619376337.107,-0.005491404,77.23471021652222
1619376337.12263,-0.002231535,77.2503399848938
1619376337.13825,0.004516993,77.26596021652222
1619376337.15388,0.01126552,77.2815899848938
1619376337.1695,0.01138395,77.29721021652222
1619376337.18513,-0.001186451,77.3128399848938
1619376337.20075,-0.02591031,77.32846021652222
1619376337.21638,-0.05063419,77.3440899848938
1619376337.23201,-0.05136289,77.35971999168396
1619376337.24763,-0.003998424,77.3753399848938
1619376337.26326,0.1302426,77.39096999168396
1619376337.27888,0.3556276,77.4065899848938
1619376337.29451,0.6591247,77.42221999168396
1619376337.31013,1.00951,77.4378399848938
1619376337.32576,1.370983,77.45346999168396
1619376337.34139,1.719736,77.46909999847412
1619376337.35701,2.05511,77.48471999168396
1619376337.37264,2.39945,77.50034999847412
1619376337.38826,2.773243,77.51596999168396
1619376337.40389,3.239906,77.53159999847412
1619376337.41951,3.79601,77.54721999168396
1619376337.43514,4.418681,77.56284999847412
1619376337.45077,5.059289,77.57848000526428
1619376337.46639,5.664405,77.59409999847412
1619376337.48202,6.202148,77.60973000526428
1619376337.49764,6.680872,77.62534999847412
1619376337.51327,7.14959,77.64098000526428
1619376337.52889,7.641249,77.65659999847412
1619376337.54452,8.310726,77.67223000526428
1619376337.56015,9.143642,77.68786001205444
1619376337.57577,10.08972,77.70348000526428
1619376337.5914,11.0413,77.71911001205444
1619376337.60702,11.88419,77.73473000526428
1619376337.62265,12.5643,77.75036001205444
1619376337.63827,13.13561,77.76598000526428
1619376337.6539,13.76002,77.78161001205444
1619376337.66953,14.57644,77.7972400188446
1619376337.68515,15.96203,77.81286001205444
1619376337.70078,17.91442,77.8284900188446
1619376337.7164,20.31727,77.84411001205444
1619376337.73203,22.90382,77.8597400188446
1619376337.74765,25.37944,77.87536001205444
1619376337.76328,27.578,77.8909900188446
1619376337.77891,29.57242,77.90662002563477
1619376337.79453,31.67513,77.9222400188446
1619376337.81016,34.19698,77.93787002563477
1619376337.82578,37.81357,77.9534900188446
1619376337.84141,42.54118,77.96912002563477
1619376337.85703,48.14624,77.9847400188446
1619376337.87266,54.10469,78.00037002563477
1619376337.88829,59.83302,78.01600003242493
1619376337.90391,64.9723,78.03162002563477
1619376337.91954,69.58284,78.04725003242493
1619376337.93516,74.14344,78.06287002563477
1619376337.95079,79.188,78.07850003242493
1619376337.96641,85.70715,78.09412002563477
1619376337.98204,93.76179,78.10975003242493
1619376337.99767,102.9976,78.12538003921509
1619376338.01329,112.6174,78.14100003242493
1619376338.02892,121.7302,78.15663003921509
1619376338.04454,129.7658,78.17225003242493
1619376338.06017,136.7508,78.18788003921509
1619376338.0758,144.2928,78.20351004600525
1619376338.09142,150.5753,78.21913003921509
1619376338.10705,157.7733,78.23476004600525
1619376338.12267,166.643,78.25038003921509
1619376338.1383,177.9477,78.26601004600525
1619376338.15392,191.7907,78.28163003921509
1619376338.16955,206.9678,78.29726004600525
1619376338.18518,220.5656,78.31289005279541
1619376338.2008,228.2461,78.32851004600525
1619376338.21643,225.3611,78.34414005279541
1619376338.23205,208.3747,78.35976004600525
1619376338.24768,176.8698,78.37539005279541
1619376338.2633,132.7617,78.39101004600525
1619376338.27893,80.04948,78.40664005279541
1619376338.29456,23.06876,78.42227005958557
1619376338.31018,-34.94388,78.43789005279541
1619376338.32581,-92.43747,78.45352005958557
1619376338.34143,-149.1574,78.46914005279541
1619376338.35706,-205.2281,78.48477005958557
1619376338.37268,-260.4907,78.50039005279541
1619376338.38831,-313.7415,78.51602005958557
1619376338.40394,-363.874,78.53165006637573
1619376338.41956,-409.8334,78.54727005958557
1619376338.43519,-450.9076,78.56290006637573
1619376338.45081,-486.5021,78.57852005958557
1619376338.46644,-515.7379,78.59415006637573
1619376338.48206,-537.2267,78.60977005958557
1619376338.49769,-549.2189,78.62540006637573
1619376338.51332,-550.0359,78.6410300731659
1619376338.52894,-538.3655,78.65665006637573
1619376338.54457,-514.2039,78.6722800731659
1619376338.56019,-478.6724,78.68790006637573
1619376338.57582,-433.8777,78.7035300731659
1619376338.59144,-382.4495,78.71915006637573
1619376338.60707,-327.0194,78.7347800731659
1619376338.6227,-269.8403,78.75041007995605
1619376338.63832,-212.6326,78.7660300731659
1619376338.65395,-156.6954,78.78166007995605
1619376338.66957,-102.9515,78.7972800731659
1619376338.6852,-52.37302,78.81291007995605
1619376338.70082,-5.903961,78.8285300731659
1619376338.71645,35.58066,78.84416007995605
1619376338.73208,71.4259,78.85979008674622
1619376338.7477,101.3519,78.87541007995605
1619376338.76333,125.5008,78.89104008674622
1619376338.77895,144.3795,78.90666007995605
1619376338.79458,158.6804,78.92229008674622
1619376338.8102,169.1505,78.93791007995605
1619376338.82583,176.3707,78.95354008674622
1619376338.84146,180.751,78.96917009353638
1619376338.85708,182.5738,78.98479008674622
1619376338.87271,182.0684,79.00042009353638
1619376338.88833,179.506,79.01604008674622
1619376338.90396,175.2327,79.03167009353638
1619376338.91958,169.6524,79.04729008674622
1619376338.93521,163.1762,79.06292009353638
1619376338.95084,156.1455,79.07855010032654
1619376338.96646,148.8065,79.09417009353638
1619376338.98209,141.2966,79.10980010032654
1619376338.99771,133.689,79.12542009353638
1619376339.01334,126.0192,79.14105010032654
1619376339.02896,118.3321,79.15667009353638
1619376339.04459,110.6883,79.17230010032654
1619376339.06022,103.1556,79.1879301071167
1619376339.07584,95.80396,79.20355010032654
1619376339.09147,88.68414,79.2191801071167
1619376339.10709,81.82706,79.23480010032654
1619376339.12272,75.2458,79.2504301071167
1619376339.13834,68.95247,79.26605010032654
1619376339.15397,62.94902,79.2816801071167
1619376339.1696,57.24783,79.29731011390686
1619376339.18522,51.85707,79.3129301071167
1619376339.20085,46.78254,79.32856011390686
1619376339.21647,42.02784,79.3441801071167
1619376339.2321,37.58472,79.35981011390686
1619376339.24772,33.45177,79.3754301071167
1619376339.26335,29.61365,79.39106011390686
1619376339.27898,26.07119,79.40669012069702
1619376339.2946,22.8084,79.42231011390686
1619376339.31023,19.82474,79.43794012069702
1619376339.32585,17.11321,79.45356011390686
1619376339.34148,14.66682,79.46919012069702
1619376339.3571,12.47954,79.48481011390686
1619376339.37273,10.53807,79.50044012069702
1619376339.38836,8.833588,79.51607012748718
1619376339.40398,7.347847,79.53169012069702
1619376339.41961,6.067933,79.54732012748718
1619376339.43523,4.973663,79.56294012069702
1619376339.45086,4.046413,79.57857012748718
1619376339.46648,3.266945,79.59419012069702
1619376339.48211,2.620472,79.60982012748718
1619376339.49774,2.088289,79.62545013427734
1619376339.51336,1.650243,79.64107012748718
1619376339.52899,1.296789,79.65670013427734
1619376339.54461,1.013192,79.67232012748718
1619376339.56024,0.7898316,79.68795013427734
1619376339.57586,0.6111385,79.70357012748718
1619376339.59149,0.4754116,79.71920013427734
1619376339.60712,0.3695492,79.7348301410675
1619376339.62274,0.2898597,79.75045013427734
1619376339.63837,0.2360436,79.7660801410675
1619376339.65399,0.1976037,79.78170013427734
1619376339.66962,0.1753984,79.7973301410675
1619376339.68524,0.1646556,79.81295013427734
1619376339.70087,0.1675732,79.8285801410675
1619376339.7165,0.1778845,79.84421014785767
1619376339.73212,0.1942033,79.8598301410675
1619376339.74775,0.2167292,79.87546014785767
1619376339.76337,0.2493852,79.8910801410675
1619376339.779,0.2929897,79.90671014785767
1619376339.79462,0.3481548,79.9223301410675
1619376339.81025,0.4022257,79.93796014785767
1619376339.82588,0.4470084,79.95359015464783
1619376339.8415,0.4656539,79.96921014785767
1619376339.85713,0.4582698,79.98484015464783
1619376339.87275,0.4235985,80.00046014785767
1619376339.88838,0.3831097,80.01609015464783
1619376339.904,0.3572201,80.03171014785767
1619376339.91963,0.3699576,80.04734015464783
1619376339.93526,0.4145544,80.06297016143799
1619376339.95088,0.482937,80.07859015464783
1619376339.96651,0.5498501,80.09422016143799
1619376339.98213,0.5839161,80.10984015464783
1619376339.99776,0.5759176,80.12547016143799
1619376340.01338,0.5412519,80.14109015464783
1619376340.02901,0.5041817,80.15672016143799
1619376340.04464,0.5107721,80.17235016822815
1619376340.06026,0.5897505,80.18797016143799
1619376340.07589,0.7461553,80.20360016822815
1619376340.09151,0.9516681,80.21922016143799
1619376340.10714,1.153152,80.23485016822815
1619376340.12276,1.304078,80.25047016143799
1619376340.13839,1.375496,80.26610016822815
1619376340.15402,1.393976,80.28173017501831
1619376340.16964,1.414519,80.29735016822815
1619376340.18527,1.519846,80.31298017501831
1619376340.20089,1.783135,80.32860016822815
1619376340.21652,2.199633,80.34423017501831
1619376340.23214,2.701875,80.35985016822815
1619376340.24777,3.165544,80.37548017501831
1619376340.2634,3.462393,80.39111018180847
1619376340.27902,3.525004,80.40673017501831
1619376340.29465,3.405386,80.42236018180847
1619376340.31027,3.260221,80.43798017501831
1619376340.3259,3.295583,80.45361018180847
1619376340.34153,3.66449,80.46924018859863
1619376340.35715,4.39069,80.48486018180847
1619376340.37278,5.310974,80.50049018859863
1619376340.3884,6.139282,80.51611018180847
1619376340.40403,6.587454,80.53174018859863
1619376340.41965,6.520131,80.54736018180847
1619376340.43528,6.030221,80.56299018859863
1619376340.45091,5.464885,80.5786201953888
1619376340.46653,5.238136,80.59424018859863
1619376340.48216,5.665098,80.6098701953888
1619376340.49778,6.777251,80.62549018859863
1619376340.51341,8.268531,80.6411201953888
1619376340.52903,9.577367,80.65674018859863
1619376340.54466,10.16826,80.6723701953888
1619376340.56029,9.711225,80.68800020217896
1619376340.57591,8.299771,80.7036201953888
1619376340.59154,6.358572,80.71925020217896
1619376340.60716,4.428299,80.7348701953888
1619376340.62279,2.851716,80.75050020217896
1619376340.63841,1.595124,80.7661201953888
1619376340.65404,0.1988173,80.78175020217896
1619376340.66967,-2.017373,80.79738020896912
1619376340.68529,-5.636062,80.81300020217896
1619376340.70092,-11.0108,80.82863020896912
1619376340.71654,-18.07897,80.84425020217896
1619376340.73217,-26.51689,80.85988020896912
1619376340.74779,-35.65578,80.87550020217896
1619376340.76342,-44.41813,80.89113020896912
1619376340.77905,-51.2718,80.90676021575928
1619376340.79467,-54.54671,80.92238020896912
1619376340.8103,-52.98385,80.93801021575928
1619376340.82592,-46.46324,80.95363020896912
1619376340.84155,-36.31829,80.96926021575928
1619376340.85717,-25.03003,80.98488020896912
1619376340.8728,-15.22956,81.00051021575928
1619376340.88843,-8.552946,81.01614022254944
1619376340.90405,-4.912453,81.03176021575928
1619376340.91968,-2.688473,81.04739022254944
1619376340.9353,0.2317085,81.06301021575928
1619376340.95093,5.270981,81.07864022254944
1619376340.96655,12.37426,81.09426021575928
1619376340.98218,20.15787,81.10989022254944
1619376340.99781,26.76924,81.12551999092102
1619376341.01343,30.89312,81.14114022254944
1619376341.02906,32.32396,81.15676999092102
1619376341.04468,31.80727,81.17239022254944
1619376341.06031,30.38412,81.18801999092102
1619376341.07593,28.69558,81.20364022254944
1619376341.09156,26.7319,81.21926999092102
1619376341.10719,23.97717,81.23489999771118
1619376341.12281,19.93786,81.25051999092102
1619376341.13844,14.6196,81.26614999771118
1619376341.15406,8.598181,81.28176999092102
1619376341.16969,2.835769,81.29739999771118
1619376341.18531,-1.812676,81.31301999092102
1619376341.20094,-4.894605,81.32864999771118
1619376341.21657,-6.469824,81.34428000450134
1619376341.23219,-6.947868,81.35989999771118
1619376341.24782,-6.800004,81.37553000450134
1619376341.26344,-6.373319,81.39114999771118
1619376341.27907,-5.846819,81.40678000450134
1619376341.29469,-5.311976,81.42239999771118
1619376341.31032,-4.8374,81.43803000450134
1619376341.32595,-4.463507,81.4536600112915
1619376341.34157,-4.269123,81.46928000450134
1619376341.3572,-4.298502,81.4849100112915
1619376341.37282,-4.623435,81.50053000450134
1619376341.38845,-5.33302,81.5161600112915
1619376341.40407,-6.52998,81.53178000450134
1619376341.4197,-8.302126,81.5474100112915
1619376341.43533,-10.66208,81.56304001808167
1619376341.45095,-13.39007,81.5786600112915
1619376341.46658,-16.09462,81.59429001808167
1619376341.4822,-18.3594,81.6099100112915
1619376341.49783,-19.97997,81.62554001808167
1619376341.51345,-21.05404,81.6411600112915
1619376341.52908,-21.96307,81.65679001808167
1619376341.54471,-23.20104,81.67242002487183
1619376341.56033,-25.22192,81.68804001808167
1619376341.57596,-28.35694,81.70367002487183
1619376341.59158,-32.55516,81.71929001808167
1619376341.60721,-37.35926,81.73492002487183
1619376341.62283,-41.9234,81.75054001808167
1619376341.63846,-45.15536,81.76617002487183
1619376341.65409,-45.92052,81.78180003166199
1619376341.66971,-43.29113,81.79742002487183
1619376341.68534,-36.76054,81.81305003166199
1619376341.70096,-25.79122,81.82867002487183
1619376341.71659,-11.03223,81.84430003166199
1619376341.73221,6.073404,81.85992002487183
1619376341.74784,23.67987,81.87555003166199
1619376341.76347,40.03294,81.89118003845215
1619376341.77909,53.8329,81.90680003166199
1619376341.79472,64.46977,81.92243003845215
1619376341.81034,71.95066,81.93805003166199
1619376341.82597,76.67283,81.95368003845215
1619376341.84159,79.1044,81.96930003166199
1619376341.85722,79.49693,81.98493003845215
1619376341.87285,78.00549,82.00056004524231
1619376341.88847,74.76716,82.01618003845215
1619376341.9041,70.05405,82.03181004524231
1619376341.91972,64.29098,82.04743003845215
1619376341.93535,58.03027,82.06306004524231
1619376341.95097,51.75192,82.07868003845215
1619376341.9666,45.68908,82.09431004524231
1619376341.98223,39.79665,82.10994005203247
1619376341.99785,33.77369,82.12556004524231
1619376342.01348,27.4698,82.14119005203247
1619376342.0291,21.00665,82.15681004524231
1619376342.04473,14.84962,82.17244005203247
1619376342.06035,9.561823,82.18806004524231
1619376342.07598,5.543013,82.20369005203247
1619376342.09161,2.756535,82.21932005882263
1619376342.10723,0.6899347,82.23494005203247
1619376342.12286,-1.450924,82.25057005882263
1619376342.13848,-4.504546,82.26619005203247
1619376342.15411,-8.890553,82.28182005882263
1619376342.16973,-14.49508,82.29744005203247
1619376342.18536,-20.72657,82.31307005882263
1619376342.20099,-26.84545,82.3287000656128
1619376342.21661,-32.29505,82.34432005882263
1619376342.23224,-36.98871,82.3599500656128
1619376342.24786,-41.3013,82.37557005882263
1619376342.26349,-45.92951,82.3912000656128
1619376342.27911,-51.61169,82.40682005882263
1619376342.29474,-58.84003,82.4224500656128
1619376342.31037,-67.68393,82.43808007240295
1619376342.32599,-77.68738,82.4537000656128
1619376342.34162,-87.87102,82.46933007240295
1619376342.35724,-96.7163,82.4849500656128
1619376342.37287,-102.4049,82.50058007240295
1619376342.38849,-103.1396,82.5162000656128
1619376342.40412,-97.6649,82.53183007240295
1619376342.41975,-85.72709,82.54746007919312
1619376342.43537,-68.23456,82.56308007240295
1619376342.451,-47.05478,82.57871007919312
1619376342.46662,-24.45664,82.59433007240295
1619376342.48225,-2.522897,82.60996007919312
1619376342.49787,17.28443,82.62558007240295
1619376342.5135,34.17684,82.64121007919312
1619376342.52913,47.83369,82.65684008598328
1619376342.54475,58.18058,82.67246007919312
1619376342.56038,65.20949,82.68809008598328
1619376342.576,69.04287,82.70371007919312
1619376342.59163,70.032,82.71934008598328
1619376342.60725,68.81496,82.73496007919312
1619376342.62288,66.22724,82.75059008598328
1619376342.63851,63.02119,82.76622009277344
1619376342.65413,59.70367,82.78184008598328
1619376342.66976,56.38732,82.79747009277344
1619376342.68538,52.88708,82.81309008598328
1619376342.70101,48.85674,82.82872009277344
1619376342.71663,44.13384,82.84434008598328
1619376342.73226,38.86974,82.85997009277344
1619376342.74789,33.56256,82.8756000995636
1619376342.76351,28.81028,82.89122009277344
1619376342.77914,25.04338,82.9068500995636
1619376342.79476,22.26975,82.92247009277344
1619376342.81039,20.01682,82.9381000995636
1619376342.82602,17.50172,82.95373010635376
1619376342.84164,13.96012,82.9693500995636
1619376342.85727,8.948524,82.98498010635376
1619376342.87289,2.458233,83.0006000995636
1619376342.88852,-5.11665,83.01623010635376
1619376342.90414,-13.16969,83.0318500995636
1619376342.91977,-21.116,83.04748010635376
1619376342.9354,-28.5664,83.06311011314392
1619376342.95102,-35.39885,83.07873010635376
1619376342.96665,-41.77449,83.09436011314392
1619376342.98227,-48.13981,83.10998010635376
1619376342.9979,-55.08484,83.12561011314392
1619376343.01352,-63.16771,83.14123010635376
1619376343.02915,-72.57605,83.15686011314392
1619376343.04478,-82.84184,83.17249011993408
1619376343.0604,-92.68806,83.18811011314392
1619376343.07603,-100.2664,83.20374011993408
1619376343.09165,-103.6025,83.21936011314392
1619376343.10728,-101.2195,83.23499011993408
1619376343.1229,-92.60242,83.25061011314392
1619376343.13853,-78.32555,83.26624011993408
1619376343.15416,-59.81771,83.28187012672424
1619376343.16978,-38.87357,83.29749011993408
1619376343.18541,-17.24882,83.31312012672424
1619376343.20103,3.640308,83.32874011993408
1619376343.21666,22.71847,83.34437012672424
1619376343.23228,39.21877,83.35999011993408
1619376343.24791,52.5539,83.37562012672424
1619376343.26354,62.33537,83.3912501335144
1619376343.27916,68.51364,83.40687012672424
1619376343.29479,71.42047,83.4225001335144
1619376343.31041,71.77341,83.43812012672424
1619376343.32604,70.4468,83.4537501335144
1619376343.34166,68.25193,83.46937012672424
1619376343.35729,65.71075,83.4850001335144
1619376343.37292,62.97227,83.50063014030457
1619376343.38854,59.85188,83.5162501335144
1619376343.40417,56.01573,83.53188014030457
1619376343.41979,51.16716,83.5475001335144
1619376343.43542,45.25708,83.56313014030457
1619376343.45104,38.59242,83.5787501335144
1619376343.46667,31.81645,83.59438014030457
1619376343.4823,25.72514,83.61001014709473
1619376343.49792,20.9724,83.62563014030457
1619376343.51355,17.81565,83.64126014709473
1619376343.52917,15.96915,83.65688014030457
1619376343.5448,14.76183,83.67251014709473
1619376343.56042,13.4206,83.68813014030457
1619376343.57605,11.41767,83.70376014709473
1619376343.59168,8.664059,83.71939015388489
1619376343.6073,5.427258,83.73501014709473
1619376343.62293,2.078587,83.75064015388489
1619376343.63855,-1.233795,83.76626014709473
1619376343.65418,-4.652981,83.78189015388489
1619376343.6698,-8.504333,83.79751014709473
1619376343.68543,-12.99861,83.81314015388489
1619376343.70106,-18.12702,83.82877016067505
1619376343.71668,-23.72034,83.84439015388489
1619376343.73231,-29.64292,83.86002016067505
1619376343.74793,-35.8578,83.87564015388489
1619376343.76356,-42.27982,83.89127016067505
1619376343.77918,-48.42312,83.90689015388489
1619376343.79481,-53.10626,83.92252016067505
1619376343.81044,-54.6134,83.93815016746521
1619376343.82606,-51.17892,83.95377016067505
1619376343.84169,-41.69685,83.96940016746521
1619376343.85731,-26.19985,83.98502016067505
1619376343.87294,-5.86035,84.00065016746521
1619376343.88856,17.43925,84.01627016067505
1619376343.90419,41.76022,84.03190016746521
1619376343.91982,65.56238,84.04753017425537
1619376343.93544,87.82396,84.06315016746521
1619376343.95107,107.8307,84.07878017425537
1619376343.96669,124.9662,84.09440016746521
1619376343.98232,138.6597,84.11003017425537
1619376343.99794,148.5061,84.12565016746521
1619376344.01357,154.5594,84.14128017425537
1619376344.0292,157.3555,84.15691018104553
1619376344.04482,157.8142,84.17253017425537
1619376344.06045,156.9135,84.18816018104553
1619376344.07607,155.3985,84.20378017425537
1619376344.0917,153.6026,84.21941018104553
1619376344.10732,151.4547,84.23503017425537
1619376344.12295,148.6902,84.25066018104553
1619376344.13858,145.1344,84.2662901878357
1619376344.1542,141.0614,84.28191018104553
1619376344.16983,137.2338,84.2975401878357
1619376344.18545,134.7767,84.31316018104553
1619376344.20108,134.6834,84.3287901878357
1619376344.2167,137.2086,84.34441018104553
1619376344.23233,141.5095,84.3600401878357
1619376344.24796,145.8302,84.37567019462585
1619376344.26358,148.1295,84.3912901878357
1619376344.27921,146.9797,84.40692019462585
1619376344.29483,142.2067,84.4225401878357
1619376344.31046,134.826,84.43817019462585
1619376344.32608,126.4282,84.4537901878357
1619376344.34171,118.2468,84.46942019462585
1619376344.35734,110.5939,84.48505020141602
1619376344.37296,102.872,84.50067019462585
1619376344.38859,94.12546,84.51630020141602
1619376344.40421,83.6571,84.53192019462585
1619376344.41984,71.42374,84.54755020141602
1619376344.43546,57.95041,84.56317019462585
1619376344.45109,44.00482,84.57880020141602
1619376344.46672,30.27789,84.59443020820618
1619376344.48234,17.19092,84.61005020141602
1619376344.49797,4.872864,84.62568020820618
1619376344.51359,-6.928833,84.64130020141602
1619376344.52922,-18.83591,84.65693020820618
1619376344.54484,-31.8743,84.67255020141602
1619376344.56047,-47.27939,84.68818020820618
1619376344.5761,-66.06653,84.70381021499634
1619376344.59172,-88.56577,84.71943020820618
1619376344.60735,-114.0012,84.73506021499634
1619376344.62297,-140.4793,84.75068020820618
1619376344.6386,-165.4316,84.76631021499634
1619376344.65422,-186.3229,84.78193020820618
1619376344.66985,-201.4202,84.79756021499634
1619376344.68548,-210.3246,84.8131902217865
1619376344.7011,-214.022,84.82881021499634
1619376344.71673,-214.444,84.8444402217865
1619376344.73235,-213.7914,84.86006021499634
1619376344.74798,-213.8054,84.8756902217865
1619376344.7636,-215.3562,84.89131021499634
1619376344.77923,-218.3448,84.9069402217865
1619376344.79486,-221.9504,84.92256999015808
1619376344.81048,-224.9523,84.9381902217865
1619376344.82611,-226.1576,84.95381999015808
1619376344.84173,-224.5984,84.9694402217865
1619376344.85736,-219.7613,84.98506999015808
1619376344.87298,-211.6486,85.0006902217865
1619376344.88861,-200.8336,85.01631999015808
1619376344.90424,-188.3903,85.03194999694824
1619376344.91986,-175.6435,85.04756999015808
1619376344.93549,-163.8849,85.06319999694824
1619376344.95111,-154.0475,85.07881999015808
1619376344.96674,-146.6103,85.09444999694824
1619376344.98236,-141.5334,85.11006999015808
1619376344.99799,-138.3545,85.12569999694824
1619376345.01362,-136.2894,85.1413300037384
1619376345.02924,-134.442,85.15694999694824
1619376345.04487,-131.9888,85.1725800037384
1619376345.06049,-128.4434,85.18819999694824
1619376345.07612,-123.8516,85.2038300037384
1619376345.09174,-118.8328,85.21944999694824
1619376345.10737,-114.4258,85.2350800037384
1619376345.123,-111.707,85.25071001052856
1619376345.13862,-111.3351,85.2663300037384
1619376345.15425,-113.2654,85.28196001052856
1619376345.16987,-116.5999,85.2975800037384
1619376345.1855,-119.8707,85.31321001052856
1619376345.20113,-121.3499,85.32884001731873
1619376345.21675,-119.5314,85.34446001052856
1619376345.23238,-113.413,85.36009001731873
1619376345.248,-102.6525,85.37571001052856
1619376345.26363,-87.51294,85.39134001731873
1619376345.27925,-68.73425,85.40696001052856
1619376345.29488,-47.35608,85.42259001731873
1619376345.31051,-24.52625,85.43822002410889
1619376345.32613,-1.438843,85.45384001731873
1619376345.34176,20.73712,85.46947002410889
1619376345.35738,40.8587,85.48509001731873
1619376345.37301,57.89972,85.50072002410889
1619376345.38863,71.07288,85.51634001731873
1619376345.40426,79.99103,85.53197002410889
1619376345.41989,84.80719,85.54760003089905
1619376345.43551,86.16425,85.56322002410889
1619376345.45114,85.02509,85.57885003089905
1619376345.46676,82.38599,85.59447002410889
1619376345.48239,78.99149,85.61010003089905
1619376345.49801,75.20294,85.62572002410889
1619376345.51364,71.11856,85.64135003089905
1619376345.52927,66.73782,85.65698003768921
1619376345.54489,62.17041,85.67260003089905
1619376345.56052,57.72729,85.68823003768921
1619376345.57614,53.76141,85.70385003089905
1619376345.59177,50.50201,85.71948003768921
1619376345.60739,47.85846,85.73510003089905
1619376345.62302,45.45508,85.75073003768921
1619376345.63865,42.70459,85.76636004447937
1619376345.65427,39.06448,85.78198003768921
1619376345.6699,34.20892,85.79761004447937
1619376345.68552,28.08917,85.81323003768921
1619376345.70115,20.95169,85.82886004447937
1619376345.71677,13.19019,85.84448003768921
1619376345.7324,5.230896,85.86011004447937
1619376345.74803,-2.640747,85.87574005126953
1619376345.76365,-10.34735,85.89136004447937
1619376345.77928,-18.08234,85.90699005126953
1619376345.7949,-26.2453,85.92261004447937
1619376345.81053,-35.33823,85.93824005126953
1619376345.82615,-45.80292,85.95386004447937
1619376345.84178,-57.81134,85.96949005126953
1619376345.85741,-71.01086,85.98512005805969
1619376345.87303,-84.36873,86.00074005126953
1619376345.88866,-96.19125,86.01637005805969
1619376345.90428,-104.4165,86.03199005126953
1619376345.91991,-107.0651,86.04762005805969
1619376345.93553,-102.784,86.06324005126953
1619376345.95116,-91.30727,86.07887005805969
1619376345.96679,-73.51173,86.09450006484985
1619376345.98241,-51.22183,86.11012005805969
1619376345.99804,-26.71266,86.12575006484985
1619376346.01366,-2.148056,86.14137005805969
1619376346.02929,20.76474,86.15700006484985
1619376346.04491,40.95682,86.17262005805969
1619376346.06054,57.86748,86.18825006484985
1619376346.07617,71.30092,86.20388007164001
1619376346.09179,81.24644,86.21950006484985
1619376346.10742,87.82281,86.23513007164001
1619376346.12304,91.32117,86.25075006484985
1619376346.13867,92.14391,86.26638007164001
1619376346.15429,90.8641,86.28200006484985
1619376346.16992,88.12382,86.29763007164001
1619376346.18555,84.53923,86.31326007843018
1619376346.20117,80.59251,86.32888007164001
1619376346.2168,76.56416,86.34451007843018
1619376346.23242,72.51274,86.36013007164001
1619376346.24805,68.33908,86.37576007843018
1619376346.26367,63.96451,86.39138007164001
1619376346.2793,59.38313,86.40701007843018
1619376346.29493,54.76404,86.42264008522034
1619376346.31055,50.32413,86.43826007843018
1619376346.32618,46.1846,86.45389008522034
1619376346.3418,42.16782,86.46951007843018
1619376346.35743,37.84769,86.48514008522034
1619376346.37305,32.6767,86.50076007843018
1619376346.38868,26.26079,86.51639008522034
1619376346.40431,18.62635,86.5320200920105
1619376346.41993,10.17289,86.54764008522034
1619376346.43556,1.522522,86.5632700920105
1619376346.45118,-6.87664,86.57889008522034
1619376346.46681,-15.03893,86.5945200920105
1619376346.48243,-23.46778,86.61014008522034
1619376346.49806,-32.93021,86.6257700920105
1619376346.51369,-44.09165,86.64140009880066
1619376346.52931,-57.14509,86.6570200920105
1619376346.54494,-71.55003,86.67265009880066
1619376346.56056,-86.09686,86.6882700920105
1619376346.57619,-99.01523,86.70390009880066
1619376346.59181,-108.3185,86.7195200920105
1619376346.60744,-112.1715,86.73515009880066
1619376346.62307,-109.2751,86.75078010559082
1619376346.63869,-99.21605,86.76640009880066
1619376346.65432,-82.5592,86.78203010559082
1619376346.66994,-60.76892,86.79765009880066
1619376346.68557,-35.82106,86.81328010559082
1619376346.70119,-9.79126,86.82890009880066
1619376346.71682,15.52483,86.84453010559082
1619376346.73245,38.78992,86.86016011238098
1619376346.74807,59.09784,86.87578010559082
1619376346.7637,75.87404,86.89141011238098
1619376346.77932,88.77193,86.90703010559082
1619376346.79495,97.65916,86.92266011238098
1619376346.81057,102.7009,86.93828010559082
1619376346.8262,104.3921,86.95391011238098
1619376346.84183,103.4644,86.96954011917114
1619376346.85745,100.7897,86.98516011238098
1619376346.87308,97.15884,87.00079011917114
1619376346.8887,93.14374,87.01641011238098
1619376346.90433,89.01068,87.03204011917114
1619376346.91995,84.79187,87.04766011238098
1619376346.93558,80.37616,87.06329011917114
1619376346.95121,75.72403,87.0789201259613
1619376346.96683,70.92407,87.09454011917114
1619376346.98246,66.22879,87.1101701259613
1619376346.99808,61.90225,87.12579011917114
1619376347.01371,57.98859,87.1414201259613
1619376347.02933,54.18057,87.15704011917114
1619376347.04496,49.90482,87.1726701259613
1619376347.06059,44.52548,87.18830013275146
1619376347.07621,37.63937,87.2039201259613
1619376347.09184,29.34464,87.21955013275146
1619376347.10746,20.15723,87.2351701259613
1619376347.12309,10.8241,87.25080013275146
1619376347.13871,1.915375,87.2664201259613
1619376347.15434,-6.369904,87.28205013275146
1619376347.16997,-14.30643,87.29768013954163
1619376347.18559,-22.45828,87.31330013275146
1619376347.20122,-31.46933,87.32893013954163
1619376347.21684,-41.8443,87.34455013275146
1619376347.23247,-53.74945,87.36018013954163
1619376347.24809,-66.89597,87.37580013275146
1619376347.26372,-80.38248,87.39143013954163
1619376347.27935,-92.65814,87.40706014633179
1619376347.29497,-101.6762,87.42268013954163
1619376347.3106,-105.3146,87.43831014633179
1619376347.32622,-101.9401,87.45393013954163
1619376347.34185,-90.98151,87.46956014633179
1619376347.35748,-73.1351,87.48519015312195
1619376347.3731,-50.17453,87.50081014633179
1619376347.38873,-24.43491,87.51644015312195
1619376347.40435,1.788177,87.53206014633179
1619376347.41998,26.64896,87.54769015312195
1619376347.4356,48.89297,87.56331014633179
1619376347.45123,67.68466,87.57894015312195
1619376347.46686,82.41061,87.59457015991211
1619376347.48248,92.66739,87.61019015312195
1619376347.49811,98.35852,87.62582015991211
1619376347.51373,99.84924,87.64144015312195
1619376347.52936,97.99887,87.65707015991211
1619376347.54498,94.02209,87.67269015312195
1619376347.56061,89.08878,87.68832015991211
1619376347.57624,84.0195,87.70395016670227
1619376347.59186,79.08667,87.71957015991211
1619376347.60749,74.14996,87.73520016670227
1619376347.62311,68.96664,87.75082015991211
1619376347.63874,63.47668,87.76645016670227
1619376347.65436,57.96204,87.78207015991211
1619376347.66999,52.92523,87.79770016670227
1619376347.68562,48.80902,87.81333017349243
1619376347.70124,45.72559,87.82895016670227
1619376347.71687,43.28821,87.84458017349243
1619376347.73249,40.73978,87.86020016670227
1619376347.74812,37.211,87.87583017349243
1619376347.76374,32.08276,87.89145016670227
1619376347.77937,25.22678,87.90708017349243
1619376347.795,17.06232,87.92271018028259
1619376347.81062,8.342377,87.93833017349243
1619376347.82625,-0.1399536,87.95396018028259
1619376347.84187,-7.895691,87.96958017349243
1619376347.8575,-14.90851,87.98521018028259
1619376347.87312,-21.60657,88.00083017349243
1619376347.88875,-28.72272,88.01646018028259
1619376347.90438,-36.99414,88.03209018707275
1619376347.92,-46.93536,88.04771018028259
1619376347.93563,-58.57373,88.06334018707275
1619376347.95125,-71.30463,88.07896018028259
1619376347.96688,-83.81635,88.09459018707275
1619376347.9825,-94.19647,88.11021018028259
1619376347.99813,-100.2612,88.12584018707275
1619376348.01376,-100.0784,88.14147019386292
1619376348.02938,-92.56561,88.15709018707275
1619376348.04501,-77.84863,88.17272019386292
1619376348.06063,-57.34863,88.18834018707275
1619376348.07626,-33.2981,88.20397019386292
1619376348.09188,-8.16217,88.21959018707275
1619376348.10751,15.99408,88.23522019386292
1619376348.12314,37.78394,88.25085020065308
1619376348.13876,56.46625,88.26647019386292
1619376348.15439,71.66998,88.28210020065308
1619376348.17001,83.12708,88.29772019386292
1619376348.18564,90.67688,88.31335020065308
1619376348.20126,94.33484,88.32897019386292
1619376348.21689,94.54901,88.34460020065308
1619376348.23252,92.16895,88.36023020744324
1619376348.24814,88.28278,88.37585020065308
1619376348.26377,83.84198,88.39148020744324
1619376348.27939,79.39722,88.40710020065308
1619376348.29502,74.98383,88.42273020744324
1619376348.31064,70.32672,88.43835020065308
1619376348.32627,65.20917,88.45398020744324
1619376348.3419,59.71143,88.4696102142334
1619376348.35752,54.27661,88.48523020744324
1619376348.37315,49.45972,88.5008602142334
1619376348.38877,45.63458,88.51648020744324
1619376348.4044,42.70483,88.5321102142334
1619376348.42002,40.12109,88.54773020744324
1619376348.43565,37.08777,88.5633602142334
1619376348.45128,32.87695,88.57899022102356
1619376348.4669,27.14429,88.5946102142334
1619376348.48253,20.0022,88.61024022102356
1619376348.49815,11.96735,88.6258602142334
1619376348.51378,3.687195,88.64149022102356
1619376348.5294,-4.31897,88.6571102142334
1619376348.54503,-11.80597,88.67274022102356
1619376348.56066,-18.86359,88.68836998939514
1619376348.57628,-25.86487,88.70399022102356
1619376348.59191,-33.32581,88.71961998939514
1619376348.60753,-41.76459,88.73524022102356
1619376348.62316,-51.57434,88.75086998939514
1619376348.63878,-62.79034,88.76649022102356
1619376348.65441,-74.89917,88.78211998939514
1619376348.67004,-86.70636,88.7977499961853
1619376348.68566,-96.38831,88.81336998939514
1619376348.70129,-101.8463,88.8289999961853
1619376348.71691,-101.2847,88.84461998939514
1619376348.73254,-93.76282,88.8602499961853
1619376348.74816,-79.52271,88.87586998939514
1619376348.76379,-59.94769,88.8914999961853
1619376348.77942,-37.08569,88.90713000297546
1619376348.79504,-13.07843,88.9227499961853
1619376348.81067,10.28738,88.93838000297546
1619376348.82629,31.7659,88.9539999961853
1619376348.84192,50.54297,88.96963000297546
1619376348.85754,66.0325,88.9852499961853
1619376348.87317,77.77487,89.00088000297546
1619376348.8888,85.49423,89.01651000976562
1619376348.90442,89.2139,89.03213000297546
1619376348.92005,89.39737,89.04776000976562
1619376348.93567,86.90665,89.06338000297546
1619376348.9513,82.80365,89.07901000976562
1619376348.96692,78.07782,89.09463000297546
1619376348.98255,73.4068,89.11026000976562
1619376348.99818,69.05078,89.12589001655579
1619376349.0138,64.91037,89.14151000976562
1619376349.02943,60.74356,89.15714001655579
1619376349.04505,56.33554,89.17276000976562
1619376349.06068,51.73334,89.18839001655579
1619376349.0763,47.17874,89.20401000976562
1619376349.09193,43.01144,89.21964001655579
1619376349.10756,39.45441,89.23527002334595
1619376349.12318,36.43915,89.25089001655579
1619376349.13881,33.55746,89.26652002334595
1619376349.15443,30.19754,89.28214001655579
1619376349.17006,25.78238,89.29777002334595
1619376349.18568,19.99979,89.31339001655579
1619376349.20131,12.95569,89.32902002334595
1619376349.21694,5.072479,89.34465003013611
1619376349.23256,-3.06424,89.36027002334595
1619376349.24819,-10.96741,89.37590003013611
1619376349.26381,-18.40723,89.39152002334595
1619376349.27944,-25.4545,89.40715003013611
1619376349.29506,-32.43182,89.42277002334595
1619376349.31069,-39.77847,89.43840003013611
1619376349.32632,-47.95035,89.45403003692627
1619376349.34194,-57.25192,89.46965003013611
1619376349.35757,-67.67178,89.48528003692627
1619376349.37319,-78.6507,89.50090003013611
1619376349.38882,-88.97778,89.51653003692627
1619376349.40444,-96.88492,89.53215003013611
1619376349.42007,-100.4408,89.54778003692627
1619376349.4357,-98.11795,89.56341004371643
1619376349.45132,-89.30746,89.57903003692627
1619376349.46695,-74.59808,89.59466004371643
1619376349.48257,-55.54117,89.61028003692627
1619376349.4982,-34.16388,89.62591004371643
1619376349.51382,-12.35327,89.64153003692627
1619376349.52945,8.50589,89.65716004371643
1619376349.54508,27.58707,89.67279005050659
1619376349.5607,44.41397,89.68841004371643
1619376349.57633,58.58478,89.70404005050659
1619376349.59195,69.65244,89.71966004371643
1619376349.60758,77.21579,89.73529005050659
1619376349.6232,81.14264,89.75091004371643
1619376349.63883,81.73193,89.76654005050659
1619376349.65446,79.73111,89.78217005729675
1619376349.67008,76.13547,89.79779005050659
1619376349.68571,71.86853,89.81342005729675
1619376349.70133,67.55054,89.82904005050659
1619376349.71696,63.39285,89.84467005729675
1619376349.73258,59.30142,89.86029005050659
1619376349.74821,55.11795,89.87592005729675
1619376349.76384,50.80835,89.89155006408691
1619376349.77946,46.54813,89.90717005729675
1619376349.79509,42.62173,89.92280006408691
1619376349.81071,39.23181,89.93842005729675
1619376349.82634,36.34088,89.95405006408691
1619376349.84196,33.62576,89.96967005729675
1619376349.85759,30.62311,89.98530006408691
1619376349.87322,26.92497,90.00093007087708
1619376349.88884,22.34915,90.01655006408691
1619376349.90447,16.97307,90.03218007087708
1619376349.92009,11.02124,90.04780006408691
1619376349.93572,4.731812,90.06343007087708
1619376349.95134,-1.743195,90.07905006408691
1619376349.96697,-8.364975,90.09468007087708
1619376349.9826,-15.11545,90.11031007766724
1619376349.99822,-21.92346,90.12593007087708
1619376350.01385,-28.69913,90.14156007766724
1619376350.02947,-35.43166,90.15718007087708
1619376350.0451,-42.32458,90.17281007766724
1619376350.06073,-49.76198,90.1884400844574
1619376350.07635,-58.13557,90.20406007766724
1619376350.09198,-67.49593,90.2196900844574
1619376350.1076,-77.24323,90.23531007766724
1619376350.12323,-86.01112,90.2509400844574
1619376350.13885,-91.92975,90.26656007766724
1619376350.15448,-93.18565,90.2821900844574
1619376350.17011,-88.61728,90.29782009124756
1619376350.18573,-78.14015,90.3134400844574
1619376350.20136,-62.77901,90.32907009124756
1619376350.21698,-44.2739,90.3446900844574
1619376350.23261,-24.53825,90.36032009124756
1619376350.24823,-5.174576,90.3759400844574
1619376350.26386,12.71606,90.39157009124756
1619376350.27949,28.43774,90.40720009803772
1619376350.29511,41.4971,90.42282009124756
1619376350.31074,51.46734,90.43845009803772
1619376350.32636,57.993,90.45407009124756
1619376350.34199,60.99934,90.46970009803772
1619376350.35761,60.80522,90.48532009124756
1619376350.37324,58.16122,90.50095009803772
1619376350.38887,54.05419,90.51658010482788
1619376350.40449,49.44588,90.53220009803772
1619376350.42012,45.00887,90.54783010482788
1619376350.43574,41.05165,90.56345009803772
1619376350.45137,37.55566,90.57908010482788
1619376350.46699,34.34045,90.59470009803772
1619376350.48262,31.21978,90.61033010482788
1619376350.49825,28.11387,90.62596011161804
1619376350.51387,25.08138,90.64158010482788
1619376350.5295,22.21925,90.65721011161804
1619376350.54512,19.60707,90.67283010482788
1619376350.56075,17.18711,90.68846011161804
1619376350.57637,14.74052,90.70408010482788
1619376350.592,11.94291,90.71971011161804
1619376350.60763,8.449429,90.7353401184082
1619376350.62325,4.049274,90.75096011161804
1619376350.63888,-1.242613,90.7665901184082
1619376350.6545,-7.140392,90.78221011161804
1619376350.67013,-13.20489,90.7978401184082
1619376350.68575,-18.96243,90.81346011161804
1619376350.70138,-24.10974,90.8290901184082
1619376350.71701,-28.61473,90.84472012519836
1619376350.73263,-32.74329,90.8603401184082
1619376350.74826,-36.96325,90.87597012519836
1619376350.76388,-41.83149,90.8915901184082
1619376350.77951,-47.80546,90.90722012519836
1619376350.79513,-55.09291,90.9228401184082
1619376350.81076,-63.48681,90.93847012519836
1619376350.82639,-72.27106,90.95410013198853
1619376350.84201,-80.24454,90.96972012519836
1619376350.85764,-85.87785,90.98535013198853
1619376350.87326,-87.66168,91.00097012519836
1619376350.88889,-84.50181,91.01660013198853
1619376350.90451,-76.06565,91.03222012519836
1619376350.92014,-62.94565,91.04785013198853
1619376350.93577,-46.47124,91.06348013877869
1619376350.95139,-28.37663,91.07910013198853
1619376350.96702,-10.3387,91.09473013877869
1619376350.98264,6.323463,91.11035013198853
1619376350.99827,20.78815,91.12598013877869
1619376351.01389,32.63979,91.14160013198853
1619376351.02952,41.72316,91.15723013877869
1619376351.04515,47.94495,91.17286014556885
1619376351.06077,51.32729,91.18848013877869
1619376351.0764,52.04865,91.20411014556885
1619376351.09202,50.5405,91.21973013877869
1619376351.10765,47.46504,91.23536014556885
1619376351.12327,43.61263,91.25098013877869
1619376351.1389,39.66682,91.26661014556885
1619376351.15453,36.08151,91.28224015235901
1619376351.17015,32.94296,91.29786014556885
1619376351.18578,30.10703,91.31349015235901
1619376351.2014,27.31291,91.32911014556885
1619376351.21703,24.41055,91.34474015235901
1619376351.23265,21.41605,91.36036014556885
1619376351.24828,18.53729,91.37599015235901
1619376351.26391,15.97661,91.39162015914917
1619376351.27953,13.85057,91.40724015235901
1619376351.29516,12.04825,91.42287015914917
1619376351.31078,10.25729,91.43849015235901
1619376351.32641,8.074814,91.45412015914917
1619376351.34203,5.160248,91.46974015235901
1619376351.35766,1.378296,91.48537015914917
1619376351.37329,-3.135956,91.50100016593933
1619376351.38891,-8.033722,91.51662015914917
1619376351.40454,-12.89597,91.53225016593933
1619376351.42016,-17.39937,91.54787015914917
1619376351.43579,-21.48959,91.56350016593933
1619376351.45141,-25.40497,91.57912015914917
1619376351.46704,-29.66129,91.59475016593933
1619376351.48267,-34.82118,91.61038017272949
1619376351.49829,-41.34317,91.62600016593933
1619376351.51392,-49.35352,91.64163017272949
1619376351.52954,-58.55371,91.65725016593933
1619376351.54517,-68.22571,91.67288017272949
1619376351.56079,-77.23129,91.68850016593933
1619376351.57642,-84.22183,91.70413017272949
1619376351.59205,-87.80588,91.71976017951965
1619376351.60767,-86.9053,91.73538017272949
1619376351.6233,-81.00534,91.75101017951965
1619376351.63892,-70.39633,91.76663017272949
1619376351.65455,-56.12186,91.78226017951965
1619376351.67017,-39.73334,91.79788017272949
1619376351.6858,-22.87335,91.81351017951965
1619376351.70143,-6.869202,91.82914018630981
1619376351.71705,7.438599,91.84476017951965
1619376351.73268,19.64908,91.86039018630981
1619376351.7483,29.60181,91.87601017951965
1619376351.76393,37.1774,91.89164018630981
1619376351.77955,42.22241,91.90726017951965
1619376351.79518,44.63519,91.92289018630981
1619376351.81081,44.50693,91.93852019309998
1619376351.82643,42.20871,91.95414018630981
1619376351.84206,38.37003,91.96977019309998
1619376351.85768,33.71167,91.98539018630981
1619376351.87331,28.86435,92.00102019309998
1619376351.88893,24.20407,92.01664018630981
1619376351.90456,19.85577,92.03227019309998
1619376351.92019,15.70929,92.04790019989014
1619376351.93581,11.61105,92.06352019309998
1619376351.95144,7.528229,92.07915019989014
1619376351.96706,3.581238,92.09477019309998
1619376351.98269,0.01272583,92.11040019989014
1619376351.99831,-2.970703,92.12602019309998
1619376352.01394,-5.351654,92.14165019989014
1619376352.02957,-7.353363,92.1572802066803
1619376352.04519,-9.355804,92.17290019989014
1619376352.06082,-11.68027,92.1885302066803
1619376352.07644,-14.45844,92.20415019989014
1619376352.09207,-17.57892,92.2197802066803
1619376352.10769,-20.83636,92.23540019989014
1619376352.12332,-24.08774,92.2510302066803
1619376352.13895,-27.30661,92.26666021347046
1619376352.15457,-30.52087,92.2822802066803
1619376352.1702,-33.7095,92.29791021347046
1619376352.18582,-36.78647,92.3135302066803
1619376352.20145,-39.73013,92.32916021347046
1619376352.21707,-42.78397,92.3447802066803
1619376352.2327,-46.50366,92.36041021347046
1619376352.24833,-51.59036,92.37604022026062
1619376352.26395,-58.43024,92.39166021347046
1619376352.27958,-66.68683,92.40729022026062
1619376352.2952,-75.08789,92.42291021347046
1619376352.31083,-81.66028,92.43854022026062
1619376352.32646,-84.25574,92.4541699886322
1619376352.34208,-81.24219,92.46979022026062
1619376352.35771,-72.02188,92.4854199886322
1619376352.37333,-57.17578,92.50104022026062
1619376352.38896,-38.25735,92.5166699886322
1619376352.40458,-17.30643,92.53229022026062
1619376352.42021,3.65332,92.5479199886322
1619376352.43584,22.98868,92.56354999542236
1619376352.45146,39.64117,92.5791699886322
1619376352.46709,53.04892,92.59479999542236
1619376352.48271,63.00378,92.6104199886322
1619376352.49834,69.46671,92.62604999542236
1619376352.51396,72.54477,92.6416699886322
1619376352.52959,72.49933,92.65729999542236
1619376352.54522,69.83664,92.67293000221252
1619376352.56084,65.27792,92.68854999542236
1619376352.57647,59.68842,92.70418000221252
1619376352.59209,53.88013,92.71979999542236
1619376352.60772,48.41257,92.73543000221252
1619376352.62334,43.51797,92.75104999542236
1619376352.63897,39.12366,92.76668000221252
1619376352.6546,35.02994,92.78231000900269
1619376352.67022,31.04004,92.79793000221252
1619376352.68585,27.10199,92.81356000900269
1619376352.70147,23.32336,92.82918000221252
1619376352.7171,19.90927,92.84481000900269
1619376352.73272,17.0087,92.86043000221252
1619376352.74835,14.6214,92.87606000900269
1619376352.76398,12.4812,92.89169001579285
1619376352.7796,10.13055,92.90731000900269
1619376352.79523,7.030396,92.92294001579285
1619376352.81085,2.791687,92.93856000900269
1619376352.82648,-2.667419,92.95419001579285
1619376352.8421,-9.053833,92.96981000900269
1619376352.85773,-15.82727,92.98544001579285
1619376352.87336,-22.40878,93.00107002258301
1619376352.88898,-28.39011,93.01669001579285
1619376352.90461,-33.69916,93.03232002258301
1619376352.92023,-38.56381,93.04794001579285
1619376352.93586,-43.45447,93.06357002258301
1619376352.95148,-48.88712,93.07919001579285
1619376352.96711,-55.28122,93.09482002258301
1619376352.98274,-62.76563,93.11045002937317
1619376352.99836,-71.11157,93.12607002258301
1619376353.01399,-79.59058,93.14170002937317
1619376353.02961,-87.03012,93.15732002258301
1619376353.04524,-91.95596,93.17295002937317
1619376353.06086,-92.93283,93.18857002258301
1619376353.07649,-88.93301,93.20420002937317
1619376353.09212,-79.68839,93.21983003616333
1619376353.10774,-65.81714,93.23545002937317
1619376353.12337,-48.69229,93.25108003616333
1619376353.13899,-30.09271,93.26670002937317
1619376353.15462,-11.7764,93.28233003616333
1619376353.17024,4.845673,93.29795002937317
1619376353.18587,18.83795,93.31358003616333
1619376353.2015,29.7034,93.32921004295349
1619376353.21712,37.2626,93.34483003616333
1619376353.23275,41.52777,93.36046004295349
1619376353.24837,42.70602,93.37608003616333
1619376353.264,41.25443,93.39171004295349
1619376353.27962,37.85818,93.40733003616333
1619376353.29525,33.3606,93.42296004295349
1619376353.31088,28.56659,93.43859004974365
1619376353.3265,24.00833,93.45421004295349
1619376353.34213,19.82486,93.46984004974365
1619376353.35775,15.81638,93.48546004295349
1619376353.37338,11.68649,93.50109004974365
1619376353.389,7.283752,93.51671004295349
1619376353.40463,2.795624,93.53234004974365
1619376353.42026,-1.291168,93.54797005653381
1619376353.43588,-4.402283,93.56359004974365
1619376353.45151,-6.16925,93.57922005653381
1619376353.46713,-6.625824,93.59484004974365
1619376353.48276,-6.281677,93.61047005653381
1619376353.49838,-5.947205,93.62609004974365
1619376353.51401,-6.473511,93.64172005653381
1619376353.52964,-8.471161,93.65735006332397
1619376353.54526,-12.10205,93.67297005653381
1619376353.56089,-17.07785,93.68860006332397
1619376353.57651,-22.80081,93.70422005653381
1619376353.59214,-28.63596,93.71985006332397
1619376353.60776,-34.17368,93.73547005653381
1619376353.62339,-39.38629,93.75110006332397
1619376353.63902,-44.61237,93.76673007011414
1619376353.65464,-50.40964,93.78235006332397
1619376353.67027,-57.30328,93.79798007011414
1619376353.68589,-65.55826,93.81360006332397
1619376353.70152,-74.99661,93.82923007011414
1619376353.71714,-84.9057,93.84485006332397
1619376353.73277,-94.04297,93.86048007011414
1619376353.7484,-100.8408,93.8761100769043
1619376353.76402,-103.7097,93.89173007011414
1619376353.77965,-101.442,93.9073600769043
1619376353.79527,-93.55505,93.92298007011414
1619376353.8109,-80.4155,93.9386100769043
1619376353.82652,-63.1666,93.95423007011414
1619376353.84215,-43.39163,93.9698600769043
1619376353.85778,-22.78616,93.98549008369446
1619376353.8734,-2.814941,94.0011100769043
1619376353.88903,15.39117,94.01674008369446
1619376353.90465,31.07205,94.0323600769043
1619376353.92028,43.76688,94.04799008369446
1619376353.9359,53.25778,94.0636100769043
