timestamp,value,norm_ts
1618837072.86828,18.1125,4.752419948577881
1618837072.8839,17.42334,4.76803994178772
1618837072.89953,16.57377,4.783669948577881
1618837072.91515,15.63657,4.79928994178772
1618837072.93078,14.69398,4.814919948577881
1618837072.94641,13.79972,4.830549955368042
1618837072.96203,13.0173,4.846169948577881
1618837072.97766,12.38111,4.861799955368042
1618837072.99328,11.88284,4.877419948577881
1618837073.00891,11.45699,4.893049955368042
1618837073.02453,10.98274,4.908669948577881
1618837073.04016,10.31513,4.924299955368042
1618837073.05579,9.348854,4.939929962158203
1618837073.07141,8.048592,4.955549955368042
1618837073.08704,6.445396,4.971179962158203
1618837073.10266,4.632347,4.986799955368042
1618837073.11829,2.732803,5.002429962158203
1618837073.13391,0.8601227,5.018049955368042
1618837073.14954,-0.9272842,5.033679962158203
1618837073.16517,-2.651382,5.049309968948364
1618837073.18079,-4.374115,5.064929962158203
1618837073.19642,-6.205894,5.080559968948364
1618837073.21204,-8.204453,5.096179962158203
1618837073.22767,-10.42442,5.111809968948364
1618837073.24329,-12.86604,5.127429962158203
1618837073.25892,-15.56284,5.143059968948364
1618837073.27455,-18.55027,5.158689975738525
1618837073.29017,-21.77179,5.174309968948364
1618837073.3058,-25.03622,5.189939975738525
1618837073.32142,-27.94421,5.205559968948364
1618837073.33705,-29.98328,5.221189975738525
1618837073.35267,-30.65147,5.236809968948364
1618837073.3683,-29.61729,5.252439975738525
1618837073.38393,-26.84381,5.2680699825286865
1618837073.39955,-22.55833,5.283689975738525
1618837073.41518,-17.18486,5.2993199825286865
1618837073.4308,-11.21484,5.314939975738525
1618837073.44643,-5.118599,5.3305699825286865
1618837073.46205,0.6912384,5.346189975738525
1618837073.47768,5.909317,5.3618199825286865
1618837073.49331,10.35555,5.377449989318848
1618837073.50893,13.96754,5.3930699825286865
1618837073.52456,16.79397,5.408699989318848
1618837073.54018,18.93273,5.4243199825286865
1618837073.55581,20.50378,5.439949989318848
1618837073.57143,21.59254,5.4555699825286865
1618837073.58706,22.27367,5.471199989318848
1618837073.60269,22.60047,5.486829996109009
1618837073.61831,22.63031,5.502449989318848
1618837073.63394,22.39678,5.518079996109009
1618837073.64956,21.92071,5.533699989318848
1618837073.66519,21.21046,5.549329996109009
1618837073.68081,20.31554,5.564949989318848
1618837073.69644,19.35149,5.580579996109009
1618837073.71207,18.50552,5.59621000289917
1618837073.72769,17.93826,5.611829996109009
1618837073.74332,17.71461,5.62746000289917
1618837073.75894,17.75967,5.643079996109009
1618837073.77457,17.85686,5.65871000289917
1618837073.79019,17.75784,5.674329996109009
1618837073.80582,17.25055,5.68996000289917
1618837073.82145,16.24285,5.705590009689331
1618837073.83707,14.78349,5.72121000289917
1618837073.8527,13.02896,5.736840009689331
1618837073.86832,11.15791,5.75246000289917
1618837073.88395,9.306442,5.768090009689331
1618837073.89958,7.476662,5.783720016479492
1618837073.9152,5.538704,5.799340009689331
1618837073.93083,3.302322,5.814970016479492
1618837073.94645,0.6273041,5.830590009689331
1618837073.96208,-2.493111,5.846220016479492
1618837073.9777,-5.874298,5.861840009689331
1618837073.99333,-9.275681,5.877470016479492
1618837074.00896,-12.44855,5.893100023269653
1618837074.02458,-15.3241,5.908720016479492
1618837074.04021,-17.98825,5.924350023269653
1618837074.05583,-20.70632,5.939970016479492
1618837074.07146,-23.75889,5.955600023269653
1618837074.08708,-27.35725,5.971220016479492
1618837074.10271,-31.5472,5.986850023269653
1618837074.11834,-36.12889,6.0024800300598145
1618837074.13396,-40.63039,6.018100023269653
1618837074.14959,-44.37257,6.0337300300598145
1618837074.16521,-46.5961,6.049350023269653
1618837074.18084,-46.66234,6.0649800300598145
1618837074.19646,-44.30923,6.080600023269653
1618837074.21209,-39.75021,6.0962300300598145
1618837074.22772,-33.60677,6.111860036849976
1618837074.24334,-26.70604,6.1274800300598145
1618837074.25897,-19.80628,6.143110036849976
1618837074.27459,-13.38404,6.1587300300598145
1618837074.29022,-7.5844,6.174360036849976
1618837074.30584,-2.342533,6.1899800300598145
1618837074.32147,2.507381,6.205610036849976
1618837074.3371,7.082344,6.221240043640137
1618837074.35272,11.42498,6.236860036849976
1618837074.36835,15.51077,6.252490043640137
1618837074.38397,19.25706,6.268110036849976
1618837074.3996,22.55554,6.283740043640137
1618837074.41522,25.26144,6.299360036849976
1618837074.43085,27.23344,6.314990043640137
1618837074.44648,28.3813,6.330620050430298
1618837074.4621,28.69625,6.346240043640137
1618837074.47773,28.2966,6.361870050430298
1618837074.49335,27.38338,6.377490043640137
1618837074.50898,26.22128,6.393120050430298
1618837074.5246,25.01925,6.408740043640137
1618837074.54023,23.94135,6.424370050430298
1618837074.55586,23.02863,6.440000057220459
1618837074.57148,22.22926,6.455620050430298
1618837074.58711,21.4656,6.471250057220459
1618837074.60273,20.63317,6.486870050430298
1618837074.61836,19.67614,6.502500057220459
1618837074.63398,18.57846,6.518120050430298
1618837074.64961,17.34148,6.533750057220459
1618837074.66524,15.91623,6.54938006401062
1618837074.68086,14.22181,6.565000057220459
1618837074.69649,12.16524,6.58063006401062
1618837074.71211,9.727261,6.596250057220459
1618837074.72774,7.001408,6.61188006401062
1618837074.74336,4.165092,6.627500057220459
1618837074.75899,1.411266,6.64313006401062
1618837074.77462,-1.181477,6.658760070800781
1618837074.79024,-3.644413,6.67438006401062
1618837074.80587,-6.130207,6.690010070800781
1618837074.82149,-8.765182,6.70563006401062
1618837074.83712,-11.59136,6.721260070800781
1618837074.85274,-14.58251,6.73688006401062
1618837074.86837,-17.70122,6.752510070800781
1618837074.884,-21.00582,6.768140077590942
1618837074.89962,-24.58908,6.783760070800781
1618837074.91525,-28.51019,6.799390077590942
1618837074.93087,-32.58639,6.815010070800781
1618837074.9465,-36.3243,6.830640077590942
1618837074.96212,-38.98162,6.846260070800781
1618837074.97775,-39.85596,6.861890077590942
1618837074.99338,-38.51725,6.8775200843811035
1618837075.009,-35.0064,6.893140077590942
1618837075.02463,-29.81818,6.9087700843811035
1618837075.04025,-23.69321,6.924390077590942
1618837075.05588,-17.3381,6.9400200843811035
1618837075.0715,-11.20768,6.955640077590942
1618837075.08713,-5.461014,6.9712700843811035
1618837075.10276,-0.09134293,6.986900091171265
1618837075.11838,4.92239,7.0025200843811035
1618837075.13401,9.467831,7.018150091171265
1618837075.14963,13.35258,7.0337700843811035
1618837075.16526,16.40163,7.049400091171265
1618837075.18088,18.55279,7.0650200843811035
1618837075.19651,19.92086,7.080650091171265
1618837075.21214,20.75519,7.096280097961426
1618837075.22776,21.2853,7.111900091171265
1618837075.24339,21.6508,7.127530097961426
1618837075.25901,21.85154,7.143150091171265
1618837075.27464,21.77483,7.158780097961426
1618837075.29026,21.35069,7.174400091171265
1618837075.30589,20.58648,7.190030097961426
1618837075.32152,19.58104,7.205660104751587
1618837075.33714,18.52065,7.221280097961426
1618837075.35277,17.56001,7.236910104751587
1618837075.36839,16.77386,7.252530097961426
1618837075.38402,16.11103,7.268160104751587
1618837075.39964,15.457,7.283780097961426
1618837075.41527,14.71136,7.299410104751587
1618837075.4309,13.84889,7.315040111541748
1618837075.44652,12.91533,7.330660104751587
1618837075.46215,11.96342,7.346290111541748
1618837075.47777,10.9992,7.361910104751587
1618837075.4934,9.900288,7.377540111541748
1618837075.50902,8.468815,7.393160104751587
1618837075.52465,6.521559,7.408790111541748
1618837075.54028,4.016647,7.424420118331909
1618837075.5559,1.08079,7.440040111541748
1618837075.57153,-1.995062,7.455670118331909
1618837075.58715,-4.883614,7.471290111541748
1618837075.60278,-7.392897,7.486920118331909
1618837075.6184,-9.529327,7.502540111541748
1618837075.63403,-11.52799,7.518170118331909
1618837075.64966,-13.7362,7.53380012512207
1618837075.66528,-16.47628,7.549420118331909
1618837075.68091,-19.89688,7.56505012512207
1618837075.69653,-23.97614,7.580670118331909
1618837075.71216,-28.43648,7.59630012512207
1618837075.72778,-32.81881,7.611920118331909
1618837075.74341,-36.54159,7.62755012512207
1618837075.75904,-38.98704,7.6431801319122314
1618837075.77466,-39.60724,7.65880012512207
1618837075.79029,-38.10724,7.6744301319122314
1618837075.80591,-34.51081,7.69005012512207
1618837075.82154,-29.21856,7.7056801319122314
1618837075.83716,-22.88206,7.72130012512207
1618837075.85279,-16.25735,7.7369301319122314
1618837075.86842,-9.972418,7.7525599002838135
1618837075.88404,-4.383085,7.7681801319122314
1618837075.89967,0.4171543,7.7838099002838135
1618837075.91529,4.523802,7.7994301319122314
1618837075.93092,8.082209,7.8150599002838135
1618837075.94654,11.17169,7.8306801319122314
1618837075.96217,13.77441,7.8463099002838135
1618837075.9778,15.80603,7.861939907073975
1618837075.99342,17.1646,7.8775599002838135
1618837076.00905,17.84627,7.893189907073975
1618837076.02467,17.9307,7.9088099002838135
1618837076.0403,17.58857,7.924439907073975
1618837076.05592,17.04115,7.9400599002838135
1618837076.07155,16.45802,7.955689907073975
1618837076.08718,15.95398,7.971319913864136
1618837076.1028,15.5739,7.986939907073975
1618837076.11843,15.318,8.002569913864136
1618837076.13405,15.17147,8.018189907073975
1618837076.14968,15.0677,8.033819913864136
1618837076.1653,14.92654,8.049439907073975
1618837076.18093,14.6655,8.065069913864136
1618837076.19656,14.17742,8.080699920654297
1618837076.21218,13.39359,8.096319913864136
1618837076.22781,12.25366,8.111949920654297
1618837076.24343,10.71704,8.127569913864136
1618837076.25906,8.765987,8.143199920654297
1618837076.27468,6.406683,8.158819913864136
1618837076.29031,3.733528,8.174449920654297
1618837076.30594,0.8763037,8.190079927444458
1618837076.32156,-1.991242,8.205699920654297
1618837076.33719,-4.751441,8.221329927444458
1618837076.35281,-7.363489,8.236949920654297
1618837076.36844,-9.905515,8.252579927444458
1618837076.38406,-12.5256,8.268199920654297
1618837076.39969,-15.36528,8.283829927444458
1618837076.41532,-18.50082,8.29945993423462
1618837076.43094,-21.90593,8.315079927444458
1618837076.44657,-25.48362,8.33070993423462
1618837076.46219,-29.02348,8.346329927444458
1618837076.47782,-32.26668,8.36195993423462
1618837076.49345,-34.86864,8.37758994102478
1618837076.50907,-36.44128,8.39320993423462
1618837076.5247,-36.63049,8.40883994102478
1618837076.54032,-35.20574,8.42445993423462
1618837076.55595,-32.16813,8.44008994102478
1618837076.57157,-27.74453,8.45570993423462
1618837076.5872,-22.33498,8.47133994102478
1618837076.60283,-16.41287,8.486969947814941
1618837076.61845,-10.41298,8.50258994102478
1618837076.63408,-4.620778,8.518219947814941
1618837076.6497,0.7849102,8.53383994102478
1618837076.66533,5.757968,8.549469947814941
1618837076.68095,10.2734,8.56508994102478
1618837076.69658,14.25239,8.580719947814941
1618837076.71221,17.56858,8.596349954605103
1618837076.72783,20.07863,8.611969947814941
1618837076.74346,21.71255,8.627599954605103
1618837076.75908,22.51778,8.643219947814941
1618837076.77471,22.68507,8.658849954605103
1618837076.79033,22.47292,8.674469947814941
1618837076.80596,22.10346,8.690099954605103
1618837076.82159,21.69627,8.705729961395264
1618837076.83721,21.22925,8.721349954605103
1618837076.85284,20.59921,8.736979961395264
1618837076.86846,19.68366,8.752599954605103
1618837076.88409,18.42987,8.768229961395264
1618837076.89971,16.83657,8.783849954605103
1618837076.91534,14.96658,8.799479961395264
1618837076.93097,12.86801,8.815109968185425
1618837076.94659,10.58969,8.830729961395264
1618837076.96222,8.176077,8.846359968185425
1618837076.97784,5.646063,8.861979961395264
1618837076.99347,3.010561,8.877609968185425
1618837077.00909,0.211544,8.893229961395264
1618837077.02472,-2.887421,8.908859968185425
1618837077.04035,-6.465242,8.924489974975586
1618837077.05597,-10.67111,8.940109968185425
1618837077.0716,-15.49385,8.955739974975586
1618837077.08722,-20.73432,8.971359968185425
1618837077.10285,-25.99542,8.986989974975586
1618837077.11847,-30.76785,9.002609968185425
1618837077.1341,-34.60183,9.018239974975586
1618837077.14973,-37.16959,9.033869981765747
1618837077.16535,-38.35321,9.049489974975586
1618837077.18098,-38.26778,9.065119981765747
1618837077.1966,-37.21445,9.080739974975586
1618837077.21223,-35.62055,9.096369981765747
1618837077.22785,-33.94296,9.111989974975586
1618837077.24348,-32.59181,9.127619981765747
1618837077.25911,-31.71605,9.143249988555908
1618837077.27473,-31.17904,9.158869981765747
1618837077.29036,-30.58666,9.174499988555908
1618837077.30598,-29.41338,9.190119981765747
1618837077.32161,-27.26542,9.205749988555908
1618837077.33723,-23.96999,9.221369981765747
1618837077.35286,-19.62487,9.236999988555908
1618837077.36849,-14.38986,9.25262999534607
1618837077.38411,-8.386955,9.268249988555908
1618837077.39974,-1.570595,9.28387999534607
1618837077.41536,6.197269,9.299499988555908
1618837077.43099,14.96919,9.31512999534607
1618837077.44661,24.61708,9.330749988555908
1618837077.46224,34.80643,9.34637999534607
1618837077.47787,44.99807,9.36201000213623
1618837077.49349,54.44385,9.37762999534607
1618837077.50912,62.23967,9.39326000213623
1618837077.52474,67.39882,9.40887999534607
1618837077.54037,69.23264,9.42451000213623
1618837077.55599,67.7344,9.44012999534607
1618837077.57162,63.89841,9.45576000213623
1618837077.58725,59.52575,9.471390008926392
1618837077.60287,56.61053,9.48701000213623
1618837077.6185,56.54575,9.502640008926392
1618837077.63412,59.59061,9.51826000213623
1618837077.64975,64.92072,9.533890008926392
1618837077.66537,71.14717,9.54951000213623
1618837077.681,76.99358,9.565140008926392
1618837077.69663,81.60938,9.580770015716553
1618837077.71225,84.56081,9.596390008926392
1618837077.72788,85.5186,9.612020015716553
1618837077.7435,83.96585,9.627640008926392
1618837077.75913,79.38039,9.643270015716553
1618837077.77475,71.54151,9.658890008926392
1618837077.79038,60.9415,9.674520015716553
1618837077.80601,48.76202,9.690150022506714
1618837077.82163,36.53747,9.705770015716553
1618837077.83726,25.61546,9.721400022506714
1618837077.85288,16.67324,9.737020015716553
1618837077.86851,9.657616,9.752650022506714
1618837077.88413,3.865235,9.768270015716553
1618837077.89976,-1.641233,9.783900022506714
1618837077.91539,-7.702311,9.799530029296875
1618837077.93101,-14.78798,9.815150022506714
1618837077.94664,-22.93196,9.830780029296875
1618837077.96226,-31.76455,9.846400022506714
1618837077.97789,-40.7011,9.862030029296875
1618837077.99351,-49.23181,9.877650022506714
1618837078.00914,-57.0985,9.893280029296875
1618837078.02477,-64.34201,9.908910036087036
1618837078.04039,-71.17991,9.924530029296875
1618837078.05602,-77.69615,9.940160036087036
1618837078.07164,-83.57047,9.955780029296875
1618837078.08727,-88.00266,9.971410036087036
1618837078.10289,-89.875,9.987030029296875
1618837078.11852,-88.2302,10.002660036087036
1618837078.13415,-82.77933,10.018290042877197
1618837078.14977,-74.15408,10.033910036087036
1618837078.1654,-63.80138,10.049540042877197
1618837078.18102,-53.463,10.065160036087036
1618837078.19665,-44.62894,10.080790042877197
1618837078.21227,-38.11868,10.096410036087036
1618837078.2279,-33.97346,10.112040042877197
1618837078.24353,-31.62377,10.127670049667358
1618837078.25915,-30.07099,10.143290042877197
1618837078.27478,-28.05845,10.158920049667358
1618837078.2904,-24.18693,10.174540042877197
1618837078.30603,-17.22263,10.190170049667358
1618837078.32165,-6.55809,10.205790042877197
1618837078.33728,7.385559,10.221420049667358
1618837078.35291,23.08589,10.23705005645752
1618837078.36853,38.33166,10.252670049667358
1618837078.38416,51.09798,10.26830005645752
1618837078.39978,60.34281,10.283920049667358
1618837078.41541,66.37109,10.29955005645752
1618837078.43103,70.46947,10.315170049667358
1618837078.44666,74.08749,10.33080005645752
1618837078.46229,78.07062,10.34643006324768
1618837078.47791,82.43858,10.36205005645752
1618837078.49354,86.71023,10.37768006324768
1618837078.50916,90.49659,10.39330005645752
1618837078.52479,93.94254,10.40893006324768
1618837078.54041,97.60358,10.42455005645752
1618837078.55604,101.9713,10.44018006324768
1618837078.57167,106.9284,10.455810070037842
1618837078.58729,111.5786,10.47143006324768
1618837078.60292,114.6647,10.487060070037842
1618837078.61854,115.2505,10.50268006324768
1618837078.63417,113.3413,10.518310070037842
1618837078.6498,110.0636,10.533940076828003
1618837078.66542,107.1452,10.549560070037842
1618837078.68105,105.9982,10.565190076828003
1618837078.69667,106.8712,10.580810070037842
1618837078.7123,108.391,10.596440076828003
1618837078.72792,107.8922,10.612060070037842
1618837078.74355,102.3278,10.627690076828003
1618837078.75918,89.33377,10.643320083618164
1618837078.7748,68.10149,10.658940076828003
1618837078.79043,39.54698,10.674570083618164
1618837078.80605,6.039597,10.690190076828003
1618837078.82168,-29.31641,10.705820083618164
1618837078.8373,-63.39082,10.721440076828003
1618837078.85293,-93.5195,10.737070083618164
1618837078.86856,-117.8032,10.752700090408325
1618837078.88418,-135.2583,10.768320083618164
1618837078.89981,-145.8273,10.783950090408325
1618837078.91543,-150.2845,10.799570083618164
1618837078.93106,-149.9805,10.815200090408325
1618837078.94668,-146.4865,10.830820083618164
1618837078.96231,-141.2018,10.846450090408325
1618837078.97794,-135.0572,10.862080097198486
1618837078.99356,-128.4724,10.877700090408325
1618837079.00919,-121.502,10.893330097198486
1618837079.02481,-114.1129,10.908950090408325
1618837079.04044,-106.394,10.924580097198486
1618837079.05606,-98.5459,10.940200090408325
1618837079.07169,-90.84192,10.955830097198486
1618837079.08732,-83.44995,10.971460103988647
1618837079.10294,-76.43903,10.987080097198486
1618837079.11857,-69.81943,11.002710103988647
1618837079.13419,-63.64893,11.018330097198486
1618837079.14982,-58.04587,11.033960103988647
1618837079.16544,-53.11032,11.049580097198486
1618837079.18107,-48.7937,11.065210103988647
1618837079.1967,-44.82562,11.080840110778809
1618837079.21232,-40.76245,11.096460103988647
1618837079.22795,-36.21042,11.112090110778809
1618837079.24357,-31.04111,11.127710103988647
1618837079.2592,-25.49887,11.143340110778809
1618837079.27482,-20.13577,11.158960103988647
1618837079.29045,-15.59668,11.174590110778809
1618837079.30608,-12.34271,11.19022011756897
1618837079.3217,-10.42303,11.205840110778809
1618837079.33733,-9.509888,11.22147011756897
1618837079.35295,-9.061462,11.237090110778809
1618837079.36858,-8.588928,11.25272011756897
1618837079.3842,-7.859894,11.268340110778809
1618837079.39983,-6.968689,11.28397011756897
1618837079.41546,-6.207794,11.29960012435913
1618837079.43108,-5.915283,11.31522011756897
1618837079.44671,-6.296265,11.33085012435913
1618837079.46233,-7.353699,11.34647011756897
1618837079.47796,-8.95639,11.36210012435913
1618837079.49358,-10.95157,11.37772011756897
1618837079.50921,-13.25031,11.39335012435913
1618837079.52484,-15.87955,11.408980131149292
1618837079.54046,-18.85742,11.42460012435913
1618837079.55609,-22.04193,11.440230131149292
1618837079.57171,-25.1008,11.45585012435913
1618837079.58734,-27.49246,11.471480131149292
1618837079.60296,-28.61923,11.48710012435913
1618837079.61859,-28.01691,11.502730131149292
1618837079.63422,-25.48453,11.518359899520874
1618837079.64984,-21.15356,11.533980131149292
1618837079.66547,-15.3858,11.549609899520874
1618837079.68109,-8.642059,11.565230131149292
1618837079.69672,-1.364929,11.580859899520874
1618837079.71234,6.074188,11.596480131149292
1618837079.72797,13.36804,11.612109899520874
1618837079.7436,20.25085,11.627739906311035
1618837079.75922,26.45663,11.643359899520874
1618837079.77485,31.74985,11.658989906311035
1618837079.79047,35.94376,11.674609899520874
1618837079.8061,38.9599,11.690239906311035
1618837079.82172,40.80933,11.705859899520874
1618837079.83735,41.66464,11.721489906311035
1618837079.85298,41.77844,11.737119913101196
1618837079.8686,41.45432,11.752739906311035
1618837079.88423,40.95135,11.768369913101196
1618837079.89985,40.3812,11.783989906311035
1618837079.91548,39.73846,11.799619913101196
1618837079.9311,38.88962,11.815239906311035
1618837079.94673,37.66214,11.830869913101196
1618837079.96236,35.93921,11.846499919891357
1618837079.97798,33.68909,11.862119913101196
1618837079.99361,30.97192,11.877749919891357
1618837080.00923,27.92526,11.893369913101196
1618837080.02486,24.66833,11.908999919891357
1618837080.04048,21.25119,11.924619913101196
1618837080.05611,17.66739,11.940249919891357
1618837080.07174,13.81934,11.955879926681519
1618837080.08736,9.596375,11.971499919891357
1618837080.10299,4.957153,11.987129926681519
1618837080.11861,-0.02090454,12.002749919891357
1618837080.13424,-5.082977,12.018379926681519
1618837080.14986,-9.873322,12.033999919891357
1618837080.16549,-14.0542,12.049629926681519
1618837080.18112,-17.46164,12.06525993347168
1618837080.19674,-20.23575,12.080879926681519
1618837080.21237,-22.84796,12.09650993347168
1618837080.22799,-25.99384,12.112129926681519
1618837080.24362,-30.3287,12.12775993347168
1618837080.25924,-36.19104,12.143379926681519
1618837080.27487,-43.37372,12.15900993347168
1618837080.2905,-51.06854,12.17463994026184
1618837080.30612,-58.03967,12.19025993347168
1618837080.32175,-62.98276,12.20588994026184
1618837080.33737,-64.9061,12.22150993347168
1618837080.353,-63.45813,12.23713994026184
1618837080.36862,-58.96078,12.25275993347168
1618837080.38425,-52.15778,12.26838994026184
1618837080.39988,-43.97427,12.284019947052002
1618837080.4155,-35.18756,12.29963994026184
1618837080.43113,-26.32462,12.315269947052002
1618837080.44675,-17.74057,12.33088994026184
1618837080.46238,-9.740784,12.346519947052002
1618837080.478,-2.613464,12.36213994026184
1618837080.49363,3.403687,12.377769947052002
1618837080.50926,8.250763,12.393399953842163
1618837080.52488,12.07178,12.409019947052002
1618837080.54051,15.14429,12.424649953842163
1618837080.55613,17.70572,12.440269947052002
1618837080.57176,19.78687,12.455899953842163
1618837080.58738,21.16367,12.471519947052002
1618837080.60301,21.46399,12.487149953842163
1618837080.61864,20.36221,12.502779960632324
1618837080.63426,17.7327,12.518399953842163
1618837080.64989,13.79077,12.534029960632324
1618837080.66551,9.051483,12.549649953842163
1618837080.68114,4.228607,12.565279960632324
1618837080.69676,0.06896973,12.580899953842163
1618837080.71239,-2.824371,12.596529960632324
1618837080.72802,-4.144531,12.612159967422485
1618837080.74364,-3.982635,12.627779960632324
1618837080.75927,-2.755402,12.643409967422485
1618837080.77489,-1.083496,12.659029960632324
1618837080.79052,0.4479675,12.674659967422485
1618837080.80614,1.451935,12.690279960632324
1618837080.82177,1.81987,12.705909967422485
1618837080.8374,1.702209,12.721539974212646
1618837080.85302,1.383148,12.737159967422485
1618837080.86865,1.106216,12.752789974212646
1618837080.88427,1.004272,12.768409967422485
1618837080.8999,1.037796,12.784039974212646
1618837080.91552,1.026672,12.799659967422485
1618837080.93115,0.7579803,12.815289974212646
1618837080.94678,0.05783081,12.830919981002808
1618837080.9624,-1.118301,12.846539974212646
1618837080.97803,-2.679855,12.862169981002808
1618837080.99365,-4.466217,12.877789974212646
1618837081.00928,-6.312241,12.893419981002808
1618837081.0249,-8.117371,12.909039974212646
1618837081.04053,-9.785248,12.924669981002808
1618837081.05616,-11.15794,12.940299987792969
1618837081.07178,-11.87524,12.955919981002808
1618837081.08741,-11.3876,12.971549987792969
1618837081.10303,-9.115067,12.987169981002808
1618837081.11866,-4.70224,13.002799987792969
1618837081.13428,1.684982,13.018419981002808
1618837081.14991,9.372925,13.034049987792969
1618837081.16554,17.3732,13.04967999458313
1618837081.18116,24.79933,13.065299987792969
1618837081.19679,31.19145,13.08092999458313
1618837081.21241,36.64963,13.096549987792969
1618837081.22804,41.62779,13.11217999458313
1618837081.24366,46.64873,13.127799987792969
1618837081.25929,51.99742,13.14342999458313
1618837081.27492,57.58527,13.159060001373291
1618837081.29054,63.00977,13.17467999458313
1618837081.30617,67.76199,13.190310001373291
1618837081.32179,71.36623,13.20592999458313
1618837081.33742,73.46136,13.221560001373291
1618837081.35305,73.82515,13.237190008163452
1618837081.36867,72.34724,13.252810001373291
1618837081.3843,69.0399,13.268440008163452
1618837081.39992,64.09285,13.284060001373291
1618837081.41555,57.86414,13.299690008163452
1618837081.43117,50.86453,13.315310001373291
1618837081.4468,43.64549,13.330940008163452
1618837081.46243,36.72318,13.346570014953613
1618837081.47805,30.47069,13.362190008163452
1618837081.49368,25.10948,13.377820014953613
1618837081.5093,20.7037,13.393440008163452
1618837081.52493,17.17587,13.409070014953613
1618837081.54055,14.31201,13.424690008163452
1618837081.55618,11.84064,13.440320014953613
1618837081.57181,9.430496,13.455950021743774
1618837081.58743,6.7789,13.471570014953613
1618837081.60306,3.669083,13.487200021743774
1618837081.61868,0.02809143,13.502820014953613
1618837081.63431,-4.08963,13.518450021743774
1618837081.64993,-8.506119,13.534070014953613
1618837081.66556,-13.03172,13.549700021743774
1618837081.68119,-17.51869,13.565330028533936
1618837081.69681,-21.93622,13.580950021743774
1618837081.71244,-26.39008,13.596580028533936
1618837081.72806,-31.07939,13.612200021743774
1618837081.74369,-36.20261,13.627830028533936
1618837081.75931,-41.86285,13.643450021743774
1618837081.77494,-47.96431,13.659080028533936
1618837081.79057,-54.20236,13.674710035324097
1618837081.80619,-60.02919,13.690330028533936
1618837081.82182,-64.73668,13.705960035324097
1618837081.83744,-67.55591,13.721580028533936
1618837081.85307,-67.87665,13.737210035324097
1618837081.86869,-65.40536,13.752830028533936
1618837081.88432,-60.25491,13.768460035324097
1618837081.89995,-52.9588,13.784090042114258
1618837081.91557,-44.32495,13.799710035324097
1618837081.9312,-35.17688,13.815340042114258
1618837081.94682,-26.15652,13.830960035324097
1618837081.96245,-17.61829,13.846590042114258
1618837081.97807,-9.686249,13.862210035324097
1618837081.9937,-2.378021,13.877840042114258
1618837082.00933,4.215973,13.893470048904419
1618837082.02495,9.894958,13.909090042114258
1618837082.04058,14.41422,13.924720048904419
1618837082.0562,17.60825,13.940340042114258
1618837082.07183,19.51846,13.955970048904419
1618837082.08745,20.39771,13.971590042114258
1618837082.10308,20.62112,13.987220048904419
1618837082.11871,20.49921,14.00285005569458
1618837082.13433,20.19562,14.018470048904419
1618837082.14996,19.69699,14.03410005569458
1618837082.16558,18.91049,14.049720048904419
1618837082.18121,17.77261,14.06535005569458
1618837082.19683,16.36554,14.080970048904419
1618837082.21246,14.91113,14.09660005569458
1618837082.22809,13.67892,14.112230062484741
1618837082.24371,12.85535,14.12785005569458
1618837082.25934,12.461,14.143480062484741
1618837082.27496,12.3717,14.15910005569458
1618837082.29059,12.33975,14.174730062484741
1618837082.30621,12.14926,14.19035005569458
1618837082.32184,11.63895,14.205980062484741
1618837082.33747,10.75876,14.221610069274902
1618837082.35309,9.481537,14.237230062484741
1618837082.36872,7.768707,14.252860069274902
1618837082.38434,5.584656,14.268480062484741
1618837082.39997,2.884277,14.284110069274902
1618837082.41559,-0.3168945,14.299730062484741
1618837082.43122,-3.918793,14.315360069274902
1618837082.44685,-7.752106,14.330990076065063
1618837082.46247,-11.62473,14.346610069274902
1618837082.4781,-15.38165,14.362240076065063
1618837082.49372,-18.93857,14.377860069274902
1618837082.50935,-22.33643,14.393490076065063
1618837082.52497,-25.70282,14.409110069274902
1618837082.5406,-29.21759,14.424740076065063
1618837082.55623,-33.02914,14.440370082855225
1618837082.57185,-37.13492,14.455990076065063
1618837082.58748,-41.26813,14.471620082855225
1618837082.6031,-44.93335,14.487240076065063
1618837082.61873,-47.45663,14.502870082855225
1618837082.63435,-48.17419,14.518490076065063
1618837082.64998,-46.66748,14.534120082855225
1618837082.66561,-42.87875,14.549750089645386
1618837082.68123,-37.16318,14.565370082855225
1618837082.69686,-30.20978,14.581000089645386
1618837082.71248,-22.81046,14.596620082855225
1618837082.72811,-15.63458,14.612250089645386
1618837082.74373,-9.178436,14.627870082855225
1618837082.75936,-3.624664,14.643500089645386
1618837082.77499,1.054108,14.659130096435547
1618837082.79061,5.047272,14.674750089645386
1618837082.80624,8.572327,14.690380096435547
1618837082.82186,11.79739,14.706000089645386
1618837082.83749,14.81989,14.721630096435547
1618837082.85311,17.61261,14.737250089645386
1618837082.86874,20.06174,14.752880096435547
1618837082.88437,22.01993,14.768510103225708
1618837082.89999,23.30933,14.784130096435547
1618837082.91562,23.81119,14.799760103225708
1618837082.93124,23.51627,14.815380096435547
1618837082.94687,22.55493,14.831010103225708
1618837082.96249,21.20615,14.846630096435547
1618837082.97812,19.79242,14.862260103225708
1618837082.99375,18.62158,14.87789011001587
1618837083.00937,17.89301,14.893510103225708
1618837083.025,17.61774,14.90914011001587
1618837083.04062,17.68027,14.924760103225708
1618837083.05625,17.86816,14.94039011001587
1618837083.07187,17.93967,14.956010103225708
1618837083.0875,17.69409,14.97164011001587
1618837083.10313,17.02951,14.98727011680603
1618837083.11875,15.89874,15.00289011001587
1618837083.13438,14.32446,15.01852011680603
1618837083.15,12.33817,15.03414011001587
1618837083.16563,9.981384,15.04977011680603
1618837083.18125,7.292511,15.06539011001587
1618837083.19688,4.335602,15.08102011680603
1618837083.21251,1.175507,15.096650123596191
1618837083.22813,-2.099304,15.11227011680603
1618837083.24376,-5.403625,15.127900123596191
1618837083.25938,-8.640656,15.14352011680603
1618837083.27501,-11.77405,15.159150123596191
1618837083.29063,-14.85864,15.17477011680603
1618837083.30626,-18.05014,15.190400123596191
1618837083.32189,-21.55029,15.206030130386353
1618837083.33751,-25.51654,15.221650123596191
1618837083.35314,-29.94003,15.237280130386353
1618837083.36876,-34.59177,15.252900123596191
1618837083.38439,-39.0258,15.268530130386353
1618837083.40001,-42.67128,15.284150123596191
1618837083.41564,-44.95169,15.299780130386353
1618837083.43127,-45.40005,15.315409898757935
1618837083.44689,-43.7928,15.331030130386353
1618837083.46252,-40.1382,15.346659898757935
1618837083.47814,-34.71892,15.362280130386353
1618837083.49377,-28.03258,15.377909898757935
1618837083.50939,-20.67444,15.393530130386353
1618837083.52502,-13.22006,15.409159898757935
1618837083.54065,-6.105026,15.424789905548096
1618837083.55627,0.4537201,15.440409898757935
1618837083.5719,6.400436,15.456039905548096
1618837083.58752,11.76151,15.471659898757935
1618837083.60315,16.51781,15.487289905548096
1618837083.61878,20.54625,15.502919912338257
1618837083.6344,23.67825,15.518539905548096
1618837083.65003,25.78421,15.534169912338257
1618837083.66565,26.89699,15.549789905548096
1618837083.68128,27.20604,15.565419912338257
1618837083.6969,27.01178,15.581039905548096
1618837083.71253,26.61862,15.596669912338257
1618837083.72816,26.21878,15.612299919128418
1618837083.74378,25.86075,15.627919912338257
1618837083.75941,25.46797,15.643549919128418
1618837083.77503,24.93326,15.659169912338257
1618837083.79066,24.17038,15.674799919128418
1618837083.80628,23.16713,15.690419912338257
1618837083.82191,22.0027,15.706049919128418
1618837083.83754,20.78456,15.721679925918579
1618837083.85316,19.60883,15.737299919128418
1618837083.86879,18.46228,15.752929925918579
1618837083.88441,17.23134,15.768549919128418
1618837083.90004,15.72461,15.784179925918579
1618837083.91566,13.71745,15.799799919128418
1618837083.93129,11.0748,15.815429925918579
1618837083.94692,7.797195,15.83105993270874
1618837083.96254,4.054901,15.846679925918579
1618837083.97817,0.1242828,15.86230993270874
1618837083.99379,-3.696259,15.877929925918579
1618837084.00942,-7.174805,15.89355993270874
1618837084.02504,-10.20215,15.909179925918579
1618837084.04067,-12.80363,15.92480993270874
1618837084.0563,-15.09732,15.940439939498901
1618837084.07192,-17.29179,15.95605993270874
1618837084.08755,-19.63049,15.971689939498901
1618837084.10317,-22.35265,15.98730993270874
1618837084.1188,-25.63446,16.0029399394989
1618837084.13442,-29.44817,16.01855993270874
1618837084.15005,-33.5491,16.0341899394989
1618837084.16568,-37.40607,16.049819946289062
1618837084.1813,-40.3013,16.0654399394989
1618837084.19693,-41.52428,16.081069946289062
1618837084.21255,-40.56128,16.0966899394989
1618837084.22818,-37.3109,16.112319946289062
1618837084.2438,-32.03362,16.1279399394989
1618837084.25943,-25.29976,16.143569946289062
1618837084.27506,-17.75208,16.159199953079224
1618837084.29068,-9.998825,16.174819946289062
1618837084.30631,-2.477219,16.190449953079224
1618837084.32193,4.534134,16.206069946289062
1618837084.33756,10.90752,16.221699953079224
1618837084.35318,16.59843,16.237319946289062
1618837084.36881,21.58427,16.252949953079224
1618837084.38444,25.8288,16.268579959869385
1618837084.40006,29.22192,16.284199953079224
1618837084.41569,31.61613,16.299829959869385
1618837084.43131,32.85263,16.315449953079224
1618837084.44694,32.89145,16.331079959869385
1618837084.46256,31.83214,16.346699953079224
1618837084.47819,30.00433,16.362329959869385
1618837084.49382,27.83435,16.377959966659546
1618837084.50944,25.67253,16.393579959869385
1618837084.52507,23.72345,16.409209966659546
1618837084.54069,21.95227,16.424829959869385
1618837084.55632,20.18895,16.440459966659546
1618837084.57194,18.26961,16.456079959869385
1618837084.58757,16.1655,16.471709966659546
1618837084.6032,14.00084,16.487339973449707
1618837084.61882,12.00383,16.502959966659546
1618837084.63445,10.39749,16.518589973449707
1618837084.65007,9.282379,16.534209966659546
1618837084.6657,8.61647,16.549839973449707
1618837084.68132,8.219559,16.565459966659546
1618837084.69695,7.835129,16.581089973449707
1618837084.71258,7.1875,16.596719980239868
1618837084.7282,6.080688,16.612339973449707
1618837084.74383,4.410385,16.627969980239868
1618837084.75945,2.223389,16.643589973449707
1618837084.77508,-0.3271027,16.659219980239868
1618837084.7907,-3.060455,16.674839973449707
1618837084.80633,-5.846039,16.690469980239868
1618837084.82196,-8.69162,16.70609998703003
1618837084.83758,-11.68446,16.721719980239868
1618837084.85321,-14.96364,16.73734998703003
1618837084.86883,-18.63393,16.752969980239868
1618837084.88446,-22.67577,16.76859998703003
1618837084.90008,-26.92419,16.784219980239868
1618837084.91571,-31.03099,16.79984998703003
1618837084.93134,-34.50835,16.81547999382019
1618837084.94696,-36.77966,16.83109998703003
1618837084.96259,-37.33247,16.84672999382019
1618837084.97821,-35.85176,16.86234998703003
1618837084.99384,-32.30334,16.87797999382019
1618837085.00946,-26.99493,16.89359998703003
1618837085.02509,-20.4857,16.90922999382019
1618837085.04072,-13.40158,16.92486000061035
1618837085.05634,-6.300613,16.94047999382019
1618837085.07197,0.4498138,16.95611000061035
1618837085.08759,6.67749,16.97172999382019
1618837085.10322,12.28197,16.98736000061035
1618837085.11884,17.16489,17.00297999382019
1618837085.13447,21.1819,17.01861000061035
1618837085.1501,24.18694,17.034240007400513
1618837085.16572,26.1232,17.04986000061035
1618837085.18135,27.07201,17.065490007400513
1618837085.19697,27.23213,17.08111000061035
1618837085.2126,26.81587,17.096740007400513
1618837085.22822,25.97789,17.11236000061035
1618837085.24385,24.73334,17.127990007400513
1618837085.25948,23.07626,17.143620014190674
1618837085.2751,21.02275,17.159240007400513
1618837085.29073,18.74162,17.174870014190674
1618837085.30635,16.56143,17.190490007400513
1618837085.32198,14.77257,17.206120014190674
1618837085.3376,13.54106,17.221740007400513
1618837085.35323,12.79262,17.237370014190674
1618837085.36886,12.24023,17.253000020980835
1618837085.38448,11.55679,17.268620014190674
1618837085.40011,10.51347,17.284250020980835
1618837085.41573,9.034409,17.299870014190674
1618837085.43136,7.138794,17.315500020980835
1618837085.44698,4.826355,17.331120014190674
1618837085.46261,2.035675,17.346750020980835
1618837085.47824,-1.29332,17.362380027770996
1618837085.49386,-5.117691,17.378000020980835
1618837085.50949,-9.172424,17.393630027770996
1618837085.52511,-13.00323,17.409250020980835
1618837085.54074,-16.09758,17.424880027770996
1618837085.55636,-18.12764,17.440500020980835
1618837085.57199,-19.11377,17.456130027770996
1618837085.58762,-19.45044,17.471760034561157
1618837085.60324,-19.77043,17.487380027770996
1618837085.61887,-20.71394,17.503010034561157
1618837085.63449,-22.69124,17.518630027770996
1618837085.65012,-25.77689,17.534260034561157
1618837085.66574,-29.74232,17.549880027770996
1618837085.68137,-34.14696,17.565510034561157
1618837085.697,-38.4649,17.58114004135132
1618837085.71262,-42.12318,17.596760034561157
1618837085.72825,-44.54674,17.61239004135132
1618837085.74387,-45.2218,17.628010034561157
1618837085.7595,-43.77539,17.64364004135132
1618837085.77513,-40.16515,17.65927004814148
1618837085.79075,-34.71736,17.67489004135132
1618837085.80638,-28.11853,17.69052004814148
1618837085.822,-21.18385,17.70614004135132
1618837085.83763,-14.6051,17.72177004814148
1618837085.85325,-8.77829,17.73739004135132
1618837085.86888,-3.729958,17.75302004814148
1618837085.88451,0.774231,17.76865005493164
1618837085.90013,5.05899,17.78427004814148
1618837085.91576,9.367439,17.79990005493164
1618837085.93138,13.79782,17.81552004814148
1618837085.94701,18.27267,17.83115005493164
1618837085.96263,22.64405,17.84677004814148
1618837085.97826,26.72406,17.86240005493164
1618837085.99389,30.34193,17.8780300617218
1618837086.00951,33.3713,17.89365005493164
1618837086.02514,35.71436,17.9092800617218
1618837086.04076,37.33126,17.92490005493164
1618837086.05639,38.26083,17.9405300617218
1618837086.07201,38.61893,17.95615005493164
1618837086.08764,38.53462,17.9717800617218
1618837086.10327,38.09708,17.987410068511963
1618837086.11889,37.27328,18.0030300617218
1618837086.13452,35.92608,18.018660068511963
1618837086.15014,33.85532,18.0342800617218
1618837086.16577,30.92986,18.049910068511963
1618837086.18139,27.16377,18.0655300617218
1618837086.19702,22.75276,18.081160068511963
1618837086.21265,18.05328,18.096790075302124
1618837086.22827,13.46689,18.112410068511963
1618837086.2439,9.331497,18.128040075302124
1618837086.25952,5.860092,18.143660068511963
1618837086.27515,3.100479,18.159290075302124
1618837086.29077,1.004021,18.174910068511963
1618837086.3064,-0.5223389,18.190540075302124
1618837086.32203,-1.545532,18.206170082092285
1618837086.33765,-2.101997,18.221790075302124
1618837086.35328,-2.218719,18.237420082092285
1618837086.3689,-1.984779,18.253040075302124
1618837086.38453,-1.574547,18.268670082092285
1618837086.40015,-1.209938,18.284290075302124
1618837086.41578,-1.104362,18.299920082092285
1618837086.43141,-1.385628,18.315550088882446
1618837086.44703,-2.115433,18.331170082092285
1618837086.46266,-3.249947,18.346800088882446
1618837086.47828,-4.708916,18.362420082092285
1618837086.49391,-6.35321,18.378050088882446
1618837086.50953,-7.910179,18.393670082092285
1618837086.52516,-9.007751,18.409300088882446
1618837086.54079,-9.131348,18.424930095672607
1618837086.55641,-7.839752,18.440550088882446
1618837086.57204,-4.91703,18.456180095672607
1618837086.58766,-0.5263519,18.471800088882446
1618837086.60329,4.820877,18.487430095672607
1618837086.61891,10.39774,18.503050088882446
1618837086.63454,15.56181,18.518680095672607
1618837086.65017,19.86124,18.53431010246277
1618837086.66579,23.15035,18.549930095672607
1618837086.68142,25.52115,18.56556010246277
1618837086.69704,27.15133,18.581180095672607
1618837086.71267,28.2085,18.59681010246277
1618837086.72829,28.76695,18.612430095672607
1618837086.74392,28.81898,18.62806010246277
1618837086.75955,28.35627,18.64369010925293
1618837086.77517,27.44008,18.65931010246277
1618837086.7908,26.2261,18.67494010925293
1618837086.80642,24.87906,18.69056010246277
1618837086.82205,23.49331,18.70619010925293
1618837086.83767,21.99006,18.72181010246277
1618837086.8533,20.22476,18.73744010925293
1618837086.86893,18.04762,18.75307011604309
1618837086.88455,15.48454,18.76869010925293
1618837086.90018,12.7582,18.78432011604309
1618837086.9158,10.22129,18.79994010925293
1618837086.93143,8.171776,18.81557011604309
1618837086.94705,6.676651,18.83119010925293
1618837086.96268,5.49794,18.84682011604309
1618837086.97831,4.230225,18.862450122833252
1618837086.99393,2.527557,18.87807011604309
1618837087.00956,0.2306824,18.893700122833252
1618837087.02518,-2.597595,18.90932011604309
1618837087.04081,-5.784225,18.924950122833252
1618837087.05643,-9.144699,18.94057011604309
1618837087.07206,-12.5309,18.956200122833252
1618837087.08769,-15.82239,18.971830129623413
1618837087.10331,-19.03519,18.987450122833252
1618837087.11894,-22.14622,19.003080129623413
1618837087.13456,-25.11626,19.018700122833252
1618837087.15019,-28.06769,19.034330129623413
1618837087.16581,-31.27203,19.049950122833252
1618837087.18144,-35.13263,19.065580129623413
1618837087.19707,-39.91998,19.081209897994995
1618837087.21269,-45.62746,19.096830129623413
1618837087.22832,-51.82536,19.112459897994995
1618837087.24394,-58.01175,19.128080129623413
1618837087.25957,-63.49461,19.143709897994995
1618837087.27519,-67.57784,19.159330129623413
1618837087.29082,-69.83704,19.174959897994995
1618837087.30645,-70.22742,19.190589904785156
1618837087.32207,-69.10139,19.206209897994995
1618837087.3377,-66.95186,19.221839904785156
1618837087.35332,-64.2356,19.237459897994995
1618837087.36895,-61.17923,19.253089904785156
1618837087.38457,-58.1695,19.268709897994995
1618837087.4002,-55.30904,19.284339904785156
1618837087.41583,-52.53758,19.299969911575317
1618837087.43145,-49.8017,19.315589904785156
1618837087.44708,-47.24443,19.331219911575317
1618837087.4627,-45.13278,19.346839904785156
1618837087.47833,-43.6394,19.362469911575317
1618837087.49395,-42.67095,19.378089904785156
1618837087.50958,-41.71498,19.393719911575317
1618837087.52521,-40.50409,19.40934991836548
1618837087.54083,-38.50964,19.424969911575317
1618837087.55646,-35.1081,19.44059991836548
1618837087.57208,-29.86453,19.456219911575317
1618837087.58771,-22.77869,19.47184991836548
1618837087.60333,-14.46823,19.487469911575317
1618837087.61896,-5.826477,19.50309991836548
1618837087.63459,2.271507,19.51872992515564
1618837087.65021,12.40577,19.53434991836548
1618837087.66584,25.5016,19.54997992515564
1618837087.68146,41.07795,19.56559991836548
1618837087.69709,57.70032,19.58122992515564
1618837087.71271,73.99159,19.59684991836548
1618837087.72834,88.9931,19.61247992515564
1618837087.74397,101.8325,19.6281099319458
1618837087.75959,111.7508,19.64372992515564
1618837087.77522,118.2283,19.6593599319458
1618837087.79084,121.4767,19.67497992515564
1618837087.80647,121.7108,19.6906099319458
1618837087.82209,119.6345,19.70622992515564
1618837087.83772,115.96,19.7218599319458
1618837087.85335,111.1416,19.737489938735962
1618837087.86897,105.1444,19.7531099319458
1618837087.8846,97.32472,19.768739938735962
1618837087.90022,87.34689,19.7843599319458
1618837087.91585,74.11481,19.799989938735962
1618837087.93147,57.38042,19.8156099319458
1618837087.9471,37.56538,19.831239938735962
1618837087.96273,16.45541,19.846869945526123
1618837087.97835,-3.009819,19.862489938735962
1618837087.99398,-17.44603,19.878119945526123
1618837088.0096,-24.20817,19.893739938735962
1618837088.02523,-22.51392,19.909369945526123
1618837088.04085,-13.55429,19.924989938735962
1618837088.05648,-0.2059479,19.940619945526123
1618837088.07211,14.16454,19.956249952316284
1618837088.08773,26.40517,19.971869945526123
1618837088.10336,34.70159,19.987499952316284
1618837088.11898,38.71884,20.003119945526123
1618837088.13461,39.11016,20.018749952316284
1618837088.15023,37.97534,20.034369945526123
1618837088.16586,36.65826,20.049999952316284
1618837088.18149,36.09822,20.065629959106445
1618837088.19711,36.65151,20.081249952316284
1618837088.21274,38.37555,20.096879959106445
1618837088.22836,40.90524,20.112499952316284
1618837088.24399,43.75095,20.128129959106445
1618837088.25961,46.39414,20.143749952316284
1618837088.27524,48.36968,20.159379959106445
1618837088.29087,49.3192,20.175009965896606
1618837088.30649,48.8217,20.190629959106445
1618837088.32212,46.82542,20.206259965896606
1618837088.33774,43.56044,20.221879959106445
1618837088.35337,39.56422,20.237509965896606
1618837088.36899,35.3781,20.253129959106445
1618837088.38462,31.36415,20.268759965896606
1618837088.40025,27.56554,20.284389972686768
1618837088.41587,23.76906,20.300009965896606
1618837088.4315,19.69792,20.315639972686768
1618837088.44712,15.0901,20.331259965896606
1618837088.46275,9.971451,20.346889972686768
1618837088.47838,4.508133,20.36251997947693
1618837088.494,-1.046509,20.378139972686768
1618837088.50963,-6.583221,20.39376997947693
1618837088.52525,-12.1293,20.409389972686768
1618837088.54088,-17.83147,20.42501997947693
1618837088.5565,-23.82283,20.440639972686768
1618837088.57213,-30.05965,20.45626997947693
1618837088.58776,-36.44125,20.47189998626709
1618837088.60338,-42.7157,20.48751997947693
1618837088.61901,-48.59138,20.50314998626709
1618837088.63463,-53.77664,20.51876997947693
1618837088.65026,-58.01416,20.53439998626709
1618837088.66588,-61.14119,20.55001997947693
1618837088.68151,-63.05685,20.56564998626709
1618837088.69714,-63.81235,20.58127999305725
1618837088.71276,-63.61658,20.59689998626709
1618837088.72839,-62.93112,20.61252999305725
1618837088.74401,-62.35391,20.62814998626709
1618837088.75964,-62.5011,20.64377999305725
1618837088.77526,-63.89157,20.65939998626709
1618837088.79089,-66.77487,20.67502999305725
1618837088.80652,-71.02722,20.690659999847412
1618837088.82214,-76.1268,20.70627999305725
1618837088.83777,-81.21454,20.721909999847412
1618837088.85339,-85.29074,20.73752999305725
1618837088.86902,-87.44696,20.753159999847412
1618837088.88464,-87.06186,20.76877999305725
1618837088.90027,-83.94717,20.784409999847412
1618837088.9159,-78.37018,20.800040006637573
1618837088.93152,-70.91159,20.815659999847412
1618837088.94715,-62.31351,20.831290006637573
1618837088.96277,-53.26453,20.846909999847412
1618837088.9784,-44.31396,20.862540006637573
1618837088.99402,-35.80444,20.878159999847412
1618837089.00965,-27.96222,20.893790006637573
1618837089.02528,-20.92648,20.909420013427734
1618837089.0409,-14.77286,20.925040006637573
1618837089.05653,-9.503601,20.940670013427734
1618837089.07215,-5.023895,20.956290006637573
1618837089.08778,-1.125214,20.971920013427734
1618837089.1034,2.357635,20.987540006637573
1618837089.11903,5.474182,21.003170013427734
1618837089.13466,8.094086,21.018800020217896
1618837089.15028,9.942078,21.034420013427734
1618837089.16591,10.74649,21.050050020217896
1618837089.18153,10.40082,21.065670013427734
1618837089.19716,9.056854,21.081300020217896
1618837089.21278,7.117493,21.096920013427734
1618837089.22841,5.122589,21.112550020217896
1618837089.24404,3.547913,21.128180027008057
1618837089.25966,2.693451,21.143800020217896
1618837089.27529,2.579926,21.159430027008057
1618837089.29091,2.966217,21.175050020217896
1618837089.30654,3.470337,21.190680027008057
1618837089.32216,3.710724,21.206300020217896
1618837089.33779,3.409271,21.221930027008057
1618837089.35342,2.444,21.237560033798218
1618837089.36904,0.8694153,21.253180027008057
1618837089.38467,-1.178925,21.268810033798218
1618837089.40029,-3.509247,21.284430027008057
1618837089.41592,-5.957214,21.300060033798218
1618837089.43154,-8.404602,21.315680027008057
1618837089.44717,-10.8089,21.331310033798218
1618837089.4628,-13.17172,21.34694004058838
1618837089.47842,-15.57138,21.362560033798218
1618837089.49405,-18.10049,21.37819004058838
1618837089.50967,-20.82693,21.393810033798218
1618837089.5253,-23.7373,21.40944004058838
1618837089.54092,-26.75134,21.425060033798218
1618837089.55655,-29.73795,21.44069004058838
1618837089.57218,-32.65556,21.45632004737854
1618837089.5878,-35.58307,21.47194004058838
1618837089.60343,-38.76863,21.48757004737854
1618837089.61905,-42.44275,21.50319004058838
1618837089.63468,-46.64603,21.51882004737854
1618837089.6503,-51.07527,21.53444004058838
1618837089.66593,-55.05484,21.55007004737854
1618837089.68156,-57.71988,21.5657000541687
1618837089.69718,-58.24142,21.58132004737854
1618837089.71281,-56.13481,21.5969500541687
1618837089.72843,-51.35562,21.61257004737854
1618837089.74406,-44.32053,21.6282000541687
1618837089.75968,-35.77713,21.64382004737854
1618837089.77531,-26.5601,21.6594500541687
1618837089.79094,-17.41377,21.675080060958862
1618837089.80656,-8.833191,21.6907000541687
1618837089.82219,-1.035065,21.706330060958862
1618837089.83781,5.984299,21.7219500541687
1618837089.85344,12.3192,21.737580060958862
1618837089.86906,18.00732,21.7532000541687
1618837089.88469,22.967,21.768830060958862
1618837089.90032,27.00081,21.784460067749023
1618837089.91594,29.85788,21.800080060958862
1618837089.93157,31.37633,21.815710067749023
1618837089.94719,31.55754,21.831330060958862
1618837089.96282,30.60773,21.846960067749023
1618837089.97844,28.85736,21.862580060958862
1618837089.99407,26.70114,21.878210067749023
1618837090.0097,24.44725,21.893840074539185
1618837090.02532,22.31447,21.909460067749023
1618837090.04095,20.36066,21.925090074539185
1618837090.05657,18.60379,21.940710067749023
1618837090.0722,17.00383,21.956340074539185
1618837090.08782,15.56387,21.971960067749023
1618837090.10345,14.23676,21.987590074539185
1618837090.11908,12.92829,22.003220081329346
1618837090.1347,11.43121,22.018840074539185
1618837090.15033,9.441261,22.034470081329346
1618837090.16595,6.7089,22.050090074539185
1618837090.18158,3.127777,22.065720081329346
1618837090.1972,-1.154358,22.081340074539185
1618837090.21283,-5.805344,22.096970081329346
1618837090.22846,-10.48739,22.112600088119507
1618837090.24408,-15.04707,22.128220081329346
1618837090.25971,-19.59108,22.143850088119507
1618837090.27533,-24.46223,22.159470081329346
1618837090.29096,-29.98946,22.175100088119507
1618837090.30658,-36.33157,22.190720081329346
1618837090.32221,-43.3814,22.206350088119507
1618837090.33784,-50.8288,22.221980094909668
1618837090.35346,-58.35714,22.237600088119507
1618837090.36909,-65.75977,22.253230094909668
1618837090.38471,-73.03317,22.268850088119507
1618837090.40034,-80.21829,22.284480094909668
1618837090.41596,-87.32426,22.300100088119507
1618837090.43159,-94.19511,22.315730094909668
1618837090.44722,-100.5185,22.33136010169983
1618837090.46284,-105.8087,22.346980094909668
1618837090.47847,-109.4233,22.36261010169983
1618837090.49409,-110.615,22.378230094909668
1618837090.50972,-108.6232,22.39386010169983
1618837090.52534,-102.8009,22.409480094909668
1618837090.54097,-92.85039,22.42511010169983
1618837090.5566,-78.85606,22.44074010848999
1618837090.57222,-61.35847,22.45636010169983
1618837090.58785,-41.2664,22.47199010848999
1618837090.60347,-19.76153,22.48761010169983
1618837090.6191,1.78672,22.50324010848999
1618837090.63473,21.99071,22.51887011528015
1618837090.65035,39.60195,22.53449010848999
1618837090.66598,53.83818,22.55012011528015
1618837090.6816,64.5739,22.56574010848999
1618837090.69723,72.39294,22.58137011528015
1618837090.71285,78.34418,22.59699010848999
1618837090.72848,83.52649,22.61262011528015
1618837090.74411,88.70871,22.628250122070312
1618837090.75973,94.18874,22.64387011528015
1618837090.77536,99.93245,22.659500122070312
1618837090.79098,105.8163,22.67512011528015
1618837090.80661,111.7012,22.690750122070312
1618837090.82223,117.2418,22.70637011528015
1618837090.83786,121.6607,22.722000122070312
1618837090.85349,123.7319,22.737630128860474
1618837090.86911,122.2539,22.753250122070312
1618837090.88474,116.7477,22.768880128860474
1618837090.90036,107.9718,22.784500122070312
1618837090.91599,97.95345,22.800130128860474
1618837090.93161,89.24078,22.815750122070312
1618837090.94724,83.8676,22.831380128860474
1618837090.96287,82.58852,22.847009897232056
1618837090.97849,84.76862,22.862630128860474
1618837090.99412,88.9045,22.878259897232056
1618837091.00974,93.41507,22.893880128860474
1618837091.02537,97.34689,22.909509897232056
1618837091.04099,100.4388,22.925130128860474
1618837091.05662,102.8738,22.940759897232056
1618837091.07225,104.8572,22.956389904022217
1618837091.08787,106.3151,22.972009897232056
1618837091.1035,106.7885,22.987639904022217
1618837091.11912,105.5178,23.003259897232056
1618837091.13475,101.5339,23.018889904022217
1618837091.15037,93.73221,23.034509897232056
1618837091.166,81.12546,23.050139904022217
1618837091.18163,63.12146,23.065769910812378
1618837091.19725,39.92783,23.081389904022217
1618837091.21288,12.70837,23.097019910812378
1618837091.2285,-16.47382,23.112639904022217
1618837091.24413,-45.11682,23.128269910812378
1618837091.25975,-70.88214,23.143889904022217
1618837091.27538,-92.02069,23.159519910812378
1618837091.29101,-107.5976,23.17514991760254
1618837091.30663,-117.4274,23.190769910812378
1618837091.32226,-121.8015,23.20639991760254
1618837091.33788,-121.3246,23.222019910812378
1618837091.35351,-116.8291,23.23764991760254
1618837091.36913,-109.3449,23.253269910812378
1618837091.38476,-100.0272,23.26889991760254
1618837091.40039,-90.02536,23.2845299243927
1618837091.41601,-80.17853,23.30014991760254
1618837091.43164,-70.84052,23.3157799243927
1618837091.44726,-61.89581,23.33139991760254
1618837091.46289,-52.98669,23.3470299243927
1618837091.47851,-43.83264,23.36264991760254
1618837091.49414,-34.46786,23.3782799243927
1618837091.50977,-25.34711,23.39390993118286
1618837091.52539,-17.13895,23.4095299243927
1618837091.54102,-10.41846,23.42515993118286
1618837091.55664,-5.427155,23.4407799243927
1618837091.57227,-1.94751,23.45640993118286
1618837091.58789,0.5935059,23.4720299243927
1618837091.60352,2.885681,23.48765993118286
1618837091.61915,5.497345,23.503289937973022
1618837091.63477,8.727631,23.51890993118286
1618837091.6504,12.4996,23.534539937973022
1618837091.66602,16.47253,23.55015993118286
1618837091.68165,20.12024,23.565789937973022
1618837091.69727,22.97922,23.58140993118286
1618837091.7129,24.75238,23.597039937973022
1618837091.72853,25.43631,23.612669944763184
1618837091.74415,25.27768,23.628289937973022
1618837091.75978,24.61523,23.643919944763184
1618837091.7754,23.68378,23.659539937973022
1618837091.79103,22.5025,23.675169944763184
1618837091.80665,20.85336,23.690789937973022
1618837091.82228,18.42685,23.706419944763184
1618837091.83791,14.99683,23.722049951553345
1618837091.85353,10.56821,23.737669944763184
1618837091.86916,5.40152,23.753299951553345
1618837091.88478,-0.07754517,23.768919944763184
1618837091.90041,-5.468475,23.784549951553345
1618837091.91603,-10.51266,23.800169944763184
1618837091.93166,-15.18707,23.815799951553345
1618837091.94729,-19.67746,23.831429958343506
1618837091.96291,-24.29865,23.847049951553345
1618837091.97854,-29.43045,23.862679958343506
1618837091.99416,-35.38687,23.878299951553345
1618837092.00979,-42.35025,23.893929958343506
1618837092.02541,-50.29974,23.909549951553345
1618837092.04104,-58.87888,23.925179958343506
1618837092.05667,-67.35339,23.940809965133667
1618837092.07229,-74.65982,23.956429958343506
1618837092.08792,-79.57053,23.972059965133667
1618837092.10354,-80.99835,23.987679958343506
1618837092.11917,-78.34253,24.003309965133667
1618837092.13479,-71.67978,24.018929958343506
1618837092.15042,-61.79028,24.034559965133667
1618837092.16605,-49.88611,24.050189971923828
1618837092.18167,-37.22064,24.065809965133667
1618837092.1973,-24.79581,24.081439971923828
1618837092.21292,-13.18228,24.097059965133667
1618837092.22855,-2.604187,24.112689971923828
1618837092.24417,6.898315,24.128309965133667
1618837092.2598,15.32059,24.143939971923828
1618837092.27543,22.59506,24.15956997871399
1618837092.29105,28.66583,24.175189971923828
1618837092.30668,33.52652,24.19081997871399
1618837092.3223,37.26288,24.206439971923828
1618837092.33793,39.97534,24.22206997871399
1618837092.35355,41.76736,24.237689971923828
1618837092.36918,42.68912,24.25331997871399
1618837092.38481,42.82562,24.26894998550415
1618837092.40043,42.3262,24.28456997871399
1618837092.41606,41.47067,24.30019998550415
1618837092.43168,40.57669,24.31581997871399
1618837092.44731,39.87714,24.33144998550415
1618837092.46293,39.42001,24.34706997871399
1618837092.47856,38.97418,24.36269998550415
1618837092.49419,38.18243,24.37832999229431
1618837092.50981,36.74606,24.39394998550415
1618837092.52544,34.6059,24.40957999229431
1618837092.54106,31.98969,24.42519998550415
1618837092.55669,29.3045,24.44082999229431
1618837092.57231,26.94873,24.45644998550415
1618837092.58794,25.04163,24.47207999229431
1618837092.60357,23.45917,24.487709999084473
1618837092.61919,21.88599,24.50332999229431
1618837092.63482,20.06012,24.518959999084473
1618837092.65044,17.87634,24.53457999229431
1618837092.66607,15.43799,24.550209999084473
1618837092.68169,12.91119,24.56582999229431
1618837092.69732,10.38617,24.581459999084473
1618837092.71295,7.819214,24.597090005874634
1618837092.72857,5.028503,24.612709999084473
1618837092.7442,1.911865,24.628340005874634
1618837092.75982,-1.653015,24.643959999084473
1618837092.77545,-5.819885,24.659590005874634
1618837092.79107,-10.73572,24.675209999084473
1618837092.8067,-16.40442,24.690840005874634
1618837092.82233,-22.50696,24.706470012664795
1618837092.83795,-28.36273,24.722090005874634
1618837092.85358,-33.02942,24.737720012664795
1618837092.8692,-35.53729,24.753340005874634
1618837092.88483,-35.03668,24.768970012664795
1618837092.90046,-31.15906,24.784600019454956
1618837092.91608,-24.09937,24.800220012664795
1618837092.93171,-14.6059,24.815850019454956
1618837092.94733,-3.706909,24.831470012664795
1618837092.96296,7.548401,24.847100019454956
1618837092.97858,18.28247,24.862720012664795
1618837092.99421,27.89362,24.878350019454956
1618837093.00984,36.05194,24.893980026245117
1618837093.02546,42.97852,24.909600019454956
1618837093.04109,48.95624,24.925230026245117
1618837093.05671,54.13434,24.940850019454956
1618837093.07234,58.37073,24.956480026245117
1618837093.08796,61.35272,24.972100019454956
1618837093.10359,62.83771,24.987730026245117
1618837093.11922,62.81256,25.00336003303528
1618837093.13484,61.5025,25.018980026245117
1618837093.15047,59.25873,25.03461003303528
1618837093.16609,57.29108,25.050230026245117
1618837093.18172,56.52014,25.06586003303528
1618837093.19734,57.18286,25.081480026245117
1618837093.21297,58.73053,25.09711003303528
1618837093.2286,60.33508,25.11274003982544
1618837093.24422,61.44287,25.12836003303528
1618837093.25985,61.88489,25.14399003982544
1618837093.27547,61.66827,25.15961003303528
1618837093.2911,60.70679,25.17524003982544
1618837093.30672,60.49268,25.19086003303528
1618837093.32235,62.13483,25.20649003982544
1618837093.33798,65.78705,25.2221200466156
1618837093.3536,70.43677,25.23774003982544
1618837093.36923,74.73285,25.2533700466156
1618837093.38485,77.80396,25.26899003982544
1618837093.40048,79.45367,25.2846200466156
1618837093.4161,79.83545,25.30024003982544
1618837093.43173,79.12067,25.3158700466156
1618837093.44736,80.18433,25.33150005340576
1618837093.46298,85.3916,25.3471200466156
1618837093.47861,95.33521,25.36275005340576
1618837093.49423,108.2199,25.3783700466156
1618837093.50986,121.1798,25.39400005340576
1618837093.52548,131.9117,25.4096200466156
1618837093.54111,139.4142,25.42525005340576
1618837093.55674,143.8787,25.440880060195923
1618837093.57236,146.196,25.45650005340576
1618837093.58799,151.178,25.472130060195923
1618837093.60361,163.0246,25.48775005340576
1618837093.61924,183.4323,25.503380060195923
1618837093.63486,210.7145,25.51900005340576
1618837093.65049,241.4854,25.534630060195923
1618837093.66612,272.8047,25.550260066986084
1618837093.68174,302.9444,25.565880060195923
1618837093.69737,331.1382,25.581510066986084
1618837093.71299,334.6826,25.597130060195923
1618837093.72862,299.1185,25.612760066986084
1618837093.74424,224.6074,25.628380060195923
1618837093.75987,128.1092,25.644010066986084
1618837093.7755,31.89575,25.659640073776245
1618837093.79112,-48.63022,25.675260066986084
1618837093.80675,-108.1219,25.690890073776245
1618837093.82237,-148.1476,25.706510066986084
1618837093.838,-173.0933,25.722140073776245
1618837093.85362,-187.9393,25.737760066986084
1618837093.86925,-193.477,25.753390073776245
1618837093.88488,-190.0887,25.769020080566406
1618837093.9005,-179.4952,25.784640073776245
1618837093.91613,-165.9267,25.800270080566406
1618837093.93175,-154.3994,25.815890073776245
1618837093.94738,-148.2227,25.831520080566406
1618837093.963,-149.1741,25.847140073776245
1618837093.97863,-156.4084,25.862770080566406
1618837093.99426,-167.258,25.878400087356567
1618837094.00988,-175.47,25.894020080566406
1618837094.02551,-175.6836,25.909650087356567
1618837094.04113,-165.6312,25.925270080566406
1618837094.05676,-147.4436,25.940900087356567
1618837094.07238,-125.7232,25.956520080566406
1618837094.08801,-105.1017,25.972150087356567
1618837094.10364,-88.67811,25.98778009414673
1618837094.11926,-77.49009,26.003400087356567
1618837094.13489,-71.21791,26.01903009414673
1618837094.15051,-67.29569,26.034650087356567
1618837094.16614,-63.79734,26.05028009414673
1618837094.18176,-58.7886,26.065900087356567
1618837094.19739,-52.99634,26.08153009414673
1618837094.21302,-48.03672,26.09716010093689
1618837094.22864,-45.04886,26.11278009414673
1618837094.24427,-44.27406,26.12841010093689
1618837094.25989,-45.19485,26.14403009414673
1618837094.27552,-47.21557,26.15966010093689
1618837094.29114,-49.10069,26.17528009414673
1618837094.30677,-50.04275,26.19091010093689
1618837094.3224,-49.95488,26.20654010772705
1618837094.33802,-49.78144,26.22216010093689
1618837094.35365,-50.59944,26.23779010772705
1618837094.36927,-53.0694,26.25341010093689
1618837094.3849,-57.21118,26.26904010772705
1618837094.40052,-62.32347,26.28466010093689
1618837094.41615,-67.32341,26.30029010772705
1618837094.43178,-70.63731,26.315920114517212
1618837094.4474,-70.94986,26.33154010772705
1618837094.46303,-67.54379,26.347170114517212
1618837094.47865,-60.78506,26.36279010772705
1618837094.49428,-51.62839,26.378420114517212
1618837094.5099,-41.29439,26.39404010772705
1618837094.52553,-30.92993,26.409670114517212
1618837094.54116,-21.38414,26.425300121307373
1618837094.55678,-13.23909,26.440920114517212
1618837094.57241,-6.800644,26.456550121307373
1618837094.58803,-2.181717,26.472170114517212
1618837094.60366,0.7115631,26.487800121307373
1618837094.61928,2.047852,26.503420114517212
1618837094.63491,2.213928,26.519050121307373
1618837094.65054,1.718399,26.534680128097534
1618837094.66616,0.9992676,26.550300121307373
1618837094.68179,0.265274,26.565930128097534
1618837094.69741,-0.5906525,26.581550121307373
1618837094.71304,-1.868103,26.597180128097534
1618837094.72866,-3.879807,26.612800121307373
1618837094.74429,-6.69429,26.628430128097534
1618837094.75992,-10.08293,26.644059896469116
1618837094.77554,-13.48701,26.659680128097534
1618837094.79117,-16.26849,26.675309896469116
1618837094.80679,-17.93475,26.690930128097534
1618837094.82242,-18.35176,26.706559896469116
1618837094.83804,-17.77789,26.722180128097534
1618837094.85367,-16.70441,26.737809896469116
1618837094.8693,-15.69308,26.753439903259277
1618837094.88492,-15.12643,26.769059896469116
1618837094.90055,-15.14157,26.784689903259277
1618837094.91617,-15.61218,26.800309896469116
1618837094.9318,-16.27399,26.815939903259277
1618837094.94742,-16.88477,26.831559896469116
1618837094.96305,-17.35199,26.847189903259277
1618837094.97868,-17.80981,26.86281991004944
1618837094.9943,-18.48001,26.878439903259277
1618837095.00993,-19.57599,26.89406991004944
1618837095.02555,-21.17639,26.909689903259277
1618837095.04118,-23.17368,26.92531991004944
1618837095.0568,-25.37231,26.940939903259277
1618837095.07243,-27.61612,26.95656991004944
1618837095.08806,-29.8299,26.9721999168396
1618837095.10368,-32.01453,26.98781991004944
1618837095.11931,-34.11511,27.0034499168396
1618837095.13493,-36.02258,27.01906991004944
1618837095.15056,-37.62057,27.0346999168396
1618837095.16618,-38.93985,27.05031991004944
1618837095.18181,-40.33047,27.0659499168396
1618837095.19744,-42.3688,27.08157992362976
1618837095.21306,-45.59808,27.0971999168396
1618837095.22869,-50.10797,27.11282992362976
1618837095.24431,-55.31793,27.1284499168396
1618837095.25994,-59.95337,27.14407992362976
1618837095.27556,-62.46671,27.1596999168396
1618837095.29119,-61.62067,27.17532992362976
1618837095.30682,-56.93692,27.190959930419922
1618837095.32244,-48.86124,27.20657992362976
1618837095.33807,-38.49457,27.222209930419922
1618837095.35369,-27.13675,27.23782992362976
1618837095.36932,-15.85284,27.253459930419922
1618837095.38494,-5.213074,27.26907992362976
1618837095.40057,4.637238,27.284709930419922
1618837095.4162,13.75546,27.300339937210083
1618837095.43182,22.16504,27.315959930419922
1618837095.44745,29.72397,27.331589937210083
1618837095.46307,36.18808,27.347209930419922
1618837095.4787,41.3063,27.362839937210083
1618837095.49433,44.93576,27.378469944000244
1618837095.50995,47.14447,27.394089937210083
1618837095.52558,48.09247,27.409719944000244
1618837095.5412,47.9538,27.425339937210083
1618837095.55683,46.88028,27.440969944000244
1618837095.57245,44.9248,27.456589937210083
1618837095.58808,42.16817,27.472219944000244
1618837095.60371,38.76915,27.487849950790405
1618837095.61933,35.058,27.503469944000244
1618837095.63496,31.48557,27.519099950790405
1618837095.65058,28.4738,27.534719944000244
1618837095.66621,26.31403,27.550349950790405
1618837095.68183,25.04192,27.565969944000244
1618837095.69746,24.39766,27.581599950790405
1618837095.71309,23.94466,27.597229957580566
1618837095.72871,23.2112,27.612849950790405
1618837095.74434,21.81599,27.628479957580566
1618837095.75996,19.562,27.644099950790405
1618837095.77559,16.40999,27.659729957580566
1618837095.79121,12.42088,27.675349950790405
1618837095.80684,7.703491,27.690979957580566
1618837095.82247,2.369827,27.706609964370728
1618837095.83809,-3.436737,27.722229957580566
1618837095.85372,-9.535706,27.737859964370728
1618837095.86934,-15.71867,27.753479957580566
1618837095.88497,-21.79567,27.769109964370728
1618837095.90059,-27.58031,27.784729957580566
1618837095.91622,-32.95796,27.800359964370728
1618837095.93185,-37.88612,27.81598997116089
1618837095.94747,-42.44783,27.831609964370728
1618837095.9631,-46.85201,27.84723997116089
1618837095.97872,-51.39343,27.862859964370728
1618837095.99435,-56.3716,27.87848997116089
1618837096.00997,-61.85522,27.894109964370728
1618837096.0256,-67.52818,27.90973997116089
1618837096.04123,-72.67059,27.92536997795105
1618837096.05685,-76.2101,27.94098997116089
1618837096.07248,-77.07106,27.95661997795105
1618837096.0881,-74.4987,27.97223997116089
1618837096.10373,-68.35837,27.98786997795105
1618837096.11935,-59.18909,28.00348997116089
1618837096.13498,-48.02222,28.01911997795105
1618837096.15061,-36.04575,28.03474998474121
1618837096.16623,-24.29713,28.05036997795105
1618837096.18186,-13.45988,28.06599998474121
1618837096.19748,-3.806671,28.08161997795105
1618837096.21311,4.664001,28.09724998474121
1618837096.22873,12.08615,28.11286997795105
1618837096.24436,18.57777,28.12849998474121
1618837096.25999,24.16304,28.144129991531372
1618837096.27561,28.77448,28.15974998474121
1618837096.29124,32.31444,28.175379991531372
1618837096.30686,34.74744,28.19099998474121
1618837096.32249,36.15079,28.206629991531372
1618837096.33811,36.711,28.22224998474121
1618837096.35374,36.68063,28.237879991531372
1618837096.36937,36.25087,28.253509998321533
1618837096.38499,35.51126,28.269129991531372
1618837096.40062,34.43234,28.284759998321533
1618837096.41624,32.9467,28.300379991531372
1618837096.43187,31.08244,28.316009998321533
1618837096.44749,29.01218,28.331629991531372
1618837096.46312,27.03879,28.347259998321533
1618837096.47875,25.47319,28.362890005111694
1618837096.49437,24.45952,28.378509998321533
1618837096.51,23.90167,28.394140005111694
1618837096.52562,23.48753,28.409759998321533
1618837096.54125,22.79779,28.425390005111694
1618837096.55687,21.51056,28.441009998321533
1618837096.5725,19.4406,28.456640005111694
1618837096.58813,16.60999,28.472270011901855
1618837096.60375,13.16792,28.487890005111694
1618837096.61938,9.324173,28.503520011901855
1618837096.635,5.313934,28.519140005111694
1618837096.65063,1.400452,28.534770011901855
1618837096.66625,-2.171738,28.550390005111694
1618837096.68188,-5.299484,28.566020011901855
1618837096.69751,-8.026703,28.581650018692017
1618837096.71313,-10.58562,28.597270011901855
1618837096.72876,-13.28051,28.612900018692017
1618837096.74438,-16.36279,28.628520011901855
1618837096.76001,-19.96275,28.644150018692017
1618837096.77563,-24.04391,28.659770011901855
1618837096.79126,-28.52213,28.675400018692017
1618837096.80689,-33.32931,28.691030025482178
1618837096.82251,-38.47689,28.706650018692017
1618837096.83814,-43.94753,28.722280025482178
1618837096.85376,-49.60115,28.737900018692017
1618837096.86939,-55.01132,28.753530025482178
1618837096.88501,-59.48428,28.769150018692017
1618837096.90064,-62.18197,28.784780025482178
1618837096.91627,-62.32381,28.80041003227234
1618837096.93189,-59.47181,28.816030025482178
1618837096.94752,-53.66376,28.83166003227234
1618837096.96314,-45.43147,28.847280025482178
1618837096.97877,-35.61101,28.86291003227234
1618837096.99439,-25.13191,28.878530025482178
1618837097.01002,-14.74496,28.89416003227234
1618837097.02565,-4.889702,28.9097900390625
1618837097.04127,4.265198,28.92541003227234
1618837097.0569,12.75714,28.9410400390625
1618837097.07252,20.65197,28.95666003227234
1618837097.08815,27.97102,28.9722900390625
1618837097.10377,34.60157,28.98791003227234
1618837097.1194,40.35875,29.0035400390625
1618837097.13503,45.018,29.01917004585266
1618837097.15065,48.42172,29.0347900390625
1618837097.16628,50.52846,29.05042004585266
1618837097.1819,51.42374,29.0660400390625
1618837097.19753,51.33944,29.08167004585266
1618837097.21315,50.57725,29.0972900390625
1618837097.22878,49.45509,29.11292004585266
1618837097.24441,48.20824,29.128550052642822
1618837097.26003,46.97027,29.14417004585266
1618837097.27566,45.84086,29.159800052642822
1618837097.29128,44.88797,29.17542004585266
1618837097.30691,44.20421,29.191050052642822
1618837097.32253,43.82591,29.20667004585266
1618837097.33816,43.70192,29.222300052642822
1618837097.35379,43.58117,29.237930059432983
1618837097.36941,43.09446,29.253550052642822
1618837097.38504,41.84785,29.269180059432983
1618837097.40066,39.56522,29.284800052642822
1618837097.41629,36.19979,29.300430059432983
1618837097.43191,31.93383,29.316050052642822
1618837097.44754,27.09157,29.331680059432983
1618837097.46317,21.97115,29.347310066223145
1618837097.47879,16.76553,29.362930059432983
1618837097.49442,11.45857,29.378560066223145
1618837097.51004,5.904624,29.394180059432983
1618837097.52567,-0.03701591,29.409810066223145
1618837097.54129,-6.432119,29.425430059432983
1618837097.55692,-13.15259,29.441060066223145
1618837097.57255,-19.92607,29.456690073013306
1618837097.58817,-26.42715,29.472310066223145
1618837097.6038,-32.35522,29.487940073013306
1618837097.61942,-37.56793,29.503560066223145
1618837097.63505,-42.15381,29.519190073013306
1618837097.65067,-46.37947,29.534810066223145
1618837097.6663,-50.65015,29.550440073013306
1618837097.68193,-55.36069,29.566070079803467
1618837097.69755,-60.74735,29.581690073013306
1618837097.71318,-66.74937,29.597320079803467
1618837097.7288,-72.92883,29.612940073013306
1618837097.74443,-78.50708,29.628570079803467
1618837097.76006,-82.4998,29.644200086593628
1618837097.77568,-83.93718,29.659820079803467
1618837097.79131,-82.14619,29.675450086593628
1618837097.80693,-76.94618,29.691070079803467
1618837097.82256,-68.7498,29.706700086593628
1618837097.83818,-58.37389,29.722320079803467
1618837097.85381,-46.85741,29.737950086593628
1618837097.86944,-35.11389,29.75358009338379
1618837097.88506,-23.81062,29.769200086593628
1618837097.90069,-13.31072,29.78483009338379
1618837097.91631,-3.747063,29.800450086593628
1618837097.93194,4.849091,29.81608009338379
1618837097.94756,12.46871,29.831700086593628
1618837097.96319,19.07822,29.84733009338379
1618837097.97882,24.71632,29.86296010017395
1618837097.99444,29.45352,29.87858009338379
1618837098.01007,33.38642,29.89421010017395
1618837098.02569,36.57804,29.90983009338379
1618837098.04132,38.96847,29.92546010017395
1618837098.05694,40.42809,29.94108009338379
1618837098.07257,40.85699,29.95671010017395
1618837098.0882,40.33524,29.97234010696411
1618837098.10382,39.1545,29.98796010017395
1618837098.11945,37.82478,30.00359010696411
1618837098.13507,36.83077,30.01921010017395
1618837098.1507,36.48044,30.03484010696411
1618837098.16632,36.75169,30.05046010017395
1618837098.18195,37.35689,30.06609010696411
1618837098.19758,37.83929,30.081720113754272
1618837098.2132,37.80878,30.09734010696411
1618837098.22883,37.04185,30.112970113754272
1618837098.24445,35.5014,30.12859010696411
1618837098.26008,33.30191,30.144220113754272
1618837098.2757,30.59126,30.15984010696411
1618837098.29133,27.51251,30.175470113754272
1618837098.30696,24.17949,30.191100120544434
1618837098.32258,20.70605,30.206720113754272
1618837098.33821,17.17712,30.222350120544434
1618837098.35383,13.63493,30.237970113754272
1618837098.36946,10.04272,30.253600120544434
1618837098.38508,6.316528,30.269220113754272
1618837098.40071,2.39859,30.284850120544434
1618837098.41634,-1.714996,30.300480127334595
1618837098.43196,-5.907654,30.316100120544434
1618837098.44759,-10.02991,30.331730127334595
1618837098.46321,-13.95885,30.347350120544434
1618837098.47884,-17.7113,30.362980127334595
1618837098.49446,-21.40672,30.378600120544434
1618837098.51009,-25.2589,30.394230127334595
1618837098.52572,-29.43404,30.409859895706177
1618837098.54134,-33.90485,30.425480127334595
1618837098.55697,-38.39792,30.441109895706177
1618837098.57259,-42.34763,30.456730127334595
1618837098.58822,-45.0063,30.472359895706177
1618837098.60384,-45.66797,30.487980127334595
1618837098.61947,-43.88336,30.503609895706177
1618837098.6351,-39.58786,30.519239902496338
1618837098.65072,-33.14812,30.534859895706177
1618837098.66635,-25.1817,30.550489902496338
1618837098.68197,-16.38007,30.566109895706177
1618837098.6976,-7.285461,30.581739902496338
1618837098.71322,1.740616,30.597359895706177
1618837098.72885,10.47853,30.612989902496338
1618837098.74448,18.71439,30.6286199092865
1618837098.7601,26.16122,30.644239902496338
1618837098.77573,32.5347,30.6598699092865
1618837098.79135,37.62697,30.675489902496338
1618837098.80698,41.43169,30.6911199092865
1618837098.8226,44.08264,30.706739902496338
1618837098.83823,45.75026,30.7223699092865
1618837098.85386,46.55133,30.73799991607666
1618837098.86948,46.53609,30.7536199092865
1618837098.88511,45.74397,30.76924991607666
1618837098.90073,44.31573,30.7848699092865
1618837098.91636,42.55731,30.80049991607666
1618837098.93198,40.84264,30.8161199092865
1618837098.94761,39.49934,30.83174991607666
1618837098.96324,38.65636,30.84737992286682
1618837098.97886,38.21483,30.86299991607666
1618837098.99449,37.8792,30.87862992286682
1618837099.01011,37.30251,30.89424991607666
1618837099.02574,36.20496,30.90987992286682
1618837099.04136,34.46686,30.92549991607666
1618837099.05699,32.14012,30.94112992286682
1618837099.07262,29.38182,30.956759929656982
1618837099.08824,26.39287,30.97237992286682
1618837099.10387,23.28516,30.988009929656982
1618837099.11949,20.07809,31.00362992286682
1618837099.13512,16.6638,31.019259929656982
1618837099.15074,12.88217,31.03487992286682
1618837099.16637,8.639526,31.050509929656982
1618837099.182,3.988449,31.066139936447144
1618837099.19762,-0.8814392,31.081759929656982
1618837099.21325,-5.738983,31.097389936447144
1618837099.22887,-10.39844,31.113009929656982
1618837099.2445,-14.81549,31.128639936447144
1618837099.26012,-19.05338,31.144259929656982
1618837099.27575,-23.20267,31.159889936447144
1618837099.29138,-27.3667,31.175519943237305
1618837099.307,-31.65927,31.191139936447144
1618837099.32263,-36.21567,31.206769943237305
1618837099.33825,-41.21582,31.222389936447144
1618837099.35388,-46.71387,31.238019943237305
1618837099.3695,-52.49167,31.253639936447144
1618837099.38513,-57.88589,31.269269943237305
1618837099.40076,-61.90033,31.284899950027466
1618837099.41638,-63.44174,31.300519943237305
1618837099.43201,-61.7319,31.316149950027466
1618837099.44763,-56.59805,31.331769943237305
1618837099.46326,-48.53925,31.347399950027466
1618837099.47888,-38.52774,31.363019943237305
1618837099.49451,-27.6788,31.378649950027466
1618837099.51014,-16.93271,31.394279956817627
1618837099.52576,-6.889526,31.409899950027466
1618837099.54139,2.202698,31.425529956817627
1618837099.55701,10.31836,31.441149950027466
1618837099.57264,17.52029,31.456779956817627
1618837099.58826,23.8912,31.472399950027466
1618837099.60389,29.47928,31.488029956817627
1618837099.61952,34.28995,31.503659963607788
1618837099.63514,38.3074,31.519279956817627
1618837099.65077,41.53506,31.534909963607788
1618837099.66639,44.00873,31.550529956817627
1618837099.68202,45.81042,31.566159963607788
1618837099.69764,47.03381,31.581779956817627
1618837099.71327,47.72272,31.597409963607788
1618837099.7289,47.8624,31.61303997039795
1618837099.74452,47.38788,31.628659963607788
1618837099.76015,46.26373,31.64428997039795
1618837099.77577,44.59811,31.659909963607788
1618837099.7914,42.63815,31.67553997039795
1618837099.80702,40.70831,31.691159963607788
1618837099.82265,39.0672,31.70678997039795
1618837099.83828,37.78104,31.72241997718811
1618837099.8539,36.69724,31.73803997039795
1618837099.86953,35.49191,31.75366997718811
1618837099.88515,33.88049,31.76928997039795
1618837099.90078,31.68045,31.78491997718811
1618837099.9164,28.89075,31.80053997039795
1618837099.93203,25.6123,31.81616997718811
1618837099.94766,22.00433,31.83179998397827
1618837099.96328,18.22382,31.84741997718811
1618837099.97891,14.40872,31.86304998397827
1618837099.99453,10.68832,31.87866997718811
1618837100.01016,7.154327,31.89429998397827
1618837100.02578,3.785522,31.90991997718811
1618837100.04141,0.4857788,31.92554998397827
1618837100.05704,-2.886932,31.941179990768433
1618837100.07266,-6.423431,31.95679998397827
1618837100.08829,-10.07251,31.972429990768433
1618837100.10391,-13.68341,31.98804998397827
1618837100.11954,-17.08487,32.00367999076843
1618837100.13516,-20.24976,32.01929998397827
1618837100.15079,-23.39203,32.03492999076843
1618837100.16642,-26.89575,32.050559997558594
1618837100.18204,-31.19308,32.06617999076843
1618837100.19767,-36.46384,32.081809997558594
1618837100.21329,-42.50314,32.09742999076843
1618837100.22892,-48.62384,32.113059997558594
1618837100.24454,-53.83459,32.12867999076843
1618837100.26017,-57.10941,32.144309997558594
1618837100.2758,-57.64471,32.159940004348755
1618837100.29142,-55.09265,32.175559997558594
1618837100.30705,-49.5885,32.191190004348755
1618837100.32267,-41.68634,32.206809997558594
1618837100.3383,-32.22195,32.222440004348755
1618837100.35393,-22.07242,32.238070011138916
1618837100.36955,-12.0419,32.253690004348755
1618837100.38518,-2.740448,32.269320011138916
1618837100.4008,5.448975,32.284940004348755
1618837100.41643,12.38657,32.300570011138916
1618837100.43205,18.14673,32.316190004348755
1618837100.44768,22.91574,32.331820011138916
1618837100.46331,26.90613,32.34745001792908
1618837100.47893,30.24988,32.363070011138916
1618837100.49456,32.95978,32.37870001792908
1618837100.51018,35.00198,32.394320011138916
1618837100.52581,36.32199,32.40995001792908
1618837100.54143,36.96429,32.425570011138916
1618837100.55706,37.06827,32.44120001792908
1618837100.57269,36.82645,32.45683002471924
1618837100.58831,36.44681,32.47245001792908
1618837100.60394,36.10657,32.48808002471924
1618837100.61956,35.94415,32.50370001792908
1618837100.63519,36.04324,32.51933002471924
1618837100.65081,36.39279,32.53495001792908
1618837100.66644,36.87723,32.55058002471924
1618837100.68207,37.25946,32.5662100315094
1618837100.69769,37.25851,32.58183002471924
1618837100.71332,36.6427,32.5974600315094
1618837100.72894,35.36209,32.61308002471924
1618837100.74457,33.58713,32.6287100315094
1618837100.76019,31.63715,32.64433002471924
1618837100.77582,29.83604,32.6599600315094
1618837100.79145,28.35608,32.67559003829956
1618837100.80707,27.13055,32.6912100315094
1618837100.8227,25.90376,32.70684003829956
1618837100.83832,24.36198,32.7224600315094
1618837100.85395,22.24393,32.73809003829956
1618837100.86957,19.45341,32.7537100315094
1618837100.8852,15.97672,32.76934003829956
1618837100.90083,11.85907,32.78497004508972
1618837100.91645,7.156631,32.80059003829956
1618837100.93208,1.928513,32.81622004508972
1618837100.9477,-3.670807,32.83184003829956
1618837100.96333,-9.385391,32.84747004508972
1618837100.97895,-14.89491,32.86309003829956
1618837100.99458,-19.95874,32.87872004508972
1618837101.01021,-24.56424,32.89435005187988
1618837101.02583,-29.0062,32.90997004508972
1618837101.04146,-33.79108,32.92560005187988
1618837101.05708,-39.37318,32.94122004508972
1618837101.07271,-45.90355,32.95685005187988
1618837101.08833,-52.99547,32.97247004508972
1618837101.10396,-59.78944,32.98810005187988
1618837101.11959,-65.14909,33.003730058670044
1618837101.13521,-68.00494,33.01935005187988
1618837101.15084,-67.69444,33.034980058670044
1618837101.16646,-64.1003,33.05060005187988
1618837101.18209,-57.68234,33.066230058670044
1618837101.19771,-49.29842,33.08185005187988
1618837101.21334,-39.92293,33.097480058670044
1618837101.22897,-30.45357,33.113110065460205
1618837101.24459,-21.54654,33.128730058670044
1618837101.26022,-13.55,33.144360065460205
1618837101.27584,-6.542801,33.159980058670044
1618837101.29147,-0.4620361,33.175610065460205
1618837101.30709,4.815292,33.191230058670044
1618837101.32272,9.321548,33.206860065460205
1618837101.33835,13.06409,33.222490072250366
1618837101.35397,15.94644,33.238110065460205
1618837101.3696,17.95151,33.253740072250366
1618837101.38522,19.10216,33.269360065460205
1618837101.40085,19.48109,33.284990072250366
1618837101.41647,19.20967,33.300610065460205
1618837101.4321,18.41557,33.316240072250366
1618837101.44773,17.23691,33.33187007904053
1618837101.46335,15.86259,33.347490072250366
1618837101.47898,14.50923,33.36312007904053
1618837101.4946,13.42961,33.378740072250366
1618837101.51023,12.81665,33.39437007904053
1618837101.52585,12.77458,33.409990072250366
1618837101.54148,13.25182,33.42562007904053
1618837101.55711,14.08401,33.44125008583069
1618837101.57273,15.00955,33.45687007904053
1618837101.58836,15.76636,33.47250008583069
1618837101.60398,16.08745,33.48812007904053
1618837101.61961,15.79584,33.50375008583069
1618837101.63523,14.78748,33.51937007904053
1618837101.65086,13.04486,33.53500008583069
1618837101.66649,10.65288,33.55063009262085
1618837101.68211,7.780426,33.56625008583069
1618837101.69774,4.614288,33.58188009262085
1618837101.71336,1.345688,33.59750008583069
1618837101.72899,-1.881927,33.61313009262085
1618837101.74461,-4.967499,33.62875008583069
1618837101.76024,-7.917877,33.64438009262085
1618837101.77587,-10.81754,33.66001009941101
1618837101.79149,-13.86798,33.67563009262085
1618837101.80712,-17.32961,33.69126009941101
1618837101.82274,-21.45279,33.70688009262085
1618837101.83837,-26.34441,33.72251009941101
1618837101.85399,-31.87112,33.73813009262085
1618837101.86962,-37.6153,33.75376009941101
1618837101.88525,-42.93033,33.76939010620117
1618837101.90087,-47.05725,33.78501009941101
1618837101.9165,-49.33485,33.80064010620117
1618837101.93212,-49.3006,33.81626009941101
1618837101.94775,-46.80418,33.83189010620117
1618837101.96337,-41.9624,33.84751009941101
1618837101.979,-35.18652,33.86314010620117
1618837101.99463,-27.03793,33.87877011299133
1618837102.01025,-18.18658,33.89439010620117
1618837102.02588,-9.285645,33.91002011299133
1618837102.0415,-0.8886719,33.92564010620117
1618837102.05713,6.620041,33.94127011299133
1618837102.07275,13.05424,33.95689010620117
1618837102.08838,18.39566,33.97252011299133
1618837102.10401,22.69044,33.988150119781494
1618837102.11963,25.99657,34.00377011299133
1618837102.13526,28.31174,34.019400119781494
1618837102.15088,29.6479,34.03502011299133
1618837102.16651,30.02573,34.050650119781494
1618837102.18213,29.57726,34.06627011299133
1618837102.19776,28.54399,34.081900119781494
1618837102.21339,27.23872,34.097530126571655
1618837102.22901,25.96786,34.113150119781494
1618837102.24464,24.97606,34.128780126571655
1618837102.26026,24.36754,34.144400119781494
1618837102.27589,24.1467,34.160030126571655
1618837102.29151,24.20692,34.175650119781494
1618837102.30714,24.41023,34.191280126571655
1618837102.32277,24.61237,34.206910133361816
1618837102.33839,24.68126,34.222530126571655
1618837102.35402,24.4691,34.238160133361816
1618837102.36964,23.81596,34.253780126571655
1618837102.38527,22.55011,34.269410133361816
1618837102.40089,20.56943,34.285030126571655
1618837102.41652,17.87257,34.300660133361816
1618837102.43215,14.61906,34.3162899017334
1618837102.44777,11.07341,34.331910133361816
1618837102.4634,7.504776,34.3475399017334
1618837102.47902,4.077835,34.363160133361816
1618837102.49465,0.8240356,34.3787899017334
1618837102.51027,-2.329285,34.394410133361816
1618837102.5259,-5.471497,34.4100399017334
1618837102.54153,-8.61264,34.42566990852356
1618837102.55715,-11.64832,34.4412899017334
1618837102.57278,-14.46524,34.45691990852356
1618837102.5884,-17.04953,34.4725399017334
1618837102.60403,-19.54074,34.48816990852356
1618837102.61966,-22.22787,34.50379991531372
1618837102.63528,-25.42583,34.51941990852356
1618837102.65091,-29.35738,34.53504991531372
1618837102.66653,-34.05537,34.55066990852356
1618837102.68216,-39.27226,34.56629991531372
1618837102.69778,-44.55469,34.58191990852356
1618837102.71341,-49.26955,34.59754991531372
1618837102.72904,-52.71301,34.61317992210388
1618837102.74466,-54.19356,34.62879991531372
1618837102.76029,-53.23367,34.64442992210388
1618837102.77591,-49.60089,34.66004991531372
1618837102.79154,-43.43138,34.67567992210388
1618837102.80716,-35.20914,34.69129991531372
1618837102.82279,-25.65683,34.70692992210388
1618837102.83842,-15.60664,34.72255992889404
1618837102.85404,-5.82489,34.73817992210388
1618837102.86967,3.137726,34.75380992889404
1618837102.88529,11.01753,34.76942992210388
1618837102.90092,17.78331,34.78505992889404
1618837102.91654,23.58221,34.80067992210388
1618837102.93217,28.57693,34.81630992889404
1618837102.9478,32.90201,34.831939935684204
1618837102.96342,36.63342,34.84755992889404
1618837102.97905,39.75409,34.863189935684204
1618837102.99467,42.19653,34.87880992889404
1618837103.0103,43.85249,34.894439935684204
1618837103.02592,44.61688,34.91005992889404
1618837103.04155,44.43336,34.925689935684204
1618837103.05718,43.35956,34.941319942474365
1618837103.0728,41.61856,34.956939935684204
1618837103.08843,39.52121,34.972569942474365
1618837103.10405,37.42223,34.988189935684204
1618837103.11968,35.57489,35.003819942474365
1618837103.1353,34.04996,35.019439935684204
1618837103.15093,32.71968,35.035069942474365
1618837103.16656,31.30408,35.050699949264526
1618837103.18218,29.51895,35.066319942474365
1618837103.19781,27.15846,35.081949949264526
1618837103.21343,24.16417,35.097569942474365
1618837103.22906,20.61258,35.113199949264526
1618837103.24468,16.65459,35.128819942474365
1618837103.26031,12.4787,35.144449949264526
1618837103.27594,8.286575,35.16007995605469
1618837103.29156,4.247009,35.175699949264526
1618837103.30719,0.4636841,35.19132995605469
1618837103.32281,-3.018211,35.206949949264526
1618837103.33844,-6.228546,35.22257995605469
1618837103.35406,-9.24707,35.238199949264526
1618837103.36969,-12.18563,35.25382995605469
1618837103.38532,-15.14961,35.26945996284485
1618837103.40094,-18.22318,35.28507995605469
1618837103.41657,-21.47707,35.30070996284485
1618837103.43219,-24.9696,35.31632995605469
1618837103.44782,-28.81049,35.33195996284485
1618837103.46344,-33.10432,35.34757995605469
1618837103.47907,-37.92751,35.36320996284485
1618837103.4947,-43.14101,35.37883996963501
1618837103.51032,-48.31772,35.39445996284485
1618837103.52595,-52.69405,35.41008996963501
1618837103.54157,-55.32538,35.42570996284485
1618837103.5572,-55.38002,35.44133996963501
1618837103.57282,-52.43734,35.45695996284485
1618837103.58845,-46.70672,35.47258996963501
1618837103.60408,-38.91624,35.48821997642517
1618837103.6197,-30.11314,35.50383996963501
1618837103.63533,-21.23435,35.51946997642517
1618837103.65095,-12.92311,35.53508996963501
1618837103.66658,-5.399788,35.55071997642517
1618837103.6822,1.365364,35.56633996963501
1618837103.69783,7.478615,35.58196997642517
1618837103.71346,12.94493,35.59759998321533
1618837103.72908,17.68373,35.61321997642517
1618837103.74471,21.57169,35.62884998321533
1618837103.76033,24.53941,35.64446997642517
1618837103.77596,26.60242,35.66009998321533
1618837103.79158,27.8718,35.67571997642517
1618837103.80721,28.45831,35.69134998321533
1618837103.82284,28.44844,35.70697999000549
1618837103.83846,27.91152,35.72259998321533
1618837103.85409,26.92789,35.73822999000549
1618837103.86971,25.62399,35.75384998321533
1618837103.88534,24.1694,35.76947999000549
1618837103.90096,22.78061,35.78509998321533
1618837103.91659,21.59859,35.80072999000549
1618837103.93222,20.6797,35.816359996795654
1618837103.94784,19.94061,35.83197999000549
1618837103.96347,19.19182,35.847609996795654
1618837103.97909,18.28481,35.86322999000549
1618837103.99472,17.15459,35.878859996795654
1618837104.01034,15.82475,35.89447999000549
1618837104.02597,14.36268,35.910109996795654
1618837104.0416,12.78264,35.925740003585815
1618837104.05722,11.0066,35.941359996795654
1618837104.07285,8.926453,35.956990003585815
1618837104.08847,6.461937,35.972609996795654
1618837104.1041,3.637291,35.988240003585815
1618837104.11972,0.5932999,36.003859996795654
1618837104.13535,-2.485893,36.019490003585815
1618837104.15098,-5.464333,36.03512001037598
1618837104.1666,-8.280159,36.050740003585815
1618837104.18223,-10.94453,36.06637001037598
1618837104.19785,-13.53419,36.081990003585815
1618837104.21348,-16.1548,36.09762001037598
1618837104.2291,-18.94772,36.113240003585815
1618837104.24473,-22.11333,36.12887001037598
1618837104.26036,-25.83286,36.14450001716614
1618837104.27598,-30.16788,36.16012001037598
1618837104.29161,-34.97306,36.17575001716614
1618837104.30723,-39.86008,36.19137001037598
1618837104.32286,-44.20922,36.20700001716614
1618837104.33848,-47.26963,36.22262001037598
1618837104.35411,-48.33733,36.23825001716614
1618837104.36974,-46.91308,36.2538800239563
1618837104.38536,-42.8811,36.26950001716614
1618837104.40099,-36.56116,36.2851300239563
1618837104.41661,-28.68157,36.30075001716614
1618837104.43224,-20.18295,36.3163800239563
1618837104.44786,-11.99074,36.33200001716614
1618837104.46349,-4.715508,36.3476300239563
1618837104.47912,1.436203,36.36326003074646
1618837104.49474,6.64846,36.3788800239563
1618837104.51037,11.19751,36.39451003074646
1618837104.52599,15.23546,36.4101300239563
1618837104.54162,18.68622,36.42576003074646
1618837104.55724,21.3447,36.4413800239563
1618837104.57287,23.03671,36.45701003074646
1618837104.5885,23.70813,36.47264003753662
1618837104.60412,23.51653,36.48826003074646
1618837104.61975,22.79419,36.50389003753662
1618837104.63537,21.86135,36.51951003074646
1618837104.651,20.81652,36.53514003753662
1618837104.66662,19.52306,36.55076003074646
1618837104.68225,17.78581,36.56639003753662
1618837104.69788,15.59554,36.58202004432678
1618837104.7135,13.1451,36.59764003753662
1618837104.72913,10.81251,36.61327004432678
1618837104.74475,8.970554,36.62889003753662
1618837104.76038,8.031502,36.64452004432678
1618837104.77601,8.120361,36.66015005111694
1618837104.79163,8.838413,36.67577004432678
1618837104.80726,9.340427,36.69140005111694
1618837104.82288,8.778538,36.70702004432678
1618837104.83851,6.805477,36.72265005111694
1618837104.85413,3.744789,36.73827004432678
1618837104.86976,0.464077,36.75390005111694
1618837104.88539,-2.120411,36.769530057907104
1618837104.90101,-3.116829,36.78515005111694
1618837104.91664,-2.289742,36.800780057907104
1618837104.93226,-0.3684998,36.81640005111694
1618837104.94789,1.203854,36.832030057907104
1618837104.96351,1.023651,36.84765005111694
1618837104.97914,-1.50423,36.863280057907104
1618837104.99477,-5.921127,36.878910064697266
1618837105.01039,-10.92344,36.894530057907104
1618837105.02602,-14.87068,36.910160064697266
1618837105.04164,-15.78161,36.925780057907104
1618837105.05727,-12.06208,36.941410064697266
1618837105.07289,-3.114735,36.957030057907104
1618837105.08852,10.38985,36.972660064697266
1618837105.10415,26.91211,36.98829007148743
1618837105.11977,44.66105,37.003910064697266
1618837105.1354,61.89649,37.01954007148743
1618837105.15102,77.38168,37.035160064697266
1618837105.16665,87.08189,37.05079007148743
1618837105.18227,88.11626,37.066410064697266
1618837105.1979,80.90557,37.08204007148743
1618837105.21353,69.54466,37.09767007827759
1618837105.22915,58.86951,37.11329007148743
1618837105.24478,51.56815,37.12892007827759
1618837105.2604,47.89251,37.14454007148743
1618837105.27603,46.82673,37.16017007827759
1618837105.29165,47.4077,37.17579007148743
1618837105.30728,48.99224,37.19142007827759
1618837105.32291,51.60341,37.20705008506775
1618837105.33853,55.02279,37.22267007827759
1618837105.35416,58.2254,37.23830008506775
1618837105.36978,59.24039,37.25392007827759
1618837105.38541,55.93151,37.26955008506775
1618837105.40103,47.38181,37.28517007827759
1618837105.41666,32.92963,37.30080008506775
1618837105.43229,13.79472,37.31643009185791
1618837105.44791,-6.970371,37.33205008506775
1618837105.46354,-24.58577,37.34768009185791
1618837105.47916,-34.14555,37.36330008506775
1618837105.49479,-32.65533,37.37893009185791
1618837105.51041,-20.84937,37.39455008506775
1618837105.52604,-2.849701,37.41018009185791
1618837105.54167,15.58403,37.42581009864807
1618837105.55729,29.36602,37.44143009185791
1618837105.57292,36.15502,37.45706009864807
1618837105.58854,36.61455,37.47268009185791
1618837105.60417,33.49184,37.48831009864807
1618837105.61979,29.33635,37.50393009185791
1618837105.63542,26.50087,37.51956009864807
1618837105.65105,24.75378,37.53519010543823
1618837105.66667,22.45818,37.55081009864807
1618837105.6823,18.11685,37.56644010543823
1618837105.69792,11.32739,37.58206009864807
1618837105.71355,3.039093,37.59769010543823
1618837105.72917,-5.397232,37.61331009864807
1618837105.7448,-13.04707,37.62894010543823
1618837105.76043,-19.90767,37.644570112228394
1618837105.77605,-26.60999,37.66019010543823
1618837105.79168,-34.14548,37.675820112228394
1618837105.8073,-42.94974,37.69144010543823
1618837105.82293,-52.61189,37.707070112228394
1618837105.83855,-62.26768,37.72269010543823
1618837105.85418,-70.98251,37.738320112228394
1618837105.86981,-78.20158,37.753950119018555
1618837105.88543,-83.80194,37.769570112228394
1618837105.90106,-87.81561,37.785200119018555
1618837105.91668,-90.19316,37.800820112228394
1618837105.93231,-90.93541,37.816450119018555
1618837105.94793,-89.86624,37.832070112228394
1618837105.96356,-86.79234,37.847700119018555
1618837105.97919,-81.73036,37.863330125808716
1618837105.99481,-74.93895,37.878950119018555
1618837106.01044,-66.93417,37.894580125808716
1618837106.02606,-58.40929,37.910200119018555
1618837106.04169,-50.05305,37.925830125808716
1618837106.05731,-42.38393,37.941450119018555
1618837106.07294,-35.8058,37.957080125808716
1618837106.08857,-30.47716,37.97271013259888
1618837106.10419,-26.27786,37.988330125808716
1618837106.11982,-22.92328,38.00396013259888
1618837106.13544,-20.07962,38.019580125808716
1618837106.15107,-17.45447,38.03521013259888
1618837106.16669,-14.92557,38.050830125808716
1618837106.18232,-12.54019,38.06646013259888
1618837106.19795,-10.48962,38.08208990097046
1618837106.21357,-9.046051,38.09771013259888
1618837106.2292,-8.375061,38.11333990097046
1618837106.24482,-8.439209,38.12896013259888
1618837106.26045,-8.967834,38.14458990097046
1618837106.27607,-9.584625,38.16021013259888
1618837106.2917,-9.930084,38.17583990097046
1618837106.30733,-9.870361,38.19146990776062
1618837106.32295,-9.437683,38.20708990097046
1618837106.33858,-8.837585,38.22271990776062
1618837106.3542,-8.30603,38.23833990097046
1618837106.36983,-8.036743,38.25396990776062
1618837106.38545,-8.11969,38.26958990097046
1618837106.40108,-8.564453,38.28521990776062
1618837106.41671,-9.304291,38.30084991455078
1618837106.43233,-10.24017,38.31646990776062
1618837106.44796,-11.23383,38.33209991455078
1618837106.46358,-12.159,38.34771990776062
1618837106.47921,-12.97894,38.36334991455078
1618837106.49483,-13.7934,38.37896990776062
1618837106.51046,-14.77417,38.39459991455078
1618837106.52609,-16.08212,38.41022992134094
1618837106.54171,-17.77969,38.42584991455078
1618837106.55734,-19.74423,38.44147992134094
1618837106.57296,-21.76196,38.45709991455078
1618837106.58859,-23.689,38.47272992134094
1618837106.60421,-25.51843,38.48834991455078
1618837106.61984,-27.42902,38.50397992134094
1618837106.63547,-29.65176,38.5196099281311
1618837106.65109,-32.39731,38.53522992134094
1618837106.66672,-35.68918,38.5508599281311
1618837106.68234,-39.34833,38.56647992134094
1618837106.69797,-42.98553,38.5821099281311
1618837106.71359,-46.02014,38.59772992134094
1618837106.72922,-47.79642,38.6133599281311
1618837106.74485,-47.69385,38.628989934921265
1618837106.76047,-45.31117,38.6446099281311
1618837106.7761,-40.59541,38.660239934921265
1618837106.79172,-33.85721,38.6758599281311
1618837106.80735,-25.77512,38.691489934921265
1618837106.82297,-17.14357,38.7071099281311
1618837106.8386,-8.734863,38.722739934921265
1618837106.85423,-1.07431,38.738369941711426
1618837106.86985,5.591675,38.753989934921265
1618837106.88548,11.26747,38.769619941711426
1618837106.9011,16.07904,38.785239934921265
1618837106.91673,20.18105,38.800869941711426
1618837106.93235,23.66107,38.816489934921265
1618837106.94798,26.49013,38.832119941711426
1618837106.96361,28.57568,38.84774994850159
1618837106.97923,29.76825,38.863369941711426
1618837106.99486,29.97694,38.87899994850159
1618837107.01048,29.24017,38.894619941711426
1618837107.02611,27.75844,38.91024994850159
1618837107.04173,25.86345,38.925869941711426
1618837107.05736,23.89632,38.94149994850159
1618837107.07299,22.14778,38.95712995529175
1618837107.08861,20.76332,38.97274994850159
1618837107.10424,19.76218,38.98837995529175
1618837107.11986,19.04843,39.00399994850159
1618837107.13549,18.45879,39.01962995529175
1618837107.15111,17.80115,39.03524994850159
1618837107.16674,16.90472,39.05087995529175
1618837107.18237,15.61163,39.06650996208191
1618837107.19799,13.84727,39.08212995529175
1618837107.21362,11.61372,39.09775996208191
1618837107.22924,8.981781,39.11337995529175
1618837107.24487,6.076874,39.12900996208191
1618837107.26049,3.02951,39.14462995529175
1618837107.27612,-0.1002502,39.16025996208191
1618837107.29175,-3.277817,39.17588996887207
1618837107.30737,-6.509155,39.19150996208191
1618837107.323,-9.763931,39.20713996887207
1618837107.33862,-12.95738,39.22275996208191
1618837107.35425,-15.97871,39.23838996887207
1618837107.36987,-18.73689,39.25400996208191
1618837107.3855,-21.23955,39.26963996887207
1618837107.40113,-23.63896,39.28526997566223
1618837107.41675,-26.24359,39.30088996887207
1618837107.43238,-29.39534,39.31651997566223
1618837107.448,-33.3287,39.33213996887207
1618837107.46363,-37.97623,39.34776997566223
1618837107.47926,-42.87611,39.36339998245239
1618837107.49488,-47.17818,39.37901997566223
1618837107.51051,-49.86032,39.39464998245239
1618837107.52613,-50.05585,39.41026997566223
1618837107.54176,-47.32512,39.42589998245239
1618837107.55738,-41.81468,39.44151997566223
1618837107.57301,-34.1778,39.45714998245239
1618837107.58864,-25.37628,39.472779989242554
1618837107.60426,-16.31702,39.48839998245239
1618837107.61989,-7.699936,39.504029989242554
1618837107.63551,0.1035004,39.51964998245239
1618837107.65114,6.955589,39.535279989242554
1618837107.66676,12.85581,39.55089998245239
1618837107.68239,17.82353,39.566529989242554
1618837107.69802,21.87369,39.582159996032715
1618837107.71364,25.03323,39.597779989242554
1618837107.72927,27.33521,39.613409996032715
1618837107.74489,28.8472,39.629029989242554
1618837107.76052,29.66533,39.644659996032715
1618837107.77614,29.88799,39.660279989242554
1618837107.79177,29.64564,39.675909996032715
1618837107.8074,29.06327,39.691540002822876
1618837107.82302,28.29051,39.707159996032715
1618837107.83865,27.47931,39.722790002822876
1618837107.85427,26.74403,39.738409996032715
1618837107.8699,26.15788,39.754040002822876
1618837107.88552,25.72636,39.769659996032715
1618837107.90115,25.39894,39.785290002822876
1618837107.91678,25.03501,39.80092000961304
1618837107.9324,24.45639,39.816540002822876
1618837107.94803,23.48521,39.83217000961304
1618837107.96365,22.02645,39.847790002822876
1618837107.97928,20.09101,39.86342000961304
1618837107.9949,17.82629,39.879040002822876
1618837108.01053,15.47043,39.89467000961304
1618837108.02616,13.22709,39.9103000164032
1618837108.04178,11.13551,39.92592000961304
1618837108.05741,9.030609,39.9415500164032
1618837108.07303,6.654133,39.95717000961304
1618837108.08866,3.767126,39.9728000164032
1618837108.10428,0.3390217,39.98842000961304
1618837108.11991,-3.422546,40.0040500164032
1618837108.13554,-7.139748,40.01968002319336
1618837108.15116,-10.51034,40.0353000164032
1618837108.16679,-13.4333,40.05093002319336
1618837108.18241,-16.13239,40.0665500164032
1618837108.19804,-19.04987,40.08218002319336
1618837108.21366,-22.63567,40.0978000164032
1618837108.22929,-27.22526,40.11343002319336
1618837108.24492,-32.80808,40.12906002998352
1618837108.26054,-39.06029,40.14468002319336
1618837108.27617,-45.35107,40.16031002998352
1618837108.29179,-50.79472,40.17593002319336
1618837108.30742,-54.43072,40.19156002998352
1618837108.32304,-55.3714,40.20718002319336
1618837108.33867,-53.07042,40.22281002998352
1618837108.3543,-47.51558,40.23844003677368
1618837108.36992,-39.3163,40.25406002998352
1618837108.38555,-29.53995,40.26969003677368
1618837108.40117,-19.42019,40.28531002998352
1618837108.4168,-10.02216,40.30094003677368
1618837108.43242,-1.957119,40.31656002998352
1618837108.44805,4.643654,40.33219003677368
1618837108.46368,10.06104,40.34782004356384
1618837108.4793,14.73669,40.36344003677368
1618837108.49493,19.05497,40.37907004356384
1618837108.51055,23.18767,40.39469003677368
1618837108.52618,27.10711,40.41032004356384
1618837108.5418,30.62465,40.42594003677368
1618837108.55743,33.51874,40.44157004356384
1618837108.57306,35.64034,40.457200050354004
1618837108.58868,37.00248,40.47282004356384
1618837108.60431,37.7329,40.488450050354004
1618837108.61993,38.00415,40.50407004356384
1618837108.63556,37.966,40.519700050354004
1618837108.65118,37.70355,40.53532004356384
1618837108.66681,37.2532,40.550950050354004
1618837108.68244,36.6703,40.566580057144165
1618837108.69806,36.07462,40.582200050354004
1618837108.71369,35.62077,40.597830057144165
1618837108.72931,35.39651,40.613450050354004
1618837108.74494,35.3483,40.629080057144165
1618837108.76056,35.25312,40.644700050354004
1618837108.77619,34.83225,40.660330057144165
1618837108.79182,33.88505,40.675960063934326
1618837108.80744,32.40633,40.691580057144165
1618837108.82307,30.56962,40.707210063934326
1618837108.83869,28.65197,40.722830057144165
1618837108.85432,26.80694,40.738460063934326
1618837108.86994,25.0442,40.754080057144165
1618837108.88557,23.17955,40.769710063934326
1618837108.9012,20.97431,40.78534007072449
1618837108.91682,18.27305,40.800960063934326
1618837108.93245,15.0717,40.81659007072449
1618837108.94807,11.57389,40.832210063934326
1618837108.9637,8.077507,40.84784007072449
1618837108.97932,4.853996,40.863460063934326
1618837108.99495,1.985306,40.87909007072449
1618837109.01058,-0.6790009,40.89472007751465
1618837109.0262,-3.515266,40.91034007072449
1618837109.04183,-7.021667,40.92597007751465
1618837109.05745,-11.60369,40.94159007072449
1618837109.07308,-17.41229,40.95722007751465
1618837109.0887,-24.18229,40.97284007072449
1618837109.10433,-31.26189,40.98847007751465
1618837109.11996,-37.69641,41.00410008430481
1618837109.13558,-42.4916,41.01972007751465
1618837109.15121,-44.81869,41.03535008430481
1618837109.16683,-44.22913,41.05097007751465
1618837109.18246,-40.7469,41.06660008430481
1618837109.19808,-34.82799,41.08222007751465
1618837109.21371,-27.24507,41.09785008430481
1618837109.22934,-18.86598,41.11348009109497
1618837109.24496,-10.49857,41.12910008430481
1618837109.26059,-2.729919,41.14473009109497
1618837109.27621,4.106415,41.16035008430481
1618837109.29184,9.869339,41.17598009109497
1618837109.30746,14.61005,41.19160008430481
1618837109.32309,18.49048,41.20723009109497
1618837109.33872,21.75266,41.22286009788513
1618837109.35434,24.62103,41.23848009109497
1618837109.36997,27.23512,41.25411009788513
1618837109.38559,29.52693,41.26973009109497
1618837109.40122,31.24651,41.28536009788513
1618837109.41684,32.09261,41.30098009109497
1618837109.43247,31.8714,41.31661009788513
1618837109.4481,30.67009,41.33224010467529
1618837109.46372,28.819,41.34786009788513
1618837109.47935,26.84988,41.36349010467529
1618837109.49497,25.2137,41.37911009788513
1618837109.5106,24.15242,41.39474010467529
1618837109.52622,23.63008,41.41036009788513
1618837109.54185,23.42654,41.42599010467529
1618837109.55748,23.24158,41.441620111465454
1618837109.5731,22.82913,41.45724010467529
1618837109.58873,22.08466,41.472870111465454
1618837109.60435,20.99268,41.48849010467529
1618837109.61998,19.60849,41.504120111465454
1618837109.63561,17.98994,41.519750118255615
1618837109.65123,16.18291,41.535370111465454
1618837109.66686,14.17128,41.551000118255615
1618837109.68248,11.93033,41.566620111465454
1618837109.69811,9.389099,41.582250118255615
1618837109.71373,6.507996,41.597870111465454
1618837109.72936,3.303375,41.613500118255615
1618837109.74499,-0.1315155,41.629130125045776
1618837109.76061,-3.63768,41.644750118255615
1618837109.77624,-7.000168,41.660380125045776
1618837109.79186,-10.05389,41.676000118255615
1618837109.80749,-12.76321,41.691630125045776
1618837109.82311,-15.25368,41.707250118255615
1618837109.83874,-17.82581,41.722880125045776
1618837109.85437,-20.88155,41.73851013183594
1618837109.86999,-24.72656,41.754130125045776
1618837109.88562,-29.44199,41.76976013183594
1618837109.90124,-34.70305,41.785380125045776
1618837109.91687,-39.82846,41.80101013183594
1618837109.93249,-43.91016,41.816630125045776
1618837109.94812,-46.01781,41.83226013183594
1618837109.96375,-45.48988,41.84788990020752
1618837109.97937,-42.12531,41.86351013183594
1618837109.995,-36.22157,41.87913990020752
1618837110.01062,-28.48479,41.89476013183594
1618837110.02625,-19.82195,41.91038990020752
1618837110.04187,-11.05988,41.92601013183594
1618837110.0575,-2.781708,41.94163990020752
1618837110.07313,4.742493,41.95726990699768
1618837110.08875,11.46713,41.97288990020752
1618837110.10438,17.42232,41.98851990699768
1618837110.12,22.61607,42.00413990020752
1618837110.13563,26.89809,42.01976990699768
1618837110.15125,30.01485,42.03538990020752
1618837110.16688,31.73042,42.05101990699768
1618837110.18251,32.02634,42.06664991378784
1618837110.19813,31.13475,42.08226990699768
1618837110.21376,29.52322,42.09789991378784
1618837110.22938,27.69936,42.11351990699768
1618837110.24501,26.02072,42.12914991378784
1618837110.26063,24.67374,42.14476990699768
1618837110.27626,23.58627,42.16039991378784
1618837110.29189,22.5556,42.176029920578
1618837110.30751,21.36734,42.19164991378784
1618837110.32314,19.95859,42.207279920578
1618837110.33876,18.39832,42.22289991378784
1618837110.35439,16.83269,42.238529920578
1618837110.37001,15.36819,42.25414991378784
1618837110.38564,13.96791,42.269779920578
1618837110.40127,12.62476,42.285409927368164
1618837110.41689,11.22307,42.301029920578
1618837110.43252,9.549667,42.316659927368164
1618837110.44814,7.39267,42.332279920578
1618837110.46377,4.658081,42.347909927368164
1618837110.47939,1.392151,42.363529920578
1618837110.49502,-2.190643,42.379159927368164
1618837110.51065,-5.840439,42.394789934158325
1618837110.52627,-9.37352,42.410409927368164
1618837110.5419,-12.34901,42.426039934158325
1618837110.55752,-14.5795,42.441659927368164
1618837110.57315,-16.21233,42.457289934158325
1618837110.58877,-17.75369,42.472909927368164
1618837110.6044,-19.76323,42.488539934158325
1618837110.62003,-22.58858,42.504169940948486
1618837110.63565,-26.37706,42.519789934158325
1618837110.65128,-31.08365,42.535419940948486
1618837110.6669,-36.51624,42.551039934158325
1618837110.68253,-41.57635,42.566669940948486
1618837110.69815,-45.1763,42.582289934158325
1618837110.71378,-46.64519,42.597919940948486
1618837110.72941,-45.94574,42.61354994773865
1618837110.74503,-43.34422,42.629169940948486
1618837110.76066,-39.10046,42.64479994773865
1618837110.77628,-33.43294,42.660419940948486
1618837110.79191,-26.52995,42.67604994773865
1618837110.80753,-18.71925,42.691669940948486
1618837110.82316,-9.245056,42.70729994773865
1618837110.83879,2.208328,42.72292995452881
1618837110.85441,14.99084,42.73854994773865
1618837110.87004,27.52107,42.75417995452881
1618837110.88566,38.23972,42.76979994773865
1618837110.90129,46.49997,42.78542995452881
1618837110.91691,52.72838,42.80104994773865
1618837110.93254,58.21049,42.81667995452881
1618837110.94817,64.51685,42.83230996131897
1618837110.96379,74.60962,42.84792995452881
1618837110.97942,90.4639,42.86355996131897
1618837110.99504,111.9846,42.87917995452881
1618837111.01067,136.6715,42.89480996131897
1618837111.02629,160.8797,42.91042995452881
1618837111.04192,181.2713,42.92605996131897
1618837111.05755,195.7062,42.94168996810913
1618837111.07317,203.8899,42.95730996131897
1618837111.0888,197.5215,42.97293996810913
1618837111.10442,173.583,42.98855996131897
1618837111.12005,136.3052,43.00418996810913
1618837111.13567,95.7518,43.01980996131897
1618837111.1513,61.08115,43.03543996810913
1618837111.16693,35.9788,43.05106997489929
1618837111.18255,19.26884,43.06668996810913
1618837111.19818,7.918686,43.08231997489929
1618837111.2138,-0.4367676,43.09793996810913
1618837111.22943,-7.021568,43.11356997489929
1618837111.24505,-10.83991,43.12918996810913
1618837111.26068,-11.22744,43.14481997489929
1618837111.27631,-9.057976,43.16044998168945
1618837111.29193,-6.998947,43.17606997489929
1618837111.30756,-7.815775,43.19169998168945
1618837111.32318,-12.88262,43.20731997489929
1618837111.33881,-23.32406,43.22294998168945
1618837111.35443,-39.08663,43.23856997489929
1618837111.37006,-59.35557,43.25419998168945
1618837111.38569,-81.27541,43.269829988479614
1618837111.40131,-101.3428,43.28544998168945
1618837111.41694,-116.1682,43.301079988479614
1618837111.43256,-123.6547,43.31669998168945
1618837111.44819,-122.8713,43.332329988479614
1618837111.46381,-114.4924,43.34794998168945
1618837111.47944,-100.8228,43.363579988479614
1618837111.49507,-85.18216,43.379209995269775
1618837111.51069,-70.97662,43.394829988479614
1618837111.52632,-59.9522,43.410459995269775
1618837111.54194,-52.74681,43.426079988479614
1618837111.55757,-47.22332,43.441709995269775
1618837111.57319,-42.6783,43.457329988479614
1618837111.58882,-38.6321,43.472959995269775
1618837111.60445,-34.77631,43.48859000205994
1618837111.62007,-30.86166,43.504209995269775
1618837111.6357,-26.51885,43.51984000205994
1618837111.65132,-21.33633,43.535459995269775
1618837111.66695,-14.57962,43.55109000205994
1618837111.68257,-5.92688,43.566709995269775
1618837111.6982,4.238083,43.58234000205994
1618837111.71383,14.44467,43.5979700088501
1618837111.72945,23.11671,43.61359000205994
1618837111.74508,28.96915,43.6292200088501
1618837111.7607,31.40318,43.64484000205994
1618837111.77633,30.72987,43.6604700088501
1618837111.79195,27.9335,43.67609000205994
1618837111.80758,24.45959,43.6917200088501
1618837111.82321,21.6079,43.70735001564026
1618837111.83883,20.11437,43.7229700088501
1618837111.85446,19.72044,43.73860001564026
1618837111.87008,19.72926,43.7542200088501
1618837111.88571,19.30609,43.76985001564026
1618837111.90134,17.84927,43.78548002243042
1618837111.91696,15.25594,43.80110001564026
1618837111.93259,11.86308,43.81673002243042
1618837111.94821,8.259262,43.83235001564026
1618837111.96384,4.929916,43.84798002243042
1618837111.97946,2.116898,43.86360001564026
1618837111.99509,-0.4748688,43.87923002243042
1618837112.01072,-3.21608,43.89486002922058
1618837112.02634,-6.471756,43.91048002243042
1618837112.04197,-10.40718,43.92611002922058
1618837112.05759,-14.91566,43.94173002243042
1618837112.07322,-19.73337,43.95736002922058
1618837112.08884,-24.55013,43.97298002243042
1618837112.10447,-29.17155,43.98861002922058
1618837112.1201,-33.48456,44.00424003601074
1618837112.13572,-37.52325,44.01986002922058
1618837112.15135,-41.27423,44.03549003601074
1618837112.16697,-44.65837,44.05111002922058
1618837112.1826,-47.53819,44.06674003601074
1618837112.19822,-49.80415,44.08236002922058
1618837112.21385,-51.42943,44.09799003601074
1618837112.22948,-52.58774,44.1136200428009
1618837112.2451,-53.58833,44.12924003601074
1618837112.26073,-54.85617,44.1448700428009
1618837112.27635,-56.80907,44.16049003601074
1618837112.29198,-59.71428,44.1761200428009
1618837112.3076,-63.58743,44.19174003601074
1618837112.32323,-68.11922,44.2073700428009
1618837112.33886,-72.70836,44.223000049591064
1618837112.35448,-76.49896,44.2386200428009
1618837112.37011,-78.54605,44.254250049591064
1618837112.38573,-78.03064,44.2698700428009
1618837112.40136,-74.49171,44.285500049591064
1618837112.41698,-67.99748,44.3011200428009
1618837112.43261,-59.18614,44.316750049591064
1618837112.44824,-49.03516,44.332380056381226
1618837112.46386,-38.58363,44.348000049591064
1618837112.47949,-28.67726,44.363630056381226
1618837112.49511,-19.7879,44.379250049591064
1618837112.51074,-12.0318,44.394880056381226
1618837112.52636,-5.30011,44.410500049591064
1618837112.54199,0.5558929,44.426130056381226
1618837112.55762,5.614365,44.44176006317139
1618837112.57324,9.833908,44.457380056381226
1618837112.58887,13.11389,44.47301006317139
1618837112.60449,15.39713,44.488630056381226
1618837112.62012,16.71571,44.50426006317139
1618837112.63574,17.2267,44.519880056381226
1618837112.65137,17.1738,44.53551006317139
1618837112.667,16.83171,44.55114006996155
1618837112.68262,16.43623,44.56676006317139
1618837112.69825,16.14005,44.58239006996155
1618837112.71387,15.98407,44.59801006317139
1618837112.7295,15.91885,44.61364006996155
1618837112.74512,15.90619,44.62926006317139
1618837112.76075,15.88577,44.64489006996155
1618837112.77638,15.86951,44.66052007675171
1618837112.792,15.85495,44.67614006996155
1618837112.80763,15.79279,44.69177007675171
1618837112.82325,15.55641,44.70739006996155
1618837112.83888,14.95674,44.72302007675171
1618837112.8545,13.78876,44.73864006996155
1618837112.87013,11.9238,44.75427007675171
1618837112.88576,9.385712,44.76990008354187
1618837112.90138,6.346008,44.78552007675171
1618837112.91701,3.074066,44.80115008354187
1618837112.93263,-0.1986847,44.81677007675171
1618837112.94826,-3.382965,44.83240008354187
1618837112.96388,-6.577797,44.84802007675171
1618837112.97951,-10.02126,44.86365008354187
1618837112.99514,-13.96163,44.87928009033203
1618837113.01076,-18.57019,44.89490008354187
1618837113.02639,-23.88822,44.91053009033203
1618837113.04201,-29.84531,44.92615008354187
1618837113.05764,-36.2524,44.94178009033203
1618837113.07326,-42.7961,44.95740008354187
1618837113.08889,-48.94965,44.97303009033203
1618837113.10452,-53.98154,44.98866009712219
1618837113.12014,-57.08904,45.00428009033203
1618837113.13577,-57.575,45.01991009712219
1618837113.15139,-55.08538,45.03553009033203
1618837113.16702,-49.75021,45.05116009712219
1618837113.18264,-42.13014,45.06678009033203
1618837113.19827,-33.0247,45.08241009712219
1618837113.2139,-23.27737,45.09804010391235
1618837113.22952,-13.58994,45.11366009712219
1618837113.24515,-4.408325,45.12929010391235
1618837113.26077,3.989784,45.14491009712219
1618837113.2764,11.50397,45.16054010391235
1618837113.29202,18.13435,45.17616009712219
1618837113.30765,23.92135,45.19179010391235
1618837113.32328,28.91246,45.207420110702515
1618837113.3389,33.08039,45.22304010391235
1618837113.35453,36.30821,45.238670110702515
1618837113.37015,38.43357,45.25429010391235
1618837113.38578,39.38178,45.269920110702515
1618837113.4014,39.26471,45.28554010391235
1618837113.41703,38.43216,45.301170110702515
1618837113.43266,37.35266,45.316800117492676
1618837113.44828,36.42028,45.332420110702515
1618837113.46391,35.78747,45.348050117492676
1618837113.47953,35.28088,45.363670110702515
1618837113.49516,34.55538,45.379300117492676
1618837113.51078,33.30365,45.394920110702515
1618837113.52641,31.45336,45.410550117492676
1618837113.54204,29.22306,45.42618012428284
1618837113.55766,26.99561,45.441800117492676
1618837113.57329,25.07905,45.45743012428284
1618837113.58891,23.48963,45.473050117492676
1618837113.60454,21.98679,45.48868012428284
1618837113.62016,20.20284,45.504300117492676
1618837113.63579,17.82195,45.51993012428284
1618837113.65142,14.77181,45.535560131073
1618837113.66704,11.1598,45.55118012428284
1618837113.68267,7.190673,45.566810131073
1618837113.69829,3.012541,45.58243012428284
1618837113.71392,-1.292765,45.598060131073
1618837113.72954,-5.681181,45.61368012428284
1618837113.74517,-10.05026,45.629310131073
1618837113.7608,-14.25621,45.64493989944458
1618837113.77642,-18.17365,45.660560131073
1618837113.79205,-21.88052,45.67618989944458
1618837113.80767,-25.67304,45.691810131073
1618837113.8233,-30.05234,45.70743989944458
1618837113.83892,-35.45487,45.723060131073
1618837113.85455,-42.00189,45.73868989944458
1618837113.87018,-49.25747,45.75431990623474
