timestamp,value,norm_ts
1619378265.42246,70.60246,4.798720121383667
1619378265.43808,71.59608,4.814340114593506
1619378265.45371,72.71208,4.829970121383667
1619378265.46934,73.54692,4.845600128173828
1619378265.48496,73.77811,4.861220121383667
1619378265.50059,73.17534,4.876850128173828
1619378265.51621,71.55472,4.892470121383667
1619378265.53184,68.79332,4.908100128173828
1619378265.54746,64.8223,4.923720121383667
1619378265.56309,59.62622,4.939350128173828
1619378265.57872,53.21892,4.954980134963989
1619378265.59434,45.60619,4.970600128173828
1619378265.60997,36.76443,4.986230134963989
1619378265.62559,26.69817,5.001850128173828
1619378265.64122,15.50092,5.017480134963989
1619378265.65684,3.473679,5.033100128173828
1619378265.67247,-8.883728,5.048730134963989
1619378265.6881,-20.94441,5.06436014175415
1619378265.70372,-32.16673,5.079980134963989
1619378265.71935,-42.26006,5.09561014175415
1619378265.73497,-51.35522,5.111230134963989
1619378265.7506,-59.99203,5.12686014175415
1619378265.76622,-69.06633,5.142480134963989
1619378265.78185,-79.61263,5.15811014175415
1619378265.79748,-92.58719,5.1737401485443115
1619378265.8131,-108.3668,5.18936014175415
1619378265.82873,-126.2387,5.2049901485443115
1619378265.84435,-143.9872,5.22061014175415
1619378265.85998,-157.9329,5.2362401485443115
1619378265.87561,-163.7587,5.251870155334473
1619378265.89123,-157.8645,5.2674901485443115
1619378265.90686,-138.8558,5.283120155334473
1619378265.92248,-108.3073,5.2987401485443115
1619378265.93811,-70.46516,5.314370155334473
1619378265.95373,-30.89516,5.3299901485443115
1619378265.96936,5.318344,5.345620155334473
1619378265.98499,34.94167,5.361249923706055
1619378266.00061,57.02351,5.376870155334473
1619378266.01624,72.34203,5.392499923706055
1619378266.03186,82.33777,5.408120155334473
1619378266.04749,88.19521,5.423749923706055
1619378266.06311,90.52013,5.439370155334473
1619378266.07874,89.56157,5.454999923706055
1619378266.09437,85.74361,5.470629930496216
1619378266.10999,79.95912,5.486249923706055
1619378266.12562,73.53545,5.501879930496216
1619378266.14124,67.86143,5.517499923706055
1619378266.15687,63.83369,5.533129930496216
1619378266.17249,61.62802,5.548749923706055
1619378266.18812,60.64865,5.564379930496216
1619378266.20375,59.92908,5.580009937286377
1619378266.21937,58.61855,5.595629930496216
1619378266.235,56.38629,5.611259937286377
1619378266.25062,53.55423,5.626879930496216
1619378266.26625,50.8485,5.642509937286377
1619378266.28187,48.94823,5.658129930496216
1619378266.2975,47.93202,5.673759937286377
1619378266.31313,47.06654,5.689389944076538
1619378266.32875,44.97095,5.705009937286377
1619378266.34438,40.15628,5.720639944076538
1619378266.36,31.71065,5.736259937286377
1619378266.37563,19.81708,5.751889944076538
1619378266.39125,5.76886,5.767509937286377
1619378266.40688,-8.510117,5.783139944076538
1619378266.42251,-21.19946,5.798769950866699
1619378266.43813,-31.34636,5.814389944076538
1619378266.45376,-39.17906,5.830019950866699
1619378266.46938,-45.95381,5.845639944076538
1619378266.48501,-53.41048,5.861269950866699
1619378266.50063,-63.17267,5.876889944076538
1619378266.51626,-76.2466,5.892519950866699
1619378266.53189,-92.69135,5.90814995765686
1619378266.54751,-111.3897,5.923769950866699
1619378266.56314,-129.9892,5.93939995765686
1619378266.57876,-145.0279,5.955019950866699
1619378266.59439,-152.5753,5.97064995765686
1619378266.61001,-149.2244,5.986269950866699
1619378266.62564,-133.2983,6.00189995765686
1619378266.64127,-105.6729,6.0175299644470215
1619378266.65689,-69.74625,6.03314995765686
1619378266.67252,-30.50406,6.0487799644470215
1619378266.68814,6.922089,6.06439995765686
1619378266.70377,38.75977,6.0800299644470215
1619378266.71939,63.27097,6.09564995765686
1619378266.73502,80.62378,6.1112799644470215
1619378266.75065,92.0309,6.126909971237183
1619378266.76627,98.77469,6.1425299644470215
1619378266.7819,101.644,6.158159971237183
1619378266.79752,100.9032,6.1737799644470215
1619378266.81315,96.71732,6.189409971237183
1619378266.82877,89.66714,6.2050299644470215
1619378266.8444,80.93726,6.220659971237183
1619378266.86003,72.15182,6.236289978027344
1619378266.87565,64.89716,6.251909971237183
1619378266.89128,60.20966,6.267539978027344
1619378266.9069,58.27441,6.283159971237183
1619378266.92253,58.44986,6.298789978027344
1619378266.93815,59.60706,6.314409971237183
1619378266.95378,60.60754,6.330039978027344
1619378266.96941,60.68469,6.345669984817505
1619378266.98503,59.5892,6.361289978027344
1619378267.00066,57.50122,6.376919984817505
1619378267.01628,54.79114,6.392539978027344
1619378267.03191,51.67596,6.408169984817505
1619378267.04753,48.0791,6.423789978027344
1619378267.06316,43.57034,6.439419984817505
1619378267.07879,37.54782,6.455049991607666
1619378267.09441,29.45874,6.470669984817505
1619378267.11004,19.13614,6.486299991607666
1619378267.12566,6.921631,6.501919984817505
1619378267.14129,-6.374878,6.517549991607666
1619378267.15691,-19.70993,6.533169984817505
1619378267.17254,-32.15158,6.548799991607666
1619378267.18817,-43.16608,6.564429998397827
1619378267.20379,-52.73755,6.580049991607666
1619378267.21942,-61.3136,6.595679998397827
1619378267.23504,-69.62921,6.611299991607666
1619378267.25067,-78.54526,6.626929998397827
1619378267.26629,-88.97122,6.642549991607666
1619378267.28192,-101.7139,6.658179998397827
1619378267.29755,-117.0939,6.673810005187988
1619378267.31317,-134.4395,6.689429998397827
1619378267.3288,-151.5584,6.705060005187988
1619378267.34442,-164.7659,6.720679998397827
1619378267.36005,-169.6453,6.736310005187988
1619378267.37567,-162.4916,6.751929998397827
1619378267.3913,-141.8424,6.767560005187988
1619378267.40693,-109.2807,6.783190011978149
1619378267.42255,-69.15567,6.798810005187988
1619378267.43818,-27.18338,6.814440011978149
1619378267.4538,11.35757,6.830060005187988
1619378267.46943,43.03949,6.845690011978149
1619378267.48505,66.76382,6.861310005187988
1619378267.50068,83.22424,6.876940011978149
1619378267.51631,93.86206,6.8925700187683105
1619378267.53193,99.92395,6.908190011978149
1619378267.54756,102.1384,6.9238200187683105
1619378267.56318,100.8656,6.939440011978149
1619378267.57881,96.60721,6.9550700187683105
1619378267.59443,90.34515,6.970690011978149
1619378267.61006,83.53244,6.9863200187683105
1619378267.62569,77.72864,7.001950025558472
1619378267.64131,74.09744,7.0175700187683105
1619378267.65694,72.99887,7.033200025558472
1619378267.67256,73.94977,7.0488200187683105
1619378267.68819,75.90814,7.064450025558472
1619378267.70381,77.79694,7.0800700187683105
1619378267.71944,78.97443,7.095700025558472
1619378267.73507,79.44086,7.111330032348633
1619378267.75069,79.67065,7.126950025558472
1619378267.76632,80.17053,7.142580032348633
1619378267.78194,81.0152,7.158200025558472
1619378267.79757,81.62088,7.173830032348633
1619378267.81319,80.91722,7.189450025558472
1619378267.82882,77.79341,7.205080032348633
1619378267.84445,71.64069,7.220710039138794
1619378267.86007,62.69525,7.236330032348633
1619378267.8757,52.01682,7.251960039138794
1619378267.89132,41.08302,7.267580032348633
1619378267.90695,31.2106,7.283210039138794
1619378267.92257,22.96231,7.298830032348633
1619378267.9382,15.9778,7.314460039138794
1619378267.95383,9.142365,7.330090045928955
1619378267.96945,1.164627,7.345710039138794
1619378267.98508,-8.79364,7.361340045928955
1619378268.0007,-20.68535,7.376960039138794
1619378268.01633,-33.56004,7.392590045928955
1619378268.03195,-45.99348,7.408210039138794
1619378268.04758,-56.67589,7.423840045928955
1619378268.06321,-64.94792,7.439470052719116
1619378268.07883,-71.03638,7.455090045928955
1619378268.09446,-75.92087,7.470720052719116
1619378268.11008,-80.98579,7.486340045928955
1619378268.12571,-87.66618,7.501970052719116
1619378268.14134,-97.16962,7.517600059509277
1619378268.15696,-110.1786,7.533220052719116
1619378268.17259,-126.4316,7.548850059509277
1619378268.18821,-144.2729,7.564470052719116
1619378268.20384,-160.4185,7.580100059509277
1619378268.21946,-170.3825,7.595720052719116
1619378268.23509,-169.6601,7.611350059509277
1619378268.25072,-155.3821,7.6269800662994385
1619378268.26634,-127.6332,7.642600059509277
1619378268.28197,-89.77534,7.6582300662994385
1619378268.29759,-47.49042,7.673850059509277
1619378268.31322,-6.898483,7.6894800662994385
1619378268.32884,27.35623,7.705100059509277
1619378268.34447,53.16322,7.7207300662994385
1619378268.3601,70.82214,7.7363600730896
1619378268.37572,81.93913,7.7519800662994385
1619378268.39135,88.18962,7.7676100730896
1619378268.40697,90.60646,7.7832300662994385
1619378268.4226,89.56635,7.7988600730896
1619378268.43822,85.46495,7.8144800662994385
1619378268.45385,79.22324,7.8301100730896
1619378268.46948,72.43536,7.845740079879761
1619378268.4851,66.96005,7.8613600730896
1619378268.50073,64.23813,7.876990079879761
1619378268.51635,64.73544,7.8926100730896
1619378268.53198,67.82645,7.908240079879761
1619378268.5476,72.2066,7.9238600730896
1619378268.56323,76.50778,7.939490079879761
1619378268.57886,79.93494,7.955120086669922
1619378268.59448,82.46184,7.970740079879761
1619378268.61011,84.63586,7.986370086669922
1619378268.62573,87.04137,8.00199007987976
1619378268.64136,89.82158,8.017620086669922
1619378268.65698,92.43663,8.03324007987976
1619378268.67261,93.85391,8.048870086669922
1619378268.68824,92.97305,8.064500093460083
1619378268.70386,89.14781,8.080120086669922
1619378268.71949,82.43901,8.095750093460083
1619378268.73511,73.63716,8.111370086669922
1619378268.75074,63.88991,8.127000093460083
1619378268.76636,54.31441,8.142620086669922
1619378268.78199,45.58664,8.158250093460083
1619378268.79762,37.80218,8.173880100250244
1619378268.81324,30.55134,8.189500093460083
1619378268.82887,23.22607,8.205130100250244
1619378268.84449,15.37706,8.220750093460083
1619378268.86012,6.99765,8.236380100250244
1619378268.87574,-1.460388,8.252000093460083
1619378268.89137,-9.210693,8.267630100250244
1619378268.907,-15.53716,8.283260107040405
1619378268.92262,-20.2047,8.298880100250244
1619378268.93825,-23.62257,8.314510107040405
1619378268.95387,-26.84417,8.330130100250244
1619378268.9695,-31.13538,8.345760107040405
1619378268.98512,-37.45019,8.361380100250244
1619378269.00075,-46.05865,8.377010107040405
1619378269.01638,-56.4336,8.392640113830566
1619378269.032,-67.55418,8.408260107040405
1619378269.04763,-78.39223,8.423890113830566
1619378269.06325,-88.37379,8.439510107040405
1619378269.07888,-97.56551,8.455140113830566
1619378269.0945,-106.6092,8.470760107040405
1619378269.11013,-116.4673,8.486390113830566
1619378269.12576,-128.1298,8.502020120620728
1619378269.14138,-142.2616,8.517640113830566
1619378269.15701,-158.7789,8.533270120620728
1619378269.17263,-176.3221,8.548890113830566
1619378269.18826,-191.9543,8.564520120620728
1619378269.20388,-201.4375,8.580140113830566
1619378269.21951,-200.2367,8.595770120620728
1619378269.23514,-185.0879,8.611400127410889
1619378269.25076,-155.5267,8.627020120620728
1619378269.26639,-114.4668,8.642650127410889
1619378269.28201,-67.4968,8.658270120620728
1619378269.29764,-21.13091,8.673900127410889
1619378269.31326,19.26085,8.689520120620728
1619378269.32889,50.80632,8.705150127410889
1619378269.34452,73.30021,8.72078013420105
1619378269.36014,88.27846,8.736400127410889
1619378269.37577,97.65429,8.75203013420105
1619378269.39139,102.7768,8.767650127410889
1619378269.40702,104.1932,8.78328013420105
1619378269.42264,102.0725,8.798900127410889
1619378269.43827,96.85887,8.81453013420105
1619378269.4539,89.57648,8.830160140991211
1619378269.46952,81.71976,8.84578013420105
1619378269.48515,74.76193,8.861410140991211
1619378269.50077,69.66765,8.87703013420105
1619378269.5164,66.62148,8.892660140991211
1619378269.53202,65.14446,8.90828013420105
1619378269.54765,64.48392,8.923910140991211
1619378269.56328,64.04087,8.939540147781372
1619378269.5789,63.60755,8.955160140991211
1619378269.59453,63.31005,8.970790147781372
1619378269.61015,63.28699,8.986410140991211
1619378269.62578,63.43665,9.002040147781372
1619378269.6414,63.25459,9.017660140991211
1619378269.65703,62.00353,9.033290147781372
1619378269.67266,59.04413,9.048920154571533
1619378269.68828,54.20349,9.064540147781372
1619378269.70391,47.89031,9.080170154571533
1619378269.71953,40.95699,9.095790147781372
1619378269.73516,34.32791,9.111420154571533
1619378269.75078,28.5689,9.127040147781372
1619378269.76641,23.66124,9.142670154571533
1619378269.78204,19.02645,9.158300161361694
1619378269.79766,13.86347,9.173920154571533
1619378269.81329,7.552814,9.189550161361694
1619378269.82891,-0.02387238,9.205170154571533
1619378269.84454,-8.367207,9.220800161361694
1619378269.86016,-16.63059,9.236420154571533
1619378269.87579,-24.00336,9.252050161361694
1619378269.89142,-30.11978,9.267679929733276
1619378269.90704,-35.25039,9.283300161361694
1619378269.92267,-40.17166,9.298929929733276
1619378269.93829,-45.77985,9.314550161361694
1619378269.95392,-52.62335,9.330179929733276
1619378269.96954,-60.59708,9.345800161361694
1619378269.98517,-68.94173,9.361429929733276
1619378270.0008,-76.64006,9.377059936523438
1619378270.01642,-82.87794,9.392679929733276
1619378270.03205,-87.49474,9.408309936523438
1619378270.04767,-91.11193,9.423929929733276
1619378270.0633,-95.00681,9.439559936523438
1619378270.07892,-100.7393,9.455179929733276
1619378270.09455,-109.7363,9.470809936523438
1619378270.11018,-122.7338,9.486439943313599
1619378270.1258,-139.1801,9.502059936523438
1619378270.14143,-156.8785,9.517689943313599
1619378270.15705,-171.9702,9.533309936523438
1619378270.17268,-179.7069,9.548939943313599
1619378270.1883,-175.8023,9.564559936523438
1619378270.20393,-158.0465,9.580189943313599
1619378270.21956,-127.3137,9.59581995010376
1619378270.23518,-87.57308,9.611439943313599
1619378270.25081,-44.64789,9.62706995010376
1619378270.26643,-4.344215,9.642689943313599
1619378270.28206,29.22218,9.65831995010376
1619378270.29768,54.41917,9.673939943313599
1619378270.31331,71.74387,9.68956995010376
1619378270.32894,82.77639,9.705199956893921
1619378270.34456,89.05991,9.72081995010376
1619378270.36019,91.58086,9.736449956893921
1619378270.37581,90.79134,9.75206995010376
1619378270.39144,87.12025,9.767699956893921
1619378270.40706,81.35463,9.78331995010376
1619378270.42269,74.77898,9.798949956893921
1619378270.43832,68.87379,9.814579963684082
1619378270.45394,64.87029,9.830199956893921
1619378270.46957,63.38413,9.845829963684082
1619378270.48519,64.25109,9.861449956893921
1619378270.50082,66.721,9.877079963684082
1619378270.51644,69.7831,9.892699956893921
1619378270.53207,72.57184,9.908329963684082
1619378270.5477,74.62475,9.923959970474243
1619378270.56332,75.89604,9.939579963684082
1619378270.57895,76.62357,9.955209970474243
1619378270.59457,77.01888,9.970829963684082
1619378270.6102,77.06211,9.986459970474243
1619378270.62582,76.37943,10.002079963684082
1619378270.64145,74.39208,10.017709970474243
1619378270.65708,70.50636,10.033339977264404
1619378270.6727,64.4192,10.048959970474243
1619378270.68833,56.30096,10.064589977264404
1619378270.70395,46.81059,10.080209970474243
1619378270.71958,36.86835,10.095839977264404
1619378270.73521,27.34425,10.111469984054565
1619378270.75083,18.73819,10.127089977264404
1619378270.76646,11.01727,10.142719984054565
1619378270.78208,3.676659,10.158339977264404
1619378270.79771,-3.966545,10.173969984054565
1619378270.81333,-12.45682,10.189589977264404
1619378270.82896,-21.93168,10.205219984054565
1619378270.84459,-32.06037,10.220849990844727
1619378270.86021,-42.15144,10.236469984054565
1619378270.87584,-51.43931,10.252099990844727
1619378270.89146,-59.343,10.267719984054565
1619378270.90709,-65.7021,10.283349990844727
1619378270.92271,-70.83963,10.298969984054565
1619378270.93834,-75.51069,10.314599990844727
1619378270.95397,-80.7698,10.330229997634888
1619378270.96959,-87.76496,10.345849990844727
1619378270.98522,-97.49287,10.361479997634888
1619378271.00084,-110.4096,10.377099990844727
1619378271.01647,-125.9819,10.392729997634888
1619378271.03209,-142.2784,10.408349990844727
1619378271.04772,-155.9281,10.423979997634888
1619378271.06335,-162.7505,10.439610004425049
1619378271.07897,-158.8736,10.455229997634888
1619378271.0946,-142.188,10.470860004425049
1619378271.11022,-113.2964,10.486479997634888
1619378271.12585,-75.5966,10.502110004425049
1619378271.14147,-34.24193,10.517729997634888
1619378271.1571,5.463974,10.533360004425049
1619378271.17273,39.60838,10.54899001121521
1619378271.18835,66.39583,10.564610004425049
1619378271.20398,85.9407,10.58024001121521
1619378271.2196,99.4099,10.595860004425049
1619378271.23523,108.0564,10.61149001121521
1619378271.25085,112.7198,10.627110004425049
1619378271.26648,113.8612,10.64274001121521
1619378271.28211,111.9338,10.658370018005371
1619378271.29773,107.6867,10.67399001121521
1619378271.31336,102.28,10.689620018005371
1619378271.32898,97.0415,10.70524001121521
1619378271.34461,93.12832,10.720870018005371
1619378271.36023,91.20666,10.73649001121521
1619378271.37586,91.22066,10.752120018005371
1619378271.39149,92.55426,10.767750024795532
1619378271.40711,94.25891,10.783370018005371
1619378271.42274,95.4994,10.799000024795532
1619378271.43836,95.85694,10.814620018005371
1619378271.45399,95.46223,10.830250024795532
1619378271.46961,94.70291,10.845870018005371
1619378271.48524,93.83776,10.861500024795532
1619378271.50087,92.58967,10.877130031585693
1619378271.51649,90.068,10.892750024795532
1619378271.53212,85.11646,10.908380031585693
1619378271.54774,76.87178,10.924000024795532
1619378271.56337,65.26058,10.939630031585693
1619378271.57899,51.14496,10.955250024795532
1619378271.59462,36.0201,10.970880031585693
1619378271.61025,21.42799,10.986510038375854
1619378271.62587,8.395325,11.002130031585693
1619378271.6415,-2.862,11.017760038375854
1619378271.65712,-12.96558,11.033380031585693
1619378271.67275,-22.97932,11.049010038375854
1619378271.68837,-33.94559,11.064630031585693
1619378271.704,-46.48221,11.080260038375854
1619378271.71963,-60.49435,11.095890045166016
1619378271.73525,-75.18652,11.111510038375854
1619378271.75088,-89.33028,11.127140045166016
1619378271.7665,-101.714,11.142760038375854
1619378271.78213,-111.5975,11.158390045166016
1619378271.79775,-119.0744,11.174010038375854
1619378271.81338,-125.0923,11.189640045166016
1619378271.82901,-131.2185,11.205270051956177
1619378271.84463,-139.1909,11.220890045166016
1619378271.86026,-150.3747,11.236520051956177
1619378271.87588,-165.2732,11.252140045166016
1619378271.89151,-183.0112,11.267770051956177
1619378271.90713,-201.1478,11.283390045166016
1619378271.92276,-215.8352,11.299020051956177
1619378271.93839,-222.6717,11.314650058746338
1619378271.95401,-217.8816,11.330270051956177
1619378271.96964,-199.7267,11.345900058746338
1619378271.98526,-169.2809,11.361520051956177
1619378272.00089,-130.3098,11.377150058746338
1619378272.01651,-88.09209,11.392770051956177
1619378272.03214,-47.8241,11.408400058746338
1619378272.04777,-13.16046,11.424030065536499
1619378272.06339,14.42526,11.439650058746338
1619378272.07902,35.28053,11.455280065536499
1619378272.09464,50.66084,11.470900058746338
1619378272.11027,61.81898,11.486530065536499
1619378272.12589,69.4783,11.502150058746338
1619378272.14152,73.95119,11.517780065536499
1619378272.15715,75.49217,11.53341007232666
1619378272.17277,74.64749,11.549030065536499
1619378272.1884,72.3625,11.56466007232666
1619378272.20402,69.75173,11.580280065536499
1619378272.21965,67.82037,11.59591007232666
1619378272.23527,67.16889,11.611530065536499
1619378272.2509,67.92561,11.62716007232666
1619378272.26653,69.82912,11.642790079116821
1619378272.28215,72.42021,11.65841007232666
1619378272.29778,75.23116,11.674040079116821
1619378272.3134,77.91826,11.68966007232666
1619378272.32903,80.2514,11.705290079116821
1619378272.34465,82.07361,11.72091007232666
1619378272.36028,83.21739,11.736540079116821
1619378272.37591,83.42558,11.752170085906982
1619378272.39153,82.39346,11.767790079116821
1619378272.40716,79.77655,11.783420085906982
1619378272.42278,75.3144,11.799040079116821
1619378272.43841,68.90913,11.814670085906982
1619378272.45403,60.70876,11.830290079116821
1619378272.46966,51.15475,11.845920085906982
1619378272.48529,40.90382,11.861550092697144
1619378272.50091,30.68401,11.877170085906982
1619378272.51654,21.10432,11.892800092697144
1619378272.53216,12.4608,11.908420085906982
1619378272.54779,4.604607,11.924050092697144
1619378272.56341,-2.986694,11.939670085906982
1619378272.57904,-11.01039,11.955300092697144
1619378272.59467,-19.99004,11.970930099487305
1619378272.61029,-30.01692,11.986550092697144
1619378272.62592,-40.64845,12.002180099487305
1619378272.64154,-51.01929,12.017800092697144
1619378272.65717,-60.22186,12.033430099487305
1619378272.67279,-67.67064,12.049050092697144
1619378272.68842,-73.39162,12.064680099487305
1619378272.70405,-78.05045,12.080310106277466
1619378272.71967,-82.80818,12.095930099487305
1619378272.7353,-89.03929,12.111560106277466
1619378272.75092,-98.02069,12.127180099487305
1619378272.76655,-110.6065,12.142810106277466
1619378272.78217,-126.8184,12.158430099487305
1619378272.7978,-145.4012,12.174060106277466
1619378272.81343,-163.5841,12.189690113067627
1619378272.82905,-177.2719,12.205310106277466
1619378272.84468,-181.9598,12.220940113067627
1619378272.8603,-174.1391,12.236560106277466
1619378272.87593,-152.6875,12.252190113067627
1619378272.89155,-119.508,12.267810106277466
1619378272.90718,-79.10793,12.283440113067627
1619378272.92281,-37.19761,12.299070119857788
1619378272.93843,1.139154,12.314690113067627
1619378272.95406,32.71759,12.330320119857788
1619378272.96968,56.67134,12.345940113067627
1619378272.98531,73.85531,12.361570119857788
1619378273.00094,85.77228,12.37720012664795
1619378273.01656,93.69901,12.392820119857788
1619378273.03219,98.33122,12.40845012664795
1619378273.04781,100.0008,12.424070119857788
1619378273.06344,99.11976,12.43970012664795
1619378273.07906,96.50446,12.455320119857788
1619378273.09469,93.28854,12.47095012664795
1619378273.11032,90.619,12.48658013343811
1619378273.12594,89.27408,12.50220012664795
1619378273.14157,89.42073,12.51783013343811
1619378273.15719,90.66206,12.53345012664795
1619378273.17282,92.34711,12.54908013343811
1619378273.18844,93.90046,12.56470012664795
1619378273.20407,95.09069,12.58033013343811
1619378273.2197,96.06047,12.595960140228271
1619378273.23532,97.08054,12.61158013343811
1619378273.25095,98.26007,12.627210140228271
1619378273.26657,99.29503,12.64283013343811
1619378273.2822,99.48022,12.658460140228271
1619378273.29782,98.00372,12.67408013343811
1619378273.31345,94.33873,12.689710140228271
1619378273.32908,88.52513,12.705340147018433
1619378273.3447,81.21423,12.720960140228271
1619378273.36033,73.37995,12.736590147018433
1619378273.37595,65.80608,12.752210140228271
1619378273.39158,58.76764,12.767840147018433
1619378273.4072,51.92849,12.783460140228271
1619378273.42283,44.57699,12.799090147018433
1619378273.43846,36.12027,12.814720153808594
1619378273.45408,26.46347,12.830340147018433
1619378273.46971,16.11626,12.845970153808594
1619378273.48533,6.022499,12.861590147018433
1619378273.50096,-2.923641,12.877220153808594
1619378273.51658,-10.29546,12.892840147018433
1619378273.53221,-16.37358,12.908470153808594
1619378273.54784,-21.98282,12.924100160598755
1619378273.56346,-28.14114,12.939720153808594
1619378273.57909,-35.49306,12.955350160598755
1619378273.59471,-44.04823,12.970970153808594
1619378273.61034,-53.15899,12.986600160598755
1619378273.62596,-61.85695,13.002220153808594
1619378273.64159,-69.35074,13.017850160598755
1619378273.65722,-75.46724,13.033479928970337
1619378273.67284,-80.74573,13.049100160598755
1619378273.68847,-86.31676,13.064729928970337
1619378273.70409,-93.55733,13.080350160598755
1619378273.71972,-103.6736,13.095979928970337
1619378273.73534,-117.2834,13.111600160598755
1619378273.75097,-133.9553,13.127229928970337
1619378273.7666,-151.7914,13.142859935760498
1619378273.78222,-167.3704,13.158479928970337
1619378273.79785,-176.2622,13.174109935760498
1619378273.81347,-174.2262,13.189729928970337
1619378273.8291,-158.724,13.205359935760498
1619378273.84472,-130.0954,13.220979928970337
1619378273.86035,-91.77336,13.236609935760498
1619378273.87598,-49.27266,13.25223994255066
1619378273.8916,-8.430305,13.267859935760498
1619378273.90723,26.36694,13.28348994255066
1619378273.92285,53.0923,13.299109935760498
1619378273.93848,71.93597,13.31473994255066
1619378273.9541,84.33534,13.330359935760498
1619378273.96973,91.91412,13.34598994255066
1619378273.98536,95.80742,13.36161994934082
1619378274.00098,96.6366,13.37723994255066
1619378274.01661,94.86914,13.39286994934082
1619378274.03223,91.1698,13.40848994255066
1619378274.04786,86.5159,13.42411994934082
1619378274.06348,82.00797,13.43973994255066
1619378274.07911,78.5909,13.45536994934082
1619378274.09474,76.81385,13.470999956130981
1619378274.11036,76.76535,13.48661994934082
1619378274.12599,78.14771,13.502249956130981
1619378274.14161,80.5024,13.51786994934082
1619378274.15724,83.337,13.533499956130981
1619378274.17286,86.28867,13.54911994934082
1619378274.18849,89.06541,13.564749956130981
1619378274.20412,91.38269,13.580379962921143
1619378274.21974,92.88432,13.595999956130981
1619378274.23537,93.13437,13.611629962921143
1619378274.25099,91.72876,13.627249956130981
1619378274.26662,88.46552,13.642879962921143
1619378274.28224,83.42159,13.658499956130981
1619378274.29787,76.93115,13.674129962921143
1619378274.3135,69.44136,13.689759969711304
1619378274.32912,61.29543,13.705379962921143
1619378274.34475,52.67246,13.721009969711304
1619378274.36037,43.5946,13.736629962921143
1619378274.376,34.06348,13.752259969711304
1619378274.39162,24.19186,13.767879962921143
1619378274.40725,14.28311,13.783509969711304
1619378274.42288,4.730152,13.799139976501465
1619378274.4385,-4.103863,13.814759969711304
1619378274.45413,-12.1033,13.830389976501465
1619378274.46975,-19.47278,13.846009969711304
1619378274.48538,-26.6872,13.861639976501465
1619378274.501,-34.29504,13.877259969711304
1619378274.51663,-42.66065,13.892889976501465
1619378274.53226,-51.73279,13.908519983291626
1619378274.54788,-61.05246,13.924139976501465
1619378274.56351,-69.92172,13.939769983291626
1619378274.57913,-77.77095,13.955389976501465
1619378274.59476,-84.47009,13.971019983291626
1619378274.61038,-90.47485,13.986639976501465
1619378274.62601,-96.7964,14.002269983291626
1619378274.64164,-104.739,14.017899990081787
1619378274.65726,-115.5412,14.033519983291626
1619378274.67289,-129.8089,14.049149990081787
1619378274.68851,-146.9969,14.064769983291626
1619378274.70414,-164.9686,14.080399990081787
1619378274.71976,-180.0003,14.096019983291626
1619378274.73539,-187.5306,14.111649990081787
1619378274.75102,-183.4432,14.127279996871948
1619378274.76664,-165.6384,14.142899990081787
1619378274.78227,-135.0164,14.158529996871948
1619378274.79789,-95.47136,14.174149990081787
1619378274.81352,-52.67241,14.189779996871948
1619378274.82914,-12.29954,14.205399990081787
1619378274.84477,21.58782,14.221029996871948
1619378274.8604,47.30511,14.23666000366211
1619378274.87602,65.19545,14.252279996871948
1619378274.89165,76.67422,14.26791000366211
1619378274.90727,83.24186,14.283529996871948
1619378274.9229,85.93513,14.29916000366211
1619378274.93852,85.37489,14.314779996871948
1619378274.95415,82.15479,14.33041000366211
1619378274.96978,77.10818,14.34604001045227
1619378274.9854,71.40208,14.36166000366211
1619378275.00103,66.28008,14.37729001045227
1619378275.01665,62.66549,14.39291000366211
1619378275.03228,60.94436,14.40854001045227
1619378275.0479,60.82837,14.42416000366211
1619378275.06353,61.64234,14.43979001045227
1619378275.07916,62.57624,14.455420017242432
1619378275.09478,63.06302,14.47104001045227
1619378275.11041,62.9495,14.486670017242432
1619378275.12603,62.44843,14.50229001045227
1619378275.14166,61.92737,14.517920017242432
1619378275.15728,61.60606,14.53354001045227
1619378275.17291,61.29016,14.549170017242432
1619378275.18854,60.3367,14.564800024032593
1619378275.20416,57.8754,14.580420017242432
1619378275.21979,53.13305,14.596050024032593
1619378275.23541,45.81536,14.611670017242432
1619378275.25104,36.24464,14.627300024032593
1619378275.26666,25.34938,14.642920017242432
1619378275.28229,14.32281,14.658550024032593
1619378275.29792,4.262512,14.674180030822754
1619378275.31354,-4.227806,14.689800024032593
1619378275.32917,-11.19974,14.705430030822754
1619378275.34479,-17.307,14.721050024032593
1619378275.36042,-23.50871,14.736680030822754
1619378275.37604,-30.62009,14.752300024032593
1619378275.39167,-38.96545,14.767930030822754
1619378275.4073,-48.2408,14.783560037612915
1619378275.42292,-57.66259,14.799180030822754
1619378275.43855,-66.34348,14.814810037612915
1619378275.45417,-73.71783,14.830430030822754
1619378275.4698,-79.74817,14.846060037612915
1619378275.48543,-84.94374,14.861690044403076
1619378275.50105,-90.115,14.877310037612915
1619378275.51668,-96.15464,14.892940044403076
1619378275.5323,-103.8391,14.908560037612915
1619378275.54793,-113.7561,14.924190044403076
1619378275.56355,-126.0855,14.939810037612915
1619378275.57918,-140.177,14.955440044403076
1619378275.59481,-154.1259,14.971070051193237
1619378275.61043,-164.6605,14.986690044403076
1619378275.62606,-167.7449,15.002320051193237
1619378275.64168,-159.817,15.017940044403076
1619378275.65731,-139.2098,15.033570051193237
1619378275.67293,-107.0833,15.049190044403076
1619378275.68856,-67.25816,15.064820051193237
1619378275.70419,-25.0332,15.080450057983398
1619378275.71981,14.53387,15.096070051193237
1619378275.73544,47.99473,15.111700057983398
1619378275.75106,74.03969,15.127320051193237
1619378275.76669,93.03436,15.142950057983398
1619378275.78231,106.0953,15.158570051193237
1619378275.79794,114.2788,15.174200057983398
1619378275.81357,118.2572,15.18983006477356
1619378275.82919,118.4909,15.205450057983398
1619378275.84482,115.5795,15.22108006477356
1619378275.86044,110.5349,15.236700057983398
1619378275.87607,104.638,15.25233006477356
1619378275.89169,99.15871,15.267950057983398
1619378275.90732,94.96124,15.28358006477356
1619378275.92295,92.30196,15.29921007156372
1619378275.93857,90.84027,15.31483006477356
1619378275.9542,89.87796,15.33046007156372
1619378275.96982,88.72552,15.34608006477356
1619378275.98545,86.9444,15.36171007156372
1619378276.00107,84.46155,15.37733006477356
1619378276.0167,81.42165,15.39296007156372
1619378276.03233,77.89851,15.408590078353882
1619378276.04795,73.67377,15.42421007156372
1619378276.06358,68.17133,15.439840078353882
1619378276.0792,60.67632,15.45546007156372
1619378276.09483,50.73245,15.471090078353882
1619378276.11045,38.52321,15.48671007156372
1619378276.12608,24.9416,15.502340078353882
1619378276.14171,11.41202,15.517970085144043
1619378276.15733,-0.6898956,15.533590078353882
1619378276.17296,-10.63083,15.549220085144043
1619378276.18858,-18.69705,15.564840078353882
1619378276.20421,-26.11522,15.580470085144043
1619378276.21983,-34.47369,15.596090078353882
1619378276.23546,-44.9863,15.611720085144043
1619378276.25109,-57.84425,15.627350091934204
1619378276.26671,-72.09987,15.642970085144043
1619378276.28234,-86.0699,15.658600091934204
1619378276.29796,-98.15569,15.674220085144043
1619378276.31359,-107.6295,15.689850091934204
1619378276.32921,-115.0013,15.705470085144043
1619378276.34484,-121.9137,15.721100091934204
1619378276.36047,-130.453,15.736730098724365
1619378276.37609,-142.3994,15.752350091934204
1619378276.39172,-158.408,15.767980098724365
1619378276.40734,-177.5323,15.783600091934204
1619378276.42297,-197.0489,15.799230098724365
1619378276.43859,-212.8497,15.814850091934204
1619378276.45422,-220.2661,15.830480098724365
1619378276.46985,-215.3588,15.846110105514526
1619378276.48547,-196.2005,15.861730098724365
1619378276.5011,-163.6779,15.877360105514526
1619378276.51672,-121.4266,15.892980098724365
1619378276.53235,-74.79066,15.908610105514526
1619378276.54797,-29.28369,15.924230098724365
1619378276.5636,10.91879,15.939860105514526
1619378276.57923,43.76071,15.955490112304688
1619378276.59485,69.18079,15.971110105514526
1619378276.61048,88.38559,15.986740112304688
1619378276.6261,102.8363,16.002360105514526
1619378276.64173,113.6216,16.017990112304688
1619378276.65735,121.3246,16.033610105514526
1619378276.67298,126.2609,16.049240112304688
1619378276.68861,128.8529,16.06487011909485
1619378276.70423,129.8867,16.080490112304688
1619378276.71986,130.4198,16.09612011909485
1619378276.73548,131.4873,16.111740112304688
1619378276.75111,133.7026,16.12737011909485
1619378276.76673,136.9859,16.142990112304688
1619378276.78236,140.6554,16.15862011909485
1619378276.79799,143.7452,16.17425012588501
1619378276.81361,145.497,16.18987011909485
1619378276.82924,145.7049,16.20550012588501
1619378276.84486,144.7185,16.22112011909485
1619378276.86049,143.1195,16.23675012588501
1619378276.87611,141.2544,16.25237011909485
1619378276.89174,138.8979,16.26800012588501
1619378276.90737,135.2032,16.28363013267517
1619378276.92299,129.1035,16.29925012588501
1619378276.93862,119.8219,16.31488013267517
1619378276.95424,107.2965,16.33050012588501
1619378276.96987,92.28006,16.34613013267517
1619378276.98549,76.12741,16.36175012588501
1619378277.00112,60.19485,16.37738013267517
1619378277.01675,45.35382,16.393010139465332
1619378277.03237,31.70148,16.40863013267517
1619378277.048,18.58749,16.424260139465332
1619378277.06362,5.01181,16.43988013267517
1619378277.07925,-9.831787,16.455510139465332
1619378277.09487,-26.1795,16.47113013267517
1619378277.1105,-43.47241,16.486760139465332
1619378277.12613,-60.56659,16.502390146255493
1619378277.14175,-76.15982,16.518010139465332
1619378277.15738,-89.26602,16.533640146255493
1619378277.173,-99.56866,16.549260139465332
1619378277.18863,-107.5535,16.564890146255493
1619378277.20425,-114.356,16.580510139465332
1619378277.21988,-121.4589,16.596140146255493
1619378277.23551,-130.3491,16.611770153045654
1619378277.25113,-142.12,16.627390146255493
1619378277.26676,-157.0084,16.643020153045654
1619378277.28238,-173.8926,16.658640146255493
1619378277.29801,-190.0183,16.674270153045654
1619378277.31363,-201.224,16.689890146255493
1619378277.32926,-202.8922,16.705520153045654
1619378277.34489,-191.3929,16.721150159835815
1619378277.36051,-165.578,16.736770153045654
1619378277.37614,-127.5021,16.752400159835815
1619378277.39176,-82.03156,16.768020153045654
1619378277.40739,-35.3317,16.783650159835815
1619378277.42301,7.050385,16.799270153045654
1619378277.43864,41.72635,16.814900159835815
1619378277.45427,67.91403,16.830529928207397
1619378277.46989,86.78796,16.846150159835815
1619378277.48552,100.2866,16.861779928207397
1619378277.50114,109.9743,16.877400159835815
1619378277.51677,116.5664,16.893029928207397
1619378277.53239,120.1303,16.908650159835815
1619378277.54802,120.7165,16.924279928207397
1619378277.56365,118.788,16.93990993499756
1619378277.57927,115.3363,16.955529928207397
1619378277.5949,111.6227,16.97115993499756
1619378277.61052,108.7451,16.986779928207397
1619378277.62615,107.3156,17.00240993499756
1619378277.64177,107.3953,17.018029928207397
1619378277.6574,108.6557,17.03365993499756
1619378277.67303,110.6149,17.04928994178772
1619378277.68865,112.8386,17.06490993499756
1619378277.70428,115.0128,17.08053994178772
1619378277.7199,116.9214,17.09615993499756
1619378277.73553,118.3668,17.11178994178772
1619378277.75115,119.1183,17.12740993499756
1619378277.76678,118.8769,17.14303994178772
1619378277.78241,117.3087,17.15866994857788
1619378277.79803,114.0862,17.17428994178772
1619378277.81366,109.0019,17.18991994857788
1619378277.82928,102.0306,17.20553994178772
1619378277.84491,93.37442,17.22116994857788
1619378277.86054,83.43607,17.236799955368042
1619378277.87616,72.73886,17.25241994857788
1619378277.89179,61.78546,17.268049955368042
1619378277.90741,50.98267,17.28366994857788
1619378277.92304,40.53006,17.299299955368042
1619378277.93866,30.39063,17.31491994857788
1619378277.95429,20.28235,17.330549955368042
1619378277.96992,9.755554,17.346179962158203
1619378277.98554,-1.625946,17.361799955368042
1619378278.00117,-14.10501,17.377429962158203
1619378278.01679,-27.50351,17.393049955368042
1619378278.03242,-41.25098,17.408679962158203
1619378278.04804,-54.52267,17.424299955368042
1619378278.06367,-66.56058,17.439929962158203
1619378278.0793,-77.03793,17.455559968948364
1619378278.09492,-86.15265,17.471179962158203
1619378278.11055,-94.58191,17.486809968948364
1619378278.12617,-103.2841,17.502429962158203
1619378278.1418,-113.3345,17.518059968948364
1619378278.15742,-125.7061,17.533679962158203
1619378278.17305,-141.0074,17.549309968948364
1619378278.18868,-159.0201,17.564939975738525
1619378278.2043,-178.1447,17.580559968948364
1619378278.21993,-195.1734,17.596189975738525
1619378278.23555,-205.7127,17.611809968948364
1619378278.25118,-205.4378,17.627439975738525
1619378278.2668,-191.6648,17.643059968948364
1619378278.28243,-164.6174,17.658689975738525
1619378278.29806,-127.6416,17.674319982528687
1619378278.31368,-86.13683,17.689939975738525
1619378278.32931,-45.79999,17.705569982528687
1619378278.34493,-10.86604,17.721189975738525
1619378278.36056,16.74873,17.736819982528687
1619378278.37618,37.18982,17.752439975738525
1619378278.39181,51.66496,17.768069982528687
1619378278.40744,61.38417,17.783699989318848
1619378278.42306,67.02826,17.799319982528687
1619378278.43869,68.84917,17.814949989318848
1619378278.45431,67.20206,17.830569982528687
1619378278.46994,62.96342,17.846199989318848
1619378278.48556,57.57079,17.861819982528687
1619378278.50119,52.63464,17.877449989318848
1619378278.51682,49.39679,17.89307999610901
1619378278.53244,48.34036,17.908699989318848
1619378278.54807,49.09184,17.92432999610901
1619378278.56369,50.77432,17.939949989318848
1619378278.57932,52.46854,17.95557999610901
1619378278.59494,53.67192,17.971199989318848
1619378278.61057,54.44356,17.98682999610901
1619378278.6262,55.2393,18.00246000289917
1619378278.64182,56.51485,18.01807999610901
1619378278.65745,58.33356,18.03371000289917
1619378278.67307,60.18924,18.04932999610901
1619378278.6887,61.11543,18.06496000289917
1619378278.70432,60.11232,18.08057999610901
1619378278.71995,56.52652,18.09621000289917
1619378278.73558,50.35406,18.11184000968933
1619378278.7512,42.22339,18.12746000289917
1619378278.76683,33.17917,18.14309000968933
1619378278.78245,24.27913,18.15871000289917
1619378278.79808,16.23976,18.17434000968933
1619378278.8137,9.225296,18.18996000289917
1619378278.82933,2.856033,18.20559000968933
1619378278.84496,-3.583267,18.221220016479492
1619378278.86058,-10.77943,18.23684000968933
1619378278.87621,-19.03297,18.252470016479492
1619378278.89183,-28.07101,18.26809000968933
1619378278.90746,-37.05414,18.283720016479492
1619378278.92308,-44.91728,18.29934000968933
1619378278.93871,-50.83028,18.314970016479492
1619378278.95434,-54.60046,18.330600023269653
1619378278.96996,-56.88834,18.346220016479492
1619378278.98559,-58.98337,18.361850023269653
1619378279.00121,-62.48578,18.377470016479492
1619378279.01684,-68.8828,18.393100023269653
1619378279.03246,-79.12952,18.408720016479492
1619378279.04809,-93.317,18.424350023269653
1619378279.06372,-110.352,18.439980030059814
1619378279.07934,-127.7239,18.455600023269653
1619378279.09497,-141.6697,18.471230030059814
1619378279.11059,-147.9688,18.486850023269653
1619378279.12622,-143.1578,18.502480030059814
1619378279.14184,-125.8748,18.518100023269653
1619378279.15747,-97.60405,18.533730030059814
1619378279.1731,-62.3698,18.549360036849976
1619378279.18872,-25.4334,18.564980030059814
1619378279.20435,8.431961,18.580610036849976
1619378279.21997,36.29419,18.596230030059814
1619378279.2356,57.44066,18.611860036849976
1619378279.25122,72.74925,18.627480030059814
1619378279.26685,83.59186,18.643110036849976
1619378279.28248,90.94879,18.658740043640137
1619378279.2981,95.11142,18.674360036849976
1619378279.31373,96.06114,18.689990043640137
1619378279.32935,94.0206,18.705610036849976
1619378279.34498,89.78741,18.721240043640137
1619378279.3606,84.62234,18.736860036849976
1619378279.37623,79.84152,18.752490043640137
1619378279.39186,76.3062,18.768120050430298
1619378279.40748,74.18996,18.783740043640137
1619378279.42311,73.0699,18.799370050430298
1619378279.43873,72.2524,18.814990043640137
1619378279.45436,71.22731,18.830620050430298
1619378279.46998,69.89513,18.846240043640137
1619378279.48561,68.57625,18.861870050430298
1619378279.50124,67.72083,18.87750005722046
1619378279.51686,67.55542,18.893120050430298
1619378279.53249,67.77965,18.90875005722046
1619378279.54811,67.5753,18.924370050430298
1619378279.56374,65.86821,18.94000005722046
1619378279.57936,61.72833,18.955620050430298
1619378279.59499,54.83577,18.97125005722046
1619378279.61062,45.65193,18.98688006401062
1619378279.62624,35.31355,19.00250005722046
1619378279.64187,25.22987,19.01813006401062
1619378279.65749,16.50484,19.03375005722046
1619378279.67312,9.536514,19.04938006401062
1619378279.68874,3.833755,19.06500005722046
1619378279.70437,-1.663635,19.08063006401062
1619378279.72,-8.11937,19.09626007080078
1619378279.73562,-16.22972,19.11188006401062
1619378279.75125,-25.90132,19.12751007080078
1619378279.76687,-36.28947,19.14313006401062
1619378279.7825,-46.16209,19.15876007080078
1619378279.79812,-54.4583,19.17438006401062
1619378279.81375,-60.74791,19.19001007080078
1619378279.82938,-65.44682,19.205640077590942
1619378279.845,-69.72205,19.22126007080078
1619378279.86063,-75.14238,19.236890077590942
1619378279.87625,-83.24545,19.25251007080078
1619378279.89188,-95.07095,19.268140077590942
1619378279.9075,-110.694,19.28376007080078
1619378279.92313,-128.7768,19.299390077590942
1619378279.93876,-146.4438,19.315020084381104
1619378279.95438,-159.5865,19.330640077590942
1619378279.97001,-163.8386,19.346270084381104
1619378279.98563,-155.9522,19.361890077590942
1619378280.00126,-135.0473,19.377520084381104
1619378280.01688,-103.2675,19.393140077590942
1619378280.03251,-65.2327,19.408770084381104
1619378280.04814,-26.63062,19.424400091171265
1619378280.06376,7.589676,19.440020084381104
1619378280.07939,34.55928,19.455650091171265
1619378280.09501,53.81302,19.471270084381104
1619378280.11064,66.63675,19.486900091171265
1619378280.12627,74.90437,19.502530097961426
1619378280.14189,80.07098,19.518150091171265
1619378280.15752,82.80199,19.533780097961426
1619378280.17314,83.23239,19.549400091171265
1619378280.18877,81.45832,19.565030097961426
1619378280.20439,78.01251,19.580650091171265
1619378280.22002,73.85288,19.596280097961426
1619378280.23565,70.11997,19.611910104751587
1619378280.25127,67.67997,19.627530097961426
1619378280.2669,66.81218,19.643160104751587
1619378280.28252,67.21761,19.658780097961426
1619378280.29815,68.21372,19.674410104751587
1619378280.31377,69.14336,19.690030097961426
1619378280.3294,69.63962,19.705660104751587
1619378280.34503,69.70618,19.721290111541748
1619378280.36065,69.59623,19.736910104751587
1619378280.37628,69.51919,19.752540111541748
1619378280.3919,69.40675,19.768160104751587
1619378280.40753,68.84456,19.783790111541748
1619378280.42315,67.22665,19.799410104751587
1619378280.43878,64.03327,19.815040111541748
1619378280.45441,59.07018,19.83067011833191
1619378280.47003,52.52378,19.846290111541748
1619378280.48566,44.84142,19.86192011833191
1619378280.50128,36.54594,19.877540111541748
1619378280.51691,28.04827,19.89317011833191
1619378280.53253,19.61994,19.908790111541748
1619378280.54816,11.4659,19.92442011833191
1619378280.56379,3.765602,19.94005012512207
1619378280.57941,-3.362276,19.95567011833191
1619378280.59504,-9.942028,19.97130012512207
1619378280.61066,-16.25621,19.98692011833191
1619378280.62629,-22.77997,20.00255012512207
1619378280.64191,-29.95588,20.01817011833191
1619378280.65754,-37.94318,20.03380012512207
1619378280.67317,-46.45624,20.04943013191223
1619378280.68879,-54.8563,20.06505012512207
1619378280.70442,-62.46527,20.08068013191223
1619378280.72004,-68.89462,20.09630012512207
1619378280.73567,-74.25329,20.11193013191223
1619378280.75129,-79.1588,20.12755012512207
1619378280.76692,-84.51313,20.14318013191223
1619378280.78255,-91.30183,20.158810138702393
1619378280.79817,-100.4165,20.17443013191223
1619378280.8138,-112.3637,20.190060138702393
1619378280.82942,-126.9101,20.20568013191223
1619378280.84505,-142.5872,20.221310138702393
1619378280.86067,-156.5039,20.23693013191223
1619378280.8763,-164.7172,20.252560138702393
1619378280.89193,-163.344,20.268190145492554
1619378280.90755,-150.0011,20.283810138702393
1619378280.92318,-124.9466,20.299440145492554
1619378280.9388,-91.27356,20.315060138702393
1619378280.95443,-53.9417,20.330690145492554
1619378280.97005,-18.10101,20.346310138702393
1619378280.98568,12.46531,20.361940145492554
1619378281.00131,36.15967,20.377570152282715
1619378281.01693,53.30573,20.393190145492554
1619378281.03256,65.16892,20.408820152282715
1619378281.04818,73.05125,20.424440145492554
1619378281.06381,77.75743,20.440070152282715
1619378281.07943,79.68903,20.455690145492554
1619378281.09506,79.24738,20.471320152282715
1619378281.11069,77.13216,20.486950159072876
1619378281.12631,74.30792,20.502570152282715
1619378281.14194,71.73146,20.518200159072876
1619378281.15756,70.02875,20.533820152282715
1619378281.17319,69.33766,20.549450159072876
1619378281.18881,69.34973,20.565070152282715
1619378281.20444,69.59505,20.580700159072876
1619378281.22007,69.69231,20.596329927444458
1619378281.23569,69.57117,20.611950159072876
1619378281.25132,69.42966,20.627579927444458
1619378281.26694,69.56479,20.643200159072876
1619378281.28257,70.1203,20.658829927444458
1619378281.29819,70.89259,20.674450159072876
1619378281.31382,71.2887,20.690079927444458
1619378281.32945,70.55339,20.70570993423462
1619378281.34507,68.09071,20.721329927444458
1619378281.3607,63.77119,20.73695993423462
1619378281.37632,58.03707,20.752579927444458
1619378281.39195,51.67982,20.76820993423462
1619378281.40757,45.47802,20.783829927444458
1619378281.4232,39.82009,20.79945993423462
1619378281.43883,34.58536,20.81508994102478
1619378281.45445,29.24973,20.83070993423462
1619378281.47008,23.26009,20.84633994102478
1619378281.4857,16.36256,20.86195993423462
1619378281.50133,8.743942,20.87758994102478
1619378281.51695,0.9497681,20.89320993423462
1619378281.53258,-6.430916,20.90883994102478
1619378281.54821,-13.06076,20.92446994781494
1619378281.56383,-19.04069,20.94008994102478
1619378281.57946,-24.87234,20.95571994781494
1619378281.59508,-31.26931,20.97133994102478
1619378281.61071,-38.76838,20.98696994781494
1619378281.62633,-47.52568,21.00258994102478
1619378281.64196,-57.16062,21.01821994781494
1619378281.65759,-66.87497,21.033849954605103
1619378281.67321,-75.72946,21.04946994781494
1619378281.68884,-83.01255,21.065099954605103
1619378281.70446,-88.57539,21.08071994781494
1619378281.72009,-92.91102,21.096349954605103
1619378281.73571,-97.11856,21.11196994781494
1619378281.75134,-102.5955,21.127599954605103
1619378281.76697,-110.6872,21.143229961395264
1619378281.78259,-122.0994,21.158849954605103
1619378281.79822,-136.378,21.174479961395264
1619378281.81384,-151.4822,21.190099954605103
1619378281.82947,-163.8825,21.205729961395264
1619378281.84509,-169.2618,21.221349954605103
1619378281.86072,-163.8424,21.236979961395264
1619378281.87635,-145.8039,21.252609968185425
1619378281.89197,-116.159,21.268229961395264
1619378281.9076,-78.62871,21.283859968185425
1619378281.92322,-38.47632,21.299479961395264
1619378281.93885,-0.793869,21.315109968185425
1619378281.95447,30.93011,21.330729961395264
1619378281.9701,55.41566,21.346359968185425
1619378281.98573,73.22742,21.361989974975586
1619378282.00135,85.79666,21.377609968185425
1619378282.01698,94.51207,21.393239974975586
1619378282.0326,100.2082,21.408859968185425
1619378282.04823,103.2561,21.424489974975586
1619378282.06385,103.9239,21.440109968185425
1619378282.07948,102.7002,21.455739974975586
1619378282.09511,100.3819,21.471369981765747
1619378282.11073,97.8822,21.486989974975586
1619378282.12636,95.98036,21.502619981765747
1619378282.14198,95.08401,21.518239974975586
1619378282.15761,95.19962,21.533869981765747
1619378282.17323,96.03554,21.549489974975586
1619378282.18886,97.28036,21.565119981765747
1619378282.20449,98.71689,21.580749988555908
1619378282.22011,100.3408,21.596369981765747
1619378282.23574,102.1958,21.611999988555908
1619378282.25136,104.1775,21.627619981765747
1619378282.26699,105.8706,21.643249988555908
1619378282.28261,106.5746,21.658869981765747
1619378282.29824,105.5256,21.674499988555908
1619378282.31387,102.2312,21.69012999534607
1619378282.32949,96.75313,21.705749988555908
1619378282.34512,89.71037,21.72137999534607
1619378282.36074,82.07108,21.736999988555908
1619378282.37637,74.70363,21.75262999534607
1619378282.39199,68.01855,21.768249988555908
1619378282.40762,61.83447,21.78387999534607
1619378282.42325,55.50914,21.79951000213623
1619378282.43887,48.33702,21.81512999534607
1619378282.4545,39.88478,21.83076000213623
1619378282.47012,30.17792,21.84637999534607
1619378282.48575,19.552,21.86201000213623
1619378282.50137,8.392593,21.87762999534607
1619378282.517,-3.148773,21.89326000213623
1619378282.53263,-15.23299,21.90889000892639
1619378282.54825,-28.14671,21.92451000213623
1619378282.56388,-42.00587,21.94014000892639
1619378282.5795,-56.53061,21.95576000213623
1619378282.59513,-71.04074,21.97139000892639
1619378282.61075,-84.63318,21.98701000213623
1619378282.62638,-96.50589,22.00264000892639
1619378282.64201,-106.1772,22.018270015716553
1619378282.65763,-113.6534,22.03389000892639
1619378282.67326,-119.482,22.049520015716553
1619378282.68888,-124.6699,22.06514000892639
1619378282.70451,-130.6307,22.080770015716553
1619378282.72014,-138.906,22.096400022506714
1619378282.73576,-150.6537,22.112020015716553
1619378282.75139,-165.9505,22.127650022506714
1619378282.76701,-183.1616,22.143270015716553
1619378282.78264,-198.8056,22.158900022506714
1619378282.79826,-208.273,22.174520015716553
1619378282.81389,-207.2274,22.190150022506714
1619378282.82952,-193.2234,22.205780029296875
1619378282.84514,-166.7896,22.221400022506714
1619378282.86077,-131.3662,22.237030029296875
1619378282.87639,-92.16473,22.252650022506714
1619378282.89202,-54.45322,22.268280029296875
1619378282.90764,-21.99042,22.283900022506714
1619378282.92327,3.596954,22.299530029296875
1619378282.9389,22.50403,22.315160036087036
1619378282.95452,35.80524,22.330780029296875
1619378282.97015,44.56586,22.346410036087036
1619378282.98577,49.46326,22.362030029296875
1619378283.0014,50.95279,22.377660036087036
1619378283.01702,49.65012,22.393280029296875
1619378283.03265,46.57083,22.408910036087036
1619378283.04828,43.03754,22.424540042877197
1619378283.0639,40.29764,22.440160036087036
1619378283.07953,39.15607,22.455790042877197
1619378283.09515,39.81363,22.471410036087036
1619378283.11078,41.88223,22.487040042877197
1619378283.1264,44.62863,22.502660036087036
1619378283.14203,47.2746,22.518290042877197
1619378283.15766,49.2312,22.53392004966736
1619378283.17328,50.27689,22.549540042877197
1619378283.18891,50.5603,22.56517004966736
1619378283.20453,50.42575,22.580790042877197
1619378283.22016,50.10016,22.59642004966736
1619378283.23578,49.45377,22.612040042877197
1619378283.25141,47.83859,22.62767004966736
1619378283.26704,44.35672,22.64330005645752
1619378283.28266,38.26245,22.65892004966736
1619378283.29829,29.4119,22.67455005645752
1619378283.31391,18.43362,22.69017004966736
1619378283.32954,6.53894,22.70580005645752
1619378283.34516,-4.933929,22.72142004966736
1619378283.36079,-14.98462,22.73705005645752
1619378283.37642,-23.28842,22.75268006324768
1619378283.39204,-30.17969,22.76830005645752
1619378283.40767,-36.38281,22.78393006324768
1619378283.42329,-42.69678,22.79955005645752
1619378283.43892,-49.71976,22.81518006324768
1619378283.45454,-57.65927,22.83080005645752
1619378283.47017,-66.327,22.84643006324768
1619378283.4858,-75.30347,22.862060070037842
1619378283.50142,-84.03259,22.87768006324768
1619378283.51705,-92.14157,22.893310070037842
1619378283.53267,-99.54181,22.90893006324768
1619378283.5483,-106.4789,22.924560070037842
1619378283.56392,-113.4977,22.94018006324768
1619378283.57955,-121.3525,22.955810070037842
1619378283.59518,-130.834,22.971440076828003
1619378283.6108,-142.4659,22.987060070037842
1619378283.62643,-156.0408,23.002690076828003
1619378283.64205,-170.1602,23.018310070037842
1619378283.65768,-182.1243,23.033940076828003
1619378283.6733,-188.4615,23.049560070037842
1619378283.68893,-186.1001,23.065190076828003
1619378283.70456,-173.6577,23.080820083618164
1619378283.72018,-152.1303,23.096440076828003
1619378283.73581,-124.4445,23.112070083618164
1619378283.75143,-94.18843,23.127690076828003
1619378283.76706,-64.20789,23.143320083618164
1619378283.78268,-35.80415,23.158940076828003
1619378283.79831,-9.038803,23.174570083618164
1619378283.81394,16.2775,23.190200090408325
1619378283.82956,39.65297,23.205820083618164
1619378283.84519,59.80727,23.221450090408325
1619378283.86081,75.47919,23.237070083618164
1619378283.87644,86.4979,23.252700090408325
1619378283.89206,94.53121,23.268320083618164
1619378283.90769,102.7057,23.283950090408325
1619378283.92332,114.3724,23.299580097198486
1619378283.93894,131.5121,23.315200090408325
1619378283.95457,153.731,23.330830097198486
1619378283.97019,178.3604,23.346450090408325
1619378283.98582,201.5699,23.362080097198486
1619378284.00144,220.0363,23.377700090408325
1619378284.01707,232.108,23.393330097198486
1619378284.0327,238.1317,23.408960103988647
1619378284.04832,239.7604,23.424580097198486
1619378284.06395,238.8506,23.440210103988647
1619378284.07957,236.6843,23.455830097198486
1619378284.0952,233.9714,23.471460103988647
1619378284.11082,231.538,23.487080097198486
1619378284.12645,231.0328,23.502710103988647
1619378284.14208,234.8958,23.51834011077881
1619378284.1577,245.3833,23.533960103988647
1619378284.17333,263.1454,23.54959011077881
1619378284.18895,286.2554,23.565210103988647
1619378284.20458,310.5093,23.58084011077881
1619378284.2202,330.8265,23.596460103988647
1619378284.23583,343.2097,23.61209011077881
1619378284.25146,346.0015,23.62772011756897
1619378284.26708,339.9654,23.64334011077881
1619378284.28271,327.196,23.65897011756897
1619378284.29833,309.5702,23.67459011077881
1619378284.31396,287.6656,23.69022011756897
1619378284.32958,260.4682,23.70584011077881
1619378284.34521,226.0364,23.72147011756897
1619378284.36084,182.5836,23.73710012435913
1619378284.37646,129.4424,23.75272011756897
1619378284.39209,67.68315,23.76835012435913
1619378284.40771,0.132843,23.78397011756897
1619378284.42334,-69.17426,23.79960012435913
1619378284.43896,-135.8628,23.81522011756897
1619378284.45459,-196.2261,23.83085012435913
1619378284.47022,-247.9921,23.846480131149292
1619378284.48584,-290.6666,23.86210012435913
1619378284.50147,-325.273,23.877730131149292
1619378284.51709,-353.8098,23.89335012435913
1619378284.53272,-378.5316,23.908980131149292
1619378284.54834,-401.2654,23.92460012435913
1619378284.56397,-422.7923,23.940230131149292
1619378284.5796,-442.3544,23.955860137939453
1619378284.59522,-457.4716,23.971480131149292
1619378284.61085,-464.3447,23.987110137939453
1619378284.62647,-458.9734,24.002730131149292
1619378284.6421,-438.6348,24.018360137939453
1619378284.65772,-403.2354,24.033980131149292
1619378284.67335,-355.7321,24.049610137939453
1619378284.68898,-301.4408,24.065240144729614
1619378284.7046,-246.3747,24.080860137939453
1619378284.72023,-195.4639,24.096490144729614
1619378284.73585,-151.3367,24.112110137939453
1619378284.75148,-114.2266,24.127740144729614
1619378284.7671,-82.76724,24.143360137939453
1619378284.78273,-55.11053,24.158990144729614
1619378284.79836,-29.83215,24.174620151519775
1619378284.81398,-6.290436,24.190240144729614
1619378284.82961,15.44672,24.205870151519775
1619378284.84523,35.00626,24.221490144729614
1619378284.86086,52.05801,24.237120151519775
1619378284.87648,66.54303,24.252740144729614
1619378284.89211,78.72232,24.268370151519775
1619378284.90774,89.08368,24.284000158309937
1619378284.92336,98.20071,24.299620151519775
1619378284.93899,106.6235,24.315250158309937
1619378284.95461,114.8596,24.330870151519775
1619378284.97024,123.378,24.346500158309937
1619378284.98587,132.582,24.36212992668152
1619378285.00149,142.6544,24.377750158309937
1619378285.01712,153.3066,24.39337992668152
1619378285.03274,163.6326,24.409000158309937
1619378285.04837,172.2362,24.42462992668152
1619378285.06399,177.5604,24.440250158309937
1619378285.07962,178.4686,24.45587992668152
1619378285.09525,174.6799,24.47150993347168
1619378285.11087,166.9417,24.48712992668152
1619378285.1265,156.691,24.50275993347168
1619378285.14212,145.5775,24.51837992668152
1619378285.15775,134.8186,24.53400993347168
1619378285.17337,124.895,24.54962992668152
1619378285.189,115.5381,24.56525993347168
1619378285.20463,106.1061,24.58088994026184
1619378285.22025,96.03879,24.59650993347168
1619378285.23588,85.26471,24.61213994026184
1619378285.2515,74.216,24.62775993347168
1619378285.26713,63.60272,24.64338994026184
1619378285.28275,53.94232,24.65900993347168
1619378285.29838,45.25009,24.67463994026184
1619378285.31401,36.96362,24.690269947052002
1619378285.32963,28.23334,24.70588994026184
1619378285.34526,18.39368,24.721519947052002
1619378285.36088,7.372437,24.73713994026184
1619378285.37651,-4.216614,24.752769947052002
1619378285.39213,-15.36786,24.76838994026184
1619378285.40776,-25.233,24.784019947052002
1619378285.42339,-33.54547,24.799649953842163
1619378285.43901,-40.82004,24.815269947052002
1619378285.45464,-48.19424,24.830899953842163
1619378285.47026,-56.9808,24.846519947052002
1619378285.48589,-68.30457,24.862149953842163
1619378285.50151,-82.7598,24.877769947052002
1619378285.51714,-100.1742,24.893399953842163
1619378285.53277,-119.3477,24.909029960632324
1619378285.54839,-137.8934,24.924649953842163
1619378285.56402,-152.3466,24.940279960632324
1619378285.57964,-158.9054,24.955899953842163
1619378285.59527,-154.5857,24.971529960632324
1619378285.61089,-138.4297,24.987149953842163
1619378285.62652,-112.2453,25.002779960632324
1619378285.64215,-80.23553,25.018409967422485
1619378285.65777,-47.71448,25.034029960632324
1619378285.6734,-19.38995,25.049659967422485
1619378285.68902,1.928406,25.065279960632324
1619378285.70465,15.77893,25.080909967422485
1619378285.72027,23.39532,25.096529960632324
1619378285.7359,26.65472,25.112159967422485
1619378285.75153,27.10291,25.127789974212646
1619378285.76715,25.55414,25.143409967422485
1619378285.78278,22.32172,25.159039974212646
1619378285.7984,17.76605,25.174659967422485
1619378285.81403,12.67383,25.190289974212646
1619378285.82965,8.262085,25.205909967422485
1619378285.84528,5.769531,25.221539974212646
1619378285.86091,5.922668,25.237169981002808
1619378285.87653,8.620056,25.252789974212646
1619378285.89216,13.02612,25.268419981002808
1619378285.90778,17.98462,25.284039974212646
1619378285.92341,22.66956,25.299669981002808
1619378285.93903,26.88,25.315289974212646
1619378285.95466,30.97083,25.330919981002808
1619378285.97029,35.4082,25.34654998779297
1619378285.98591,40.31824,25.362169981002808
1619378286.00154,45.2785,25.37779998779297
1619378286.01716,49.50348,25.393419981002808
1619378286.03279,52.32666,25.40904998779297
1619378286.04841,53.50635,25.424669981002808
1619378286.06404,53.3598,25.44029998779297
1619378286.07967,52.40735,25.45592999458313
1619378286.09529,50.99408,25.47154998779297
1619378286.11092,49.01538,25.48717999458313
1619378286.12654,45.96771,25.50279998779297
1619378286.14217,41.30347,25.51842999458313
1619378286.15779,34.75861,25.53404998779297
1619378286.17342,26.60809,25.54967999458313
1619378286.18905,17.57751,25.56531000137329
1619378286.20467,8.575684,25.58092999458313
1619378286.2203,0.3217163,25.59656000137329
1619378286.23592,-6.901611,25.61217999458313
1619378286.25155,-13.33893,25.62781000137329
1619378286.26717,-19.58679,25.64342999458313
1619378286.2828,-26.29926,25.65906000137329
1619378286.29843,-33.89679,25.674690008163452
1619378286.31405,-42.37463,25.69031000137329
1619378286.32968,-51.29779,25.705940008163452
1619378286.3453,-60.06494,25.72156000137329
1619378286.36093,-68.18445,25.737190008163452
1619378286.37655,-75.56006,25.75281000137329
1619378286.39218,-82.63367,25.768440008163452
1619378286.40781,-90.31549,25.784070014953613
1619378286.42343,-99.6748,25.799690008163452
1619378286.43906,-111.5696,25.815320014953613
1619378286.45468,-126.1612,25.830940008163452
1619378286.47031,-142.5132,25.846570014953613
1619378286.48593,-158.3394,25.862190008163452
1619378286.50156,-170.2181,25.877820014953613
1619378286.51719,-174.3131,25.893450021743774
1619378286.53281,-167.5684,25.909070014953613
1619378286.54844,-148.9181,25.924700021743774
1619378286.56406,-119.9787,25.940320014953613
1619378286.57969,-84.80353,25.955950021743774
1619378286.59531,-48.70361,25.971570014953613
1619378286.61094,-16.59521,25.987200021743774
1619378286.62657,8.379456,26.002830028533936
1619378286.64219,25.39478,26.018450021743774
1619378286.65782,35.57361,26.034080028533936
1619378286.67344,40.92047,26.049700021743774
1619378286.68907,43.31372,26.065330028533936
1619378286.70469,43.9231,26.080950021743774
1619378286.72032,43.26074,26.096580028533936
1619378286.73595,41.56012,26.112210035324097
1619378286.75157,39.22388,26.127830028533936
1619378286.7672,36.93036,26.143460035324097
1619378286.78282,35.53632,26.159080028533936
1619378286.79845,35.7121,26.174710035324097
1619378286.81407,37.67908,26.190330028533936
1619378286.8297,41.12347,26.205960035324097
1619378286.84533,45.3327,26.221590042114258
1619378286.86095,49.46368,26.237210035324097
1619378286.87658,52.91931,26.252840042114258
1619378286.8922,55.54376,26.268460035324097
1619378286.90783,57.59949,26.284090042114258
1619378286.92345,59.5697,26.299710035324097
1619378286.93908,61.7619,26.315340042114258
1619378286.95471,64.00104,26.33097004890442
1619378286.97033,65.54468,26.346590042114258
1619378286.98596,65.39081,26.36222004890442
1619378287.00158,62.62091,26.377840042114258
1619378287.01721,56.89252,26.39347004890442
1619378287.03283,48.63293,26.409090042114258
1619378287.04846,38.9021,26.42472004890442
1619378287.06409,29.03436,26.44035005569458
1619378287.07971,20.12231,26.45597004890442
1619378287.09534,12.6579,26.47160005569458
1619378287.11096,6.400208,26.48722004890442
1619378287.12659,0.586731,26.50285005569458
1619378287.14222,-5.694214,26.51848006248474
1619378287.15784,-13.03705,26.53410005569458
1619378287.17347,-21.43903,26.54973006248474
1619378287.18909,-30.29388,26.56535005569458
1619378287.20472,-38.63867,26.58098006248474
1619378287.22034,-45.5921,26.59660005569458
1619378287.23597,-50.76062,26.61223006248474
1619378287.2516,-54.44952,26.627860069274902
1619378287.26722,-57.58563,26.64348006248474
1619378287.28285,-61.46735,26.659110069274902
1619378287.29847,-67.36487,26.67473006248474
1619378287.3141,-76.22681,26.690360069274902
1619378287.32972,-88.43335,26.70598006248474
1619378287.34535,-103.4937,26.721610069274902
1619378287.36098,-119.7593,26.737240076065063
1619378287.3766,-134.3077,26.752860069274902
1619378287.39223,-143.2503,26.768490076065063
1619378287.40785,-142.6383,26.784110069274902
1619378287.42348,-129.7964,26.799740076065063
1619378287.4391,-104.5174,26.815360069274902
1619378287.45473,-69.51819,26.830990076065063
1619378287.47036,-29.737,26.846620082855225
1619378287.48598,9.178467,26.862240076065063
1619378287.50161,42.65155,26.877870082855225
1619378287.51723,68.26947,26.893490076065063
1619378287.53286,85.88916,26.909120082855225
1619378287.54848,96.80615,26.924740076065063
1619378287.56411,102.6451,26.940370082855225
1619378287.57974,104.566,26.956000089645386
1619378287.59536,103.1716,26.971620082855225
1619378287.61099,98.91083,26.987250089645386
1619378287.62661,92.495,27.002870082855225
1619378287.64224,85.06348,27.018500089645386
1619378287.65786,77.8822,27.034120082855225
1619378287.67349,71.95178,27.049750089645386
1619378287.68912,67.65637,27.065380096435547
1619378287.70474,64.78021,27.081000089645386
1619378287.72037,62.75641,27.096630096435547
1619378287.73599,61.04681,27.112250089645386
1619378287.75162,59.38055,27.127880096435547
1619378287.76724,57.76227,27.143500089645386
1619378287.78287,56.24658,27.159130096435547
1619378287.7985,54.69696,27.174760103225708
1619378287.81412,52.64185,27.190380096435547
1619378287.82975,49.34973,27.206010103225708
1619378287.84537,44.10614,27.221630096435547
1619378287.861,36.62598,27.237260103225708
1619378287.87662,27.26111,27.252880096435547
1619378287.89225,16.94415,27.268510103225708
1619378287.90788,6.809937,27.28414011001587
1619378287.9235,-2.316406,27.299760103225708
1619378287.93913,-10.32349,27.31539011001587
1619378287.95475,-17.87494,27.331010103225708
1619378287.97038,-26.05627,27.34664011001587
1619378287.986,-35.80853,27.362260103225708
1619378288.00163,-47.38708,27.37789011001587
1619378288.01726,-60.17078,27.39352011680603
1619378288.03288,-72.91553,27.40914011001587
1619378288.04851,-84.27106,27.42477011680603
1619378288.06413,-93.37103,27.44039011001587
1619378288.07976,-100.1881,27.45602011680603
1619378288.09538,-105.5919,27.47164011001587
1619378288.11101,-111.0508,27.48727011680603
1619378288.12664,-118.3027,27.50290012359619
1619378288.14226,-128.7658,27.51852011680603
1619378288.15789,-142.9633,27.53415012359619
1619378288.17351,-159.9691,27.54977011680603
1619378288.18914,-177.0846,27.56540012359619
1619378288.20476,-190.1966,27.58102011680603
1619378288.22039,-194.7667,27.59665012359619
1619378288.23602,-187.3435,27.612280130386353
1619378288.25164,-166.9262,27.62790012359619
1619378288.26727,-135.5679,27.643530130386353
1619378288.28289,-97.8385,27.65915012359619
1619378288.29852,-59.33179,27.674780130386353
1619378288.31414,-24.90131,27.69040012359619
1619378288.32977,2.629272,27.706030130386353
1619378288.3454,22.66077,27.721660137176514
1619378288.36102,36.18994,27.737280130386353
1619378288.37665,44.68506,27.752910137176514
1619378288.39227,49.19217,27.768530130386353
1619378288.4079,50.10181,27.784160137176514
1619378288.42352,47.48599,27.799780130386353
1619378288.43915,41.70398,27.815410137176514
1619378288.45478,33.76495,27.831040143966675
1619378288.4704,25.2995,27.846660137176514
1619378288.48603,18.11343,27.862290143966675
1619378288.50165,13.58478,27.877910137176514
1619378288.51728,12.26709,27.893540143966675
1619378288.5329,13.84012,27.909160137176514
1619378288.54853,17.41104,27.924790143966675
1619378288.56416,21.99771,27.940420150756836
1619378288.57978,26.87872,27.956040143966675
1619378288.59541,31.67285,27.971670150756836
1619378288.61103,36.18805,27.987290143966675
1619378288.62666,40.09589,28.002920150756836
1619378288.64228,42.76965,28.018540143966675
1619378288.65791,43.26642,28.034170150756836
1619378288.67354,40.5748,28.049800157546997
1619378288.68916,33.97379,28.065420150756836
1619378288.70479,23.32141,28.081050157546997
1619378288.72041,9.273041,28.096670150756836
1619378288.73604,-6.780121,28.112300157546997
1619378288.75166,-22.92279,28.127920150756836
1619378288.76729,-37.16504,28.143550157546997
1619378288.78292,-47.90231,28.15917992591858
1619378288.79854,-54.23419,28.174800157546997
1619378288.81417,-56.05057,28.19042992591858
1619378288.82979,-53.88803,28.206050157546997
1619378288.84542,-48.69449,28.22167992591858
1619378288.86104,-41.64627,28.237300157546997
1619378288.87667,-34.19022,28.25292992591858
1619378288.8923,-28.0932,28.26855993270874
1619378288.90792,-25.30222,28.28417992591858
1619378288.92355,-27.29974,28.29980993270874
1619378288.93917,-34.27298,28.31542992591858
1619378288.9548,-44.42027,28.33105993270874
1619378288.97042,-54.0789,28.34667992591858
1619378288.98605,-58.72099,28.36230993270874
1619378289.00168,-54.6032,28.3779399394989
1619378289.0173,-40.20636,28.39355993270874
1619378289.03293,-16.77589,28.4091899394989
1619378289.04855,12.2383,28.42480993270874
1619378289.06418,42.66554,28.4404399394989
1619378289.0798,71.07378,28.45605993270874
1619378289.09543,95.6879,28.4716899394989
1619378289.11106,116.3079,28.487319946289062
1619378289.12668,133.5926,28.5029399394989
1619378289.14231,148.1892,28.518569946289062
1619378289.15793,160.1753,28.5341899394989
1619378289.17356,169.0566,28.549819946289062
1619378289.18918,174.2087,28.5654399394989
1619378289.20481,175.3957,28.581069946289062
1619378289.22044,173.0598,28.596699953079224
1619378289.23606,168.2171,28.612319946289062
1619378289.25169,162.0438,28.627949953079224
1619378289.26731,155.5224,28.643569946289062
1619378289.28294,149.3213,28.659199953079224
1619378289.29856,144.0791,28.674819946289062
1619378289.31419,140.8557,28.690449953079224
1619378289.32982,141.319,28.706079959869385
1619378289.34544,147.4032,28.721699953079224
1619378289.36107,160.5432,28.737329959869385
1619378289.37669,180.9036,28.752949953079224
1619378289.39232,207.0132,28.768579959869385
1619378289.40794,236.0865,28.784199953079224
1619378289.42357,264.8398,28.799829959869385
1619378289.4392,290.3202,28.815459966659546
1619378289.45482,310.2961,28.831079959869385
1619378289.47045,323.085,28.846709966659546
1619378289.48607,327.1254,28.862329959869385
1619378289.5017,320.7095,28.877959966659546
1619378289.51732,302.2078,28.893579959869385
1619378289.53295,270.6993,28.909209966659546
1619378289.54858,226.5948,28.924839973449707
1619378289.5642,171.8858,28.940459966659546
1619378289.57983,109.9195,28.956089973449707
1619378289.59545,44.73439,28.971709966659546
1619378289.61108,-19.69995,28.987339973449707
1619378289.6267,-80.14679,29.002959966659546
1619378289.64233,-134.37,29.018589973449707
1619378289.65796,-181.1364,29.034219980239868
1619378289.67358,-220.0389,29.049839973449707
1619378289.68921,-251.2298,29.065469980239868
1619378289.70483,-275.2559,29.081089973449707
1619378289.72046,-292.9122,29.096719980239868
1619378289.73608,-305.2482,29.112339973449707
1619378289.75171,-313.4985,29.127969980239868
1619378289.76734,-319.0994,29.14359998703003
1619378289.78296,-323.5342,29.159219980239868
1619378289.79859,-328.0946,29.17484998703003
1619378289.81421,-333.4218,29.190469980239868
1619378289.82984,-338.9593,29.20609998703003
1619378289.84547,-342.6137,29.22172999382019
1619378289.86109,-340.8685,29.23734998703003
1619378289.87672,-329.6456,29.25297999382019
1619378289.89234,-305.7075,29.26859998703003
1619378289.90797,-268.1383,29.28422999382019
1619378289.92359,-219.155,29.29984998703003
1619378289.93922,-163.7529,29.31547999382019
1619378289.95485,-108.2493,29.33111000061035
1619378289.97047,-58.25876,29.34672999382019
1619378289.9861,-17.10809,29.36236000061035
1619378290.00172,14.72815,29.37797999382019
1619378290.01735,38.92255,29.39361000061035
1619378290.03297,57.91376,29.40922999382019
1619378290.0486,73.58862,29.42486000061035
1619378290.06423,86.70123,29.440490007400513
1619378290.07985,97.12018,29.45611000061035
1619378290.09548,104.5472,29.471740007400513
1619378290.1111,109.1931,29.48736000061035
1619378290.12673,112.0062,29.502990007400513
1619378290.14235,114.2897,29.51861000061035
1619378290.15798,117.1724,29.534240007400513
1619378290.17361,121.0901,29.549870014190674
1619378290.18923,125.6923,29.565490007400513
1619378290.20486,130.1316,29.581120014190674
1619378290.22048,133.5893,29.596740007400513
1619378290.23611,135.6841,29.612370014190674
1619378290.25173,136.6223,29.627990007400513
1619378290.26736,136.925,29.643620014190674
1619378290.28299,136.9684,29.659250020980835
1619378290.29861,136.612,29.674870014190674
1619378290.31424,135.1647,29.690500020980835
1619378290.32986,131.709,29.706120014190674
1619378290.34549,125.638,29.721750020980835
1619378290.36111,117.0675,29.737370014190674
1619378290.37674,106.8992,29.753000020980835
1619378290.39237,96.43692,29.768630027770996
1619378290.40799,86.78668,29.784250020980835
1619378290.42362,78.34879,29.799880027770996
1619378290.43924,70.69174,29.815500020980835
1619378290.45487,62.84479,29.831130027770996
1619378290.47049,53.90707,29.846750020980835
1619378290.48612,43.4939,29.862380027770996
1619378290.50175,31.94217,29.878010034561157
1619378290.51737,20.07819,29.893630027770996
1619378290.533,8.719116,29.909260034561157
1619378290.54862,-1.796417,29.924880027770996
1619378290.56425,-11.75647,29.940510034561157
1619378290.57987,-21.93427,29.956130027770996
1619378290.5955,-33.09665,29.971760034561157
1619378290.61113,-45.55542,29.98739004135132
1619378290.62675,-58.92081,30.003010034561157
1619378290.64238,-72.245,30.01864004135132
1619378290.658,-84.42813,30.034260034561157
1619378290.67363,-94.71405,30.04989004135132
1619378290.68925,-103.0258,30.065510034561157
1619378290.70488,-110.011,30.08114004135132
1619378290.72051,-116.8953,30.09677004814148
1619378290.73613,-125.1165,30.11239004135132
1619378290.75176,-135.9567,30.12802004814148
1619378290.76738,-150.0995,30.14364004135132
1619378290.78301,-167.1566,30.15927004814148
1619378290.79863,-185.2065,30.17489004135132
1619378290.81426,-200.7686,30.19052004814148
1619378290.82989,-209.308,30.20615005493164
1619378290.84551,-206.5089,30.22177004814148
1619378290.86114,-189.7888,30.23740005493164
1619378290.87676,-159.5737,30.25302004814148
1619378290.89239,-119.4482,30.26865005493164
1619378290.90801,-75.12732,30.28427004814148
1619378290.92364,-32.63196,30.29990005493164
1619378290.93927,3.565979,30.3155300617218
1619378290.95489,31.51245,30.33115005493164
1619378290.97052,51.62164,30.3467800617218
1619378290.98614,65.60205,30.36240005493164
1619378291.00177,75.25134,30.3780300617218
1619378291.01739,81.70837,30.39365005493164
1619378291.03302,85.42859,30.4092800617218
1619378291.04865,86.63281,30.424910068511963
1619378291.06427,85.78778,30.4405300617218
1619378291.0799,83.76862,30.456160068511963
1619378291.09552,81.62897,30.4717800617218
1619378291.11115,80.21893,30.487410068511963
1619378291.12677,79.89117,30.5030300617218
1619378291.1424,80.45911,30.518660068511963
1619378291.15803,81.40625,30.534290075302124
1619378291.17365,82.21271,30.549910068511963
1619378291.18928,82.60773,30.565540075302124
1619378291.2049,82.64398,30.581160068511963
1619378291.22053,82.56244,30.596790075302124
1619378291.23615,82.51129,30.612410068511963
1619378291.25178,82.32684,30.628040075302124
1619378291.26741,81.44568,30.643670082092285
1619378291.28303,79.04639,30.659290075302124
1619378291.29866,74.37622,30.674920082092285
1619378291.31428,67.11761,30.690540075302124
1619378291.32991,57.58069,30.706170082092285
1619378291.34553,46.64075,30.721790075302124
1619378291.36116,35.47852,30.737420082092285
1619378291.37679,25.15845,30.753050088882446
1619378291.39241,16.23706,30.768670082092285
1619378291.40804,8.628967,30.784300088882446
1619378291.42366,1.6521,30.799920082092285
1619378291.43929,-5.636475,30.815550088882446
1619378291.45491,-14.0271,30.831170082092285
1619378291.47054,-23.81134,30.846800088882446
1619378291.48617,-34.59088,30.862430095672607
1619378291.50179,-45.48529,30.878050088882446
1619378291.51742,-55.44775,30.893680095672607
1619378291.53304,-63.77728,30.909300088882446
1619378291.54867,-70.44568,30.924930095672607
1619378291.56429,-76.12854,30.940550088882446
1619378291.57992,-81.96552,30.956180095672607
1619378291.59555,-89.03467,30.97181010246277
1619378291.61117,-97.83441,30.987430095672607
1619378291.6268,-107.9987,31.00306010246277
1619378291.64242,-118.3306,31.018680095672607
1619378291.65805,-127.1891,31.03431010246277
1619378291.67367,-133.0883,31.049930095672607
1619378291.6893,-135.2292,31.06556010246277
1619378291.70493,-133.7733,31.08119010925293
1619378291.72055,-129.8141,31.09681010246277
1619378291.73618,-125.0719,31.11244010925293
1619378291.7518,-121.4441,31.12806010246277
1619378291.76743,-120.5104,31.14369010925293
1619378291.78305,-123.0176,31.15931010246277
1619378291.79868,-128.4172,31.17494010925293
1619378291.81431,-134.6214,31.19057011604309
1619378291.82993,-138.2293,31.20619010925293
1619378291.84556,-135.3083,31.22182011604309
1619378291.86118,-122.6382,31.23744010925293
1619378291.87681,-98.98151,31.25307011604309
1619378291.89243,-65.745,31.26869010925293
1619378291.90806,-26.7099,31.28432011604309
1619378291.92369,13.16614,31.299950122833252
1619378291.93931,49.28119,31.31557011604309
1619378291.95494,78.68054,31.331200122833252
1619378291.97056,100.4861,31.34682011604309
1619378291.98619,115.4764,31.362450122833252
1619378292.00182,125.2287,31.378080129623413
1619378292.01744,131.2892,31.393700122833252
1619378292.03307,134.7422,31.409330129623413
1619378292.04869,136.2592,31.424950122833252
1619378292.06432,136.2803,31.440580129623413
1619378292.07994,135.335,31.456200122833252
1619378292.09557,134.0439,31.471830129623413
1619378292.1112,133.13,31.487460136413574
1619378292.12682,133.2376,31.503080129623413
1619378292.14245,134.7246,31.518710136413574
1619378292.15807,137.5508,31.534330129623413
1619378292.1737,141.209,31.549960136413574
1619378292.18932,144.8377,31.565580129623413
1619378292.20495,147.5103,31.581210136413574
1619378292.22058,148.5497,31.596840143203735
1619378292.2362,147.7308,31.612460136413574
1619378292.25183,145.241,31.628090143203735
1619378292.26745,141.4508,31.643710136413574
1619378292.28308,136.653,31.659340143203735
1619378292.2987,130.843,31.674960136413574
1619378292.31433,123.8649,31.690590143203735
1619378292.32996,115.5415,31.706220149993896
1619378292.34558,105.8911,31.721840143203735
1619378292.36121,95.1908,31.737470149993896
1619378292.37683,83.90582,31.753090143203735
1619378292.39246,72.50964,31.768720149993896
1619378292.40808,61.34363,31.784340143203735
1619378292.42371,50.57874,31.799970149993896
1619378292.43934,40.25195,31.815600156784058
1619378292.45496,30.36597,31.831220149993896
1619378292.47059,20.9505,31.846850156784058
1619378292.48621,12.03784,31.862470149993896
1619378292.50184,3.639954,31.878100156784058
1619378292.51746,-4.24823,31.893720149993896
1619378292.53309,-11.64606,31.909350156784058
1619378292.54872,-18.5542,31.92497992515564
1619378292.56434,-24.92029,31.940600156784058
1619378292.57997,-30.69055,31.95622992515564
1619378292.59559,-35.86725,31.971850156784058
1619378292.61122,-40.61047,31.98747992515564
1619378292.62684,-45.2533,32.00310015678406
1619378292.64247,-50.23895,32.01872992515564
1619378292.6581,-55.97766,32.0343599319458
1619378292.67372,-62.56226,32.04997992515564
1619378292.68935,-69.71619,32.0656099319458
1619378292.70497,-76.78033,32.08122992515564
1619378292.7206,-83.04114,32.0968599319458
1619378292.73622,-88.06653,32.11247992515564
1619378292.75185,-91.99915,32.1281099319458
1619378292.76748,-95.57343,32.14373993873596
1619378292.7831,-99.90411,32.1593599319458
1619378292.79873,-106.1495,32.17498993873596
1619378292.81435,-115.1528,32.1906099319458
1619378292.82998,-127.1661,32.20623993873596
1619378292.8456,-141.6476,32.2218599319458
1619378292.86123,-156.9374,32.23748993873596
1619378292.87686,-170.2123,32.25311994552612
1619378292.89248,-177.7374,32.26873993873596
1619378292.90811,-175.8234,32.28436994552612
1619378292.92373,-162.0999,32.29998993873596
1619378292.93936,-136.6863,32.31561994552612
1619378292.95498,-102.5356,32.33123993873596
1619378292.97061,-64.711,32.34686994552612
1619378292.98624,-28.70709,32.362499952316284
1619378293.00186,1.301208,32.37811994552612
1619378293.01749,23.50073,32.393749952316284
1619378293.03311,38.38751,32.40936994552612
1619378293.04874,47.70044,32.424999952316284
1619378293.06436,53.2099,32.44061994552612
1619378293.07999,55.94141,32.456249952316284
1619378293.09562,56.22064,32.471879959106445
1619378293.11124,54.21863,32.487499952316284
1619378293.12687,50.49829,32.503129959106445
1619378293.14249,46.19763,32.518749952316284
1619378293.15812,42.64667,32.534379959106445
1619378293.17374,40.84222,32.549999952316284
1619378293.18937,41.09143,32.565629959106445
1619378293.205,42.98322,32.581259965896606
1619378293.22062,45.70221,32.596879959106445
1619378293.23625,48.43732,32.612509965896606
1619378293.25187,50.68408,32.628129959106445
1619378293.2675,52.2923,32.643759965896606
1619378293.28312,53.33978,32.659379959106445
1619378293.29875,53.99622,32.675009965896606
1619378293.31438,54.31921,32.69063997268677
1619378293.33,54.23615,32.706259965896606
1619378293.34563,53.55573,32.72188997268677
1619378293.36125,52.03931,32.737509965896606
1619378293.37688,49.56122,32.75313997268677
1619378293.3925,46.14325,32.768759965896606
1619378293.40813,42.08917,32.78438997268677
1619378293.42376,37.83752,32.80001997947693
1619378293.43938,33.90259,32.81563997268677
1619378293.45501,30.65552,32.83126997947693
1619378293.47063,28.15942,32.84688997268677
1619378293.48626,26.11047,32.86251997947693
1619378293.50188,23.93536,32.87813997268677
1619378293.51751,20.98523,32.89376997947693
1619378293.53314,16.81232,32.90939998626709
1619378293.54876,11.36285,32.92501997947693
1619378293.56439,5.068726,32.94064998626709
1619378293.58001,-1.190186,32.95626997947693
1619378293.59564,-6.41864,32.97189998626709
1619378293.61126,-9.805725,32.98751997947693
1619378293.62689,-11.05286,33.00314998626709
1619378293.64252,-10.55231,33.01877999305725
1619378293.65814,-9.258179,33.03439998626709
1619378293.67377,-8.315308,33.05002999305725
1619378293.68939,-8.603882,33.06564998626709
1619378293.70502,-10.44958,33.08127999305725
1619378293.72064,-13.51068,33.09689998626709
1619378293.73627,-17.09406,33.11252999305725
1619378293.7519,-20.47382,33.12815999984741
1619378293.76752,-23.33093,33.14377999305725
1619378293.78315,-25.83252,33.15940999984741
1619378293.79877,-28.59607,33.17502999305725
1619378293.8144,-32.44067,33.19065999984741
1619378293.83002,-38.11792,33.20627999305725
1619378293.84565,-45.97327,33.22190999984741
1619378293.86128,-55.5625,33.23754000663757
1619378293.8769,-65.42957,33.25315999984741
1619378293.89253,-73.10327,33.26879000663757
1619378293.90815,-75.56335,33.28440999984741
1619378293.92378,-70.20776,33.30004000663757
1619378293.9394,-55.94226,33.31565999984741
1619378293.95503,-33.8457,33.33129000663757
1619378293.97066,-7.083862,33.346920013427734
1619378293.98628,20.02588,33.36254000663757
1619378294.00191,43.40942,33.378170013427734
1619378294.01753,60.41956,33.39379000663757
1619378294.03316,70.29602,33.409420013427734
1619378294.04878,73.84387,33.42504000663757
1619378294.06441,72.59119,33.440670013427734
1619378294.08004,68.04492,33.456300020217896
1619378294.09566,61.23352,33.471920013427734
1619378294.11129,52.82703,33.487550020217896
1619378294.12691,43.42834,33.503170013427734
1619378294.14254,33.82715,33.518800020217896
1619378294.15816,24.94946,33.534420013427734
1619378294.17379,17.66187,33.550050020217896
1619378294.18942,12.47009,33.56568002700806
1619378294.20504,9.337524,33.581300020217896
1619378294.22067,7.795654,33.59693002700806
1619378294.23629,7.150879,33.612550020217896
1619378294.25192,6.842407,33.62818002700806
1619378294.26754,6.607666,33.643800020217896
1619378294.28317,6.548584,33.65943002700806
1619378294.2988,6.956299,33.67506003379822
1619378294.31442,8.019531,33.69068002700806
1619378294.33005,9.606201,33.70631003379822
1619378294.34567,11.18604,33.72193002700806
1619378294.3613,12.0249,33.73756003379822
1619378294.37692,11.49658,33.75318002700806
1619378294.39255,9.365845,33.76881003379822
1619378294.40818,5.892822,33.78444004058838
1619378294.4238,1.763672,33.80006003379822
1619378294.43943,-2.213013,33.81569004058838
1619378294.45505,-5.404175,33.83131003379822
1619378294.47068,-7.58667,33.84694004058838
1619378294.48631,-9.017822,33.86257004737854
1619378294.50193,-10.29126,33.87819004058838
1619378294.51756,-12.07483,33.89382004737854
1619378294.53318,-14.79736,33.90944004058838
1619378294.54881,-18.46204,33.92507004737854
1619378294.56443,-22.6261,33.94069004058838
1619378294.58006,-26.58801,33.95632004737854
1619378294.59569,-29.72644,33.9719500541687
1619378294.61131,-31.76904,33.98757004737854
1619378294.62694,-32.91943,34.0032000541687
1619378294.64256,-33.7627,34.01882004737854
1619378294.65819,-34.99414,34.0344500541687
1619378294.67381,-37.16919,34.05007004737854
1619378294.68944,-40.50122,34.0657000541687
1619378294.70507,-44.85242,34.08133006095886
1619378294.72069,-49.79968,34.0969500541687
1619378294.73632,-54.82593,34.11258006095886
1619378294.75194,-59.43298,34.1282000541687
1619378294.76757,-63.28906,34.14383006095886
1619378294.78319,-66.30969,34.1594500541687
1619378294.79882,-68.73572,34.17508006095886
1619378294.81445,-71.13306,34.19071006774902
1619378294.83007,-74.25354,34.20633006095886
1619378294.8457,-78.76343,34.22196006774902
1619378294.86132,-84.78271,34.23758006095886
1619378294.87695,-91.64673,34.25321006774902
1619378294.89257,-97.77686,34.26883006095886
1619378294.9082,-101.0367,34.28446006774902
1619378294.92383,-99.37561,34.300090074539185
1619378294.93945,-91.5614,34.31571006774902
1619378294.95508,-77.71082,34.331340074539185
1619378294.9707,-59.29956,34.34696006774902
1619378294.98633,-38.79053,34.362590074539185
1619378295.00195,-18.83008,34.37821006774902
1619378295.01758,-1.548706,34.393840074539185
1619378295.03321,11.89099,34.409470081329346
1619378295.04883,21.32739,34.425090074539185
1619378295.06446,27.23804,34.440720081329346
1619378295.08008,30.36938,34.456340074539185
1619378295.09571,31.35059,34.471970081329346
1619378295.11133,30.67615,34.487590074539185
1619378295.12696,28.68286,34.503220081329346
1619378295.14259,25.7782,34.51885008811951
1619378295.15821,22.44495,34.534470081329346
1619378295.17384,19.2511,34.55010008811951
1619378295.18946,16.70581,34.565720081329346
1619378295.20509,15.18872,34.58135008811951
1619378295.22071,14.81287,34.596970081329346
1619378295.23634,15.44446,34.61260008811951
1619378295.25197,16.81091,34.62823009490967
1619378295.26759,18.57251,34.64385008811951
1619378295.28322,20.45264,34.65948009490967
1619378295.29884,22.1427,34.67510008811951
1619378295.31447,23.37549,34.69073009490967
1619378295.33009,23.79993,34.70635008811951
1619378295.34572,23.14148,34.72198009490967
1619378295.36135,21.302,34.73761010169983
1619378295.37697,18.50891,34.75323009490967
1619378295.3926,15.26721,34.76886010169983
1619378295.40822,12.23083,34.78448009490967
1619378295.42385,9.908203,34.80011010169983
1619378295.43947,8.386475,34.81573009490967
1619378295.4551,7.368652,34.83136010169983
1619378295.47073,6.28418,34.84699010848999
1619378295.48635,4.627441,34.86261010169983
1619378295.50198,2.19519,34.87824010848999
1619378295.5176,-0.895874,34.89386010169983
1619378295.53323,-4.346191,34.90949010848999
1619378295.54885,-7.884277,34.92511010169983
1619378295.56448,-11.42859,34.94074010848999
1619378295.58011,-15.05078,34.95637011528015
1619378295.59573,-18.84167,34.97199010848999
1619378295.61136,-22.82129,34.98762011528015
1619378295.62698,-26.84192,35.00324010848999
1619378295.64261,-30.64856,35.01887011528015
1619378295.65823,-33.98596,35.03449010848999
1619378295.67386,-36.72266,35.05012011528015
1619378295.68949,-38.92834,35.06575012207031
1619378295.70511,-40.88403,35.08137011528015
1619378295.72074,-43.02283,35.09700012207031
1619378295.73636,-45.85803,35.11262011528015
1619378295.75199,-49.86731,35.12825012207031
1619378295.76761,-55.3656,35.14387011528015
1619378295.78324,-62.36743,35.15950012207031
1619378295.79887,-70.40881,35.175130128860474
1619378295.81449,-78.43506,35.19075012207031
1619378295.83012,-84.8623,35.206380128860474
1619378295.84574,-87.77808,35.22200012207031
1619378295.86137,-85.51917,35.237630128860474
1619378295.87699,-77.20007,35.25325012207031
1619378295.89262,-63.14905,35.268880128860474
1619378295.90825,-44.99585,35.284510135650635
1619378295.92387,-25.22107,35.300130128860474
1619378295.9395,-6.476807,35.315760135650635
1619378295.95512,9.240112,35.331380128860474
1619378295.97075,20.97046,35.347010135650635
1619378295.98637,28.8573,35.362630128860474
1619378296.002,33.68945,35.378260135650635
1619378296.01763,36.37769,35.393890142440796
1619378296.03325,37.54224,35.409510135650635
1619378296.04888,37.41785,35.425140142440796
1619378296.0645,36.08069,35.440760135650635
1619378296.08013,33.70654,35.456390142440796
1619378296.09575,30.76904,35.472010135650635
1619378296.11138,27.91504,35.487640142440796
1619378296.12701,25.75281,35.50327014923096
1619378296.14263,24.59436,35.518890142440796
1619378296.15826,24.37476,35.53452014923096
1619378296.17388,24.74658,35.550140142440796
1619378296.18951,25.31165,35.56577014923096
1619378296.20513,25.86816,35.581390142440796
1619378296.22076,26.38562,35.59702014923096
1619378296.23639,27.00061,35.61265015602112
1619378296.25201,27.75586,35.62827014923096
1619378296.26764,28.53845,35.64390015602112
1619378296.28326,29.05994,35.65952014923096
1619378296.29889,28.96301,35.67515015602112
1619378296.31451,27.95605,35.69077014923096
1619378296.33014,25.91736,35.70640015602112
1619378296.34577,22.91028,35.7220299243927
1619378296.36139,19.13501,35.73765015602112
1619378296.37702,14.91492,35.7532799243927
1619378296.39264,10.59045,35.76890015602112
1619378296.40827,6.467529,35.7845299243927
1619378296.42389,2.822632,35.80015015602112
1619378296.43952,-0.2459717,35.8157799243927
1619378296.45515,-2.79541,35.83140993118286
1619378296.47077,-5.05896,35.8470299243927
1619378296.4864,-7.413696,35.86265993118286
1619378296.50202,-10.29114,35.8782799243927
1619378296.51765,-13.99817,35.89390993118286
1619378296.53327,-18.6123,35.9095299243927
1619378296.5489,-23.85657,35.92515993118286
1619378296.56453,-29.18774,35.94078993797302
1619378296.58015,-34.05774,35.95640993118286
1619378296.59578,-38.09241,35.97203993797302
1619378296.6114,-41.32776,35.98765993118286
1619378296.62703,-44.20996,36.00328993797302
1619378296.64265,-47.50037,36.01890993118286
1619378296.65828,-51.96851,36.03453993797302
1619378296.67391,-58.19263,36.050169944763184
1619378296.68953,-66.31799,36.06578993797302
1619378296.70516,-75.86292,36.081419944763184
1619378296.72078,-85.62097,36.09703993797302
1619378296.73641,-93.66907,36.112669944763184
1619378296.75203,-97.70215,36.12828993797302
1619378296.76766,-95.5658,36.143919944763184
1619378296.78329,-86.06384,36.159549951553345
1619378296.79891,-69.46838,36.175169944763184
1619378296.81454,-47.66211,36.190799951553345
1619378296.83016,-23.68066,36.206419944763184
1619378296.84579,-0.7362061,36.222049951553345
1619378296.86142,18.67834,36.237679958343506
1619378296.87704,33.39954,36.253299951553345
1619378296.89267,43.55566,36.268929958343506
1619378296.90829,50.08459,36.284549951553345
1619378296.92392,54.00757,36.300179958343506
1619378296.93954,56.01721,36.315799951553345
1619378296.95517,56.41028,36.331429958343506
1619378296.9708,55.31421,36.34705996513367
1619378296.98642,53.05603,36.362679958343506
1619378297.00205,50.32813,36.37830996513367
1619378297.01767,47.96484,36.393929958343506
1619378297.0333,46.69336,36.40955996513367
1619378297.04892,46.74377,36.425179958343506
1619378297.06455,47.81628,36.44080996513367
1619378297.08018,49.2627,36.45643997192383
1619378297.0958,50.47083,36.47205996513367
1619378297.11143,51.20532,36.48768997192383
1619378297.12705,51.69617,36.50330996513367
1619378297.14268,52.41858,36.51893997192383
1619378297.1583,53.75537,36.53455996513367
1619378297.17393,55.74341,36.55018997192383
1619378297.18956,57.96375,36.56581997871399
1619378297.20518,59.75568,36.58143997192383
1619378297.22081,60.45435,36.59706997871399
1619378297.23643,59.67859,36.61268997192383
1619378297.25206,57.38196,36.62831997871399
1619378297.26768,53.79529,36.64393997192383
1619378297.28331,49.36316,36.65956997871399
1619378297.29894,44.57843,36.67519998550415
1619378297.31456,39.91388,36.69081997871399
1619378297.33019,35.75897,36.70644998550415
1619378297.34581,32.33826,36.72206997871399
1619378297.36144,29.64557,36.73769998550415
1619378297.37706,27.40704,36.75331997871399
1619378297.39269,25.133,36.76894998550415
1619378297.40832,22.18317,36.78457999229431
1619378297.42394,18.00818,36.80019998550415
1619378297.43957,12.27856,36.81582999229431
1619378297.45519,5.011841,36.83144998550415
1619378297.47082,-3.419067,36.84707999229431
1619378297.48644,-12.39386,36.86269998550415
1619378297.50207,-21.28766,36.87832999229431
1619378297.5177,-29.65509,36.89395999908447
1619378297.53332,-37.42188,36.90957999229431
1619378297.54895,-44.89978,36.92520999908447
1619378297.56457,-52.67328,36.94082999229431
1619378297.5802,-61.34186,36.95645999908447
1619378297.59582,-71.19171,36.97207999229431
1619378297.61145,-81.85529,36.98770999908447
1619378297.62708,-92.2041,37.003340005874634
1619378297.6427,-100.4443,37.01895999908447
1619378297.65833,-104.5557,37.034590005874634
1619378297.67395,-102.9326,37.05020999908447
1619378297.68958,-94.96686,37.065840005874634
1619378297.7052,-81.31738,37.08145999908447
1619378297.72083,-63.82196,37.097090005874634
1619378297.73646,-44.91034,37.112720012664795
1619378297.75208,-26.90381,37.128340005874634
1619378297.76771,-11.44299,37.143970012664795
1619378297.78333,0.7244263,37.159590005874634
1619378297.79896,9.611267,37.175220012664795
1619378297.81458,15.63452,37.190840005874634
1619378297.83021,19.25348,37.206470012664795
1619378297.84584,20.81653,37.222100019454956
1619378297.86146,20.65186,37.237720012664795
1619378297.87709,19.15674,37.253350019454956
1619378297.89271,16.92889,37.268970012664795
1619378297.90834,14.68225,37.284600019454956
1619378297.92396,13.06689,37.300220012664795
1619378297.93959,12.47888,37.315850019454956
1619378297.95522,12.89868,37.33148002624512
1619378297.97084,14.03693,37.347100019454956
1619378297.98647,15.44464,37.36273002624512
1619378298.00209,16.76794,37.378350019454956
1619378298.01772,17.90387,37.39398002624512
1619378298.03334,19.02271,37.409600019454956
1619378298.04897,20.40283,37.42523002624512
1619378298.0646,22.2594,37.44086003303528
1619378298.08022,24.56769,37.45648002624512
1619378298.09585,26.98975,37.47211003303528
1619378298.11147,29.03711,37.48773002624512
1619378298.1271,30.20697,37.50336003303528
1619378298.14272,30.20929,37.51898002624512
1619378298.15835,29.08301,37.53461003303528
1619378298.17398,27.16382,37.55024003982544
1619378298.1896,24.92261,37.56586003303528
1619378298.20523,22.79187,37.58149003982544
1619378298.22085,20.92773,37.59711003303528
1619378298.23648,19.18646,37.61274003982544
1619378298.2521,17.25696,37.62836003303528
1619378298.26773,14.80524,37.64399003982544
1619378298.28336,11.67694,37.6596200466156
1619378298.29898,8.036621,37.67524003982544
1619378298.31461,4.254211,37.6908700466156
1619378298.33023,0.7905273,37.70649003982544
1619378298.34586,-2.055359,37.7221200466156
1619378298.36148,-4.233643,37.73774003982544
1619378298.37711,-6.044128,37.7533700466156
1619378298.39274,-7.98877,37.76900005340576
1619378298.40836,-10.63403,37.7846200466156
1619378298.42399,-14.37286,37.80025005340576
1619378298.43961,-19.24713,37.8158700466156
1619378298.45524,-24.91907,37.83150005340576
1619378298.47086,-30.75476,37.8471200466156
1619378298.48649,-36.07904,37.86275005340576
1619378298.50212,-40.46625,37.87838006019592
1619378298.51774,-43.92676,37.89400005340576
1619378298.53337,-46.95142,37.90963006019592
1619378298.54899,-50.3371,37.92525005340576
1619378298.56462,-54.9223,37.94088006019592
1619378298.58024,-61.34705,37.95650005340576
1619378298.59587,-69.8042,37.97213006019592
1619378298.6115,-79.90076,37.987760066986084
1619378298.62712,-90.51288,38.00338006019592
1619378298.64275,-99.83124,38.019010066986084
1619378298.65837,-105.5886,38.03463006019592
1619378298.674,-105.5795,38.050260066986084
1619378298.68962,-98.35864,38.06588006019592
1619378298.70525,-83.79462,38.081510066986084
1619378298.72088,-63.31079,38.097140073776245
1619378298.7365,-39.54132,38.112760066986084
1619378298.75213,-15.55884,38.128390073776245
1619378298.76775,5.999878,38.144010066986084
1619378298.78338,23.54352,38.159640073776245
1619378298.799,36.67419,38.175260066986084
1619378298.81463,45.88843,38.190890073776245
1619378298.83026,52.05389,38.206520080566406
1619378298.84588,55.89563,38.222140073776245
1619378298.86151,57.92828,38.237770080566406
1619378298.87713,58.41211,38.253390073776245
1619378298.89276,57.64844,38.269020080566406
1619378298.90838,56.17023,38.284640073776245
1619378298.92401,54.67889,38.300270080566406
1619378298.93964,53.87561,38.31590008735657
1619378298.95526,54.1958,38.331520080566406
1619378298.97089,55.59424,38.34715008735657
1619378298.98651,57.63635,38.362770080566406
1619378299.00214,59.7442,38.37840008735657
1619378299.01776,61.52985,38.394020080566406
1619378299.03339,62.96521,38.40965008735657
1619378299.04902,64.36609,38.42528009414673
1619378299.06464,66.02509,38.44090008735657
1619378299.08027,67.90686,38.45653009414673
1619378299.09589,69.505,38.47215008735657
1619378299.11152,69.9751,38.48778009414673
1619378299.12715,68.60083,38.50341010093689
1619378299.14277,65.06842,38.51903009414673
1619378299.1584,59.73413,38.53466010093689
1619378299.17402,53.40747,38.55028009414673
1619378299.18965,47.02356,38.56591010093689
1619378299.20527,41.27698,38.58153009414673
1619378299.2209,36.4538,38.59716010093689
1619378299.23653,32.42078,38.61279010772705
1619378299.25215,28.77014,38.62841010093689
1619378299.26778,25.04718,38.64404010772705
1619378299.2834,20.89008,38.65966010093689
1619378299.29903,16.17902,38.67529010772705
1619378299.31465,11.04364,38.69091010093689
1619378299.33028,5.849915,38.70654010772705
1619378299.34591,1.037537,38.72217011451721
1619378299.36153,-3.070374,38.73779010772705
1619378299.37716,-6.448303,38.75342011451721
1619378299.39278,-9.423462,38.76904010772705
1619378299.40841,-12.5155,38.78467011451721
1619378299.42403,-16.27533,38.80029010772705
1619378299.43966,-20.9458,38.81592011451721
1619378299.45529,-26.44019,38.83155012130737
1619378299.47091,-32.29956,38.84717011451721
1619378299.48654,-37.94476,38.86280012130737
1619378299.50216,-42.9201,38.87842011451721
1619378299.51779,-47.10138,38.89405012130737
1619378299.53341,-50.7428,38.90967011451721
1619378299.54904,-54.46277,38.92530012130737
1619378299.56467,-59.06897,38.940930128097534
1619378299.58029,-65.33337,38.95655012130737
1619378299.59592,-73.63281,38.972180128097534
1619378299.61154,-83.5567,38.98780012130737
1619378299.62717,-93.67371,39.003430128097534
1619378299.64279,-101.7282,39.01905012130737
1619378299.65842,-105.0825,39.034680128097534
1619378299.67405,-101.6688,39.050310134887695
1619378299.68967,-90.68787,39.065930128097534
1619378299.7053,-73.01782,39.081560134887695
1619378299.72092,-50.9762,39.097180128097534
1619378299.73655,-27.59561,39.112810134887695
1619378299.75217,-5.671417,39.128430128097534
1619378299.7678,12.92419,39.144060134887695
1619378299.78343,27.46051,39.159690141677856
1619378299.79905,38.10123,39.175310134887695
1619378299.81468,45.45764,39.190940141677856
1619378299.8303,50.12457,39.206560134887695
1619378299.84593,52.55704,39.222190141677856
1619378299.86155,53.13956,39.237810134887695
1619378299.87718,52.27957,39.253440141677856
1619378299.89281,50.52686,39.26907014846802
1619378299.90843,48.48895,39.284690141677856
1619378299.92406,46.64059,39.30032014846802
1619378299.93968,45.26752,39.315940141677856
1619378299.95531,44.47461,39.33157014846802
1619378299.97093,44.19254,39.347190141677856
1619378299.98656,44.34601,39.36282014846802
1619378300.00219,44.87073,39.37845015525818
1619378300.01781,45.70728,39.39407014846802
1619378300.03344,46.72229,39.40970015525818
1619378300.04906,47.77353,39.42532014846802
1619378300.06469,48.59058,39.44095015525818
1619378300.08031,48.91263,39.45657014846802
1619378300.09594,48.5127,39.47220015525818
1619378300.11157,47.25391,39.48782992362976
1619378300.12719,45.0947,39.50345015525818
1619378300.14282,42.10492,39.51907992362976
1619378300.15844,38.41727,39.53470015525818
1619378300.17407,34.16312,39.55032992362976
1619378300.18969,29.47119,39.56595015525818
1619378300.20532,24.42834,39.58157992362976
1619378300.22095,19.10898,39.59720993041992
1619378300.23657,13.61145,39.61282992362976
1619378300.2522,8.080139,39.62845993041992
1619378300.26782,2.72995,39.64407992362976
1619378300.28345,-2.228058,39.65970993041992
1619378300.29907,-6.723297,39.67532992362976
1619378300.3147,-10.86469,39.69095993041992
1619378300.33033,-14.90106,39.70658993721008
1619378300.34595,-19.14957,39.72220993041992
1619378300.36158,-23.78174,39.73783993721008
1619378300.3772,-28.75623,39.75345993041992
1619378300.39283,-33.83963,39.76908993721008
1619378300.40845,-38.7207,39.78470993041992
1619378300.42408,-43.224,39.80033993721008
1619378300.43971,-47.3573,39.815969944000244
1619378300.45533,-51.43021,39.83158993721008
1619378300.47096,-55.97272,39.847219944000244
1619378300.48658,-61.60843,39.86283993721008
1619378300.50221,-68.92542,39.878469944000244
1619378300.51783,-78.13443,39.89408993721008
1619378300.53346,-88.79419,39.909719944000244
1619378300.54909,-99.57718,39.925349950790405
1619378300.56471,-108.2706,39.940969944000244
1619378300.58034,-112.2418,39.956599950790405
1619378300.59596,-109.2015,39.972219944000244
1619378300.61159,-98.05688,39.987849950790405
1619378300.62721,-79.45883,40.003469944000244
1619378300.64284,-55.7767,40.019099950790405
1619378300.65847,-30.34576,40.034729957580566
1619378300.67409,-6.462921,40.050349950790405
1619378300.68972,13.56345,40.065979957580566
1619378300.70534,28.85852,40.081599950790405
1619378300.72097,39.74347,40.097229957580566
1619378300.73659,47.1568,40.112849950790405
1619378300.75222,51.99292,40.128479957580566
1619378300.76785,54.79465,40.14410996437073
1619378300.78347,55.75894,40.159729957580566
1619378300.7991,55.0466,40.17535996437073
1619378300.81472,53.02707,40.190979957580566
1619378300.83035,50.3364,40.20660996437073
1619378300.84597,47.75055,40.222229957580566
1619378300.8616,45.91046,40.23785996437073
1619378300.87723,45.1705,40.25348997116089
1619378300.89285,45.56244,40.26910996437073
1619378300.90848,46.93448,40.28473997116089
1619378300.9241,48.98,40.30035996437073
1619378300.93973,51.37148,40.31598997116089
1619378300.95535,53.75208,40.33160996437073
1619378300.97098,55.77457,40.34723997116089
1619378300.98661,57.15169,40.36286997795105
1619378301.00223,57.72049,40.37848997116089
1619378301.01786,57.36267,40.39411997795105
1619378301.03348,56.02689,40.40973997116089
1619378301.04911,53.66866,40.42536997795105
1619378301.06473,50.18213,40.44098997116089
1619378301.08036,45.53369,40.45661997795105
1619378301.09599,39.75922,40.47224998474121
1619378301.11161,33.11066,40.48786997795105
1619378301.12724,26.00148,40.50349998474121
1619378301.14286,18.93095,40.51911997795105
1619378301.15849,12.36082,40.53474998474121
1619378301.17411,6.495117,40.55036997795105
1619378301.18974,1.29422,40.56599998474121
1619378301.20537,-3.601196,40.58162999153137
1619378301.22099,-8.663712,40.59724998474121
1619378301.23662,-14.29858,40.61287999153137
1619378301.25224,-20.66457,40.62849998474121
1619378301.26787,-27.54478,40.64412999153137
1619378301.28349,-34.4256,40.65974998474121
1619378301.29912,-40.73669,40.67537999153137
1619378301.31475,-46.0793,40.69100999832153
1619378301.33037,-50.43182,40.70662999153137
1619378301.346,-54.21483,40.72225999832153
1619378301.36162,-58.08488,40.73787999153137
1619378301.37725,-62.8295,40.75350999832153
1619378301.39287,-69.19655,40.76912999153137
1619378301.4085,-77.73048,40.78475999832153
1619378301.42413,-88.57184,40.800390005111694
1619378301.43975,-101.1243,40.81600999832153
1619378301.45538,-113.8112,40.831640005111694
1619378301.471,-124.0782,40.84725999832153
1619378301.48663,-128.8881,40.862890005111694
1619378301.50225,-125.6074,40.87850999832153
1619378301.51788,-113.0199,40.894140005111694
1619378301.53351,-91.927,40.909770011901855
1619378301.54913,-65.04222,40.925390005111694
1619378301.56476,-36.13619,40.941020011901855
1619378301.58038,-8.845863,40.956640005111694
1619378301.59601,14.30476,40.972270011901855
1619378301.61163,32.33759,40.987890005111694
1619378301.62726,45.5655,41.003520011901855
1619378301.64289,54.9876,41.01915001869202
1619378301.65851,61.59654,41.034770011901855
1619378301.67414,66.05908,41.05040001869202
1619378301.68976,68.68486,41.066020011901855
1619378301.70539,69.63088,41.08165001869202
1619378301.72102,69.15926,41.09728002548218
1619378301.73664,67.70551,41.11290001869202
1619378301.75227,65.86919,41.12853002548218
1619378301.76789,64.23972,41.14415001869202
1619378301.78352,63.25605,41.15978002548218
1619378301.79914,63.14285,41.17540001869202
1619378301.81477,63.90566,41.19103002548218
1619378301.8304,65.46463,41.20666003227234
1619378301.84602,67.6526,41.22228002548218
1619378301.86165,70.28018,41.23791003227234
1619378301.87727,73.05582,41.25353002548218
1619378301.8929,75.54933,41.26916003227234
1619378301.90852,77.21271,41.28478002548218
1619378301.92415,77.5231,41.30041003227234
1619378301.93978,76.14874,41.3160400390625
1619378301.9554,73.03289,41.33166003227234
1619378301.97103,68.45171,41.3472900390625
1619378301.98665,62.81021,41.36291003227234
1619378302.00228,56.52319,41.3785400390625
1619378302.0179,49.81338,41.39416003227234
1619378302.03353,42.83266,41.4097900390625
1619378302.04916,35.70798,41.42542004585266
1619378302.06478,28.63817,41.4410400390625
1619378302.08041,21.90735,41.45667004585266
1619378302.09603,15.7659,41.4722900390625
1619378302.11166,10.26551,41.48792004585266
1619378302.12728,5.142603,41.5035400390625
1619378302.14291,-0.06362343,41.51917004585266
1619378302.15854,-5.880005,41.53480005264282
1619378302.17416,-12.56198,41.55042004585266
1619378302.18979,-19.97812,41.56605005264282
1619378302.20541,-27.65344,41.58167004585266
1619378302.22104,-34.94631,41.59730005264282
1619378302.23666,-41.31694,41.61292004585266
1619378302.25229,-46.59116,41.62855005264282
1619378302.26792,-51.00119,41.64418005943298
1619378302.28354,-55.15649,41.65980005264282
1619378302.29917,-59.92293,41.67543005943298
1619378302.31479,-66.21453,41.69105005264282
1619378302.33042,-74.82784,41.70668005943298
1619378302.34604,-86.14088,41.72230005264282
1619378302.36167,-99.72523,41.73793005943298
1619378302.3773,-114.0214,41.753560066223145
1619378302.39292,-126.3113,41.76918005943298
1619378302.40855,-133.1842,41.784810066223145
1619378302.42417,-131.5224,41.80043005943298
1619378302.4398,-119.7212,41.816060066223145
1619378302.45542,-98.37581,41.83168005943298
1619378302.47105,-70.32574,41.847310066223145
1619378302.48668,-39.71127,41.862940073013306
1619378302.5023,-10.59361,41.878560066223145
1619378302.51793,14.21438,41.894190073013306
1619378302.53355,33.64923,41.909810066223145
1619378302.54918,48.11588,41.925440073013306
1619378302.5648,58.64596,41.941060066223145
1619378302.58043,66.16421,41.956690073013306
1619378302.59606,71.18634,41.97232007980347
1619378302.61168,73.9427,41.987940073013306
1619378302.62731,74.76366,42.00357007980347
1619378302.64293,74.3727,42.019190073013306
1619378302.65856,73.72751,42.03482007980347
1619378302.67418,73.75181,42.050440073013306
1619378302.68981,75.00298,42.06607007980347
1619378302.70544,77.44612,42.08170008659363
1619378302.72106,80.56183,42.09732007980347
1619378302.73669,83.66801,42.11295008659363
1619378302.75231,86.12524,42.12857007980347
1619378302.76794,87.61692,42.14420008659363
1619378302.78356,88.16217,42.15982007980347
1619378302.79919,87.93654,42.17545008659363
1619378302.81482,87.09769,42.19108009338379
1619378302.83044,85.64274,42.20670008659363
1619378302.84607,83.3066,42.22233009338379
1619378302.86169,79.73093,42.23795008659363
1619378302.87732,74.65456,42.25358009338379
1619378302.89294,68.11737,42.26920008659363
1619378302.90857,60.54684,42.28483009338379
1619378302.9242,52.61401,42.30046010017395
1619378302.93982,45.00331,42.31608009338379
1619378302.95545,38.11658,42.33171010017395
1619378302.97107,31.93013,42.34733009338379
1619378302.9867,26.05136,42.36296010017395
1619378303.00232,19.95415,42.37858009338379
1619378303.01795,13.28654,42.39421010017395
1619378303.03358,6.045006,42.40984010696411
1619378303.0492,-1.423195,42.42546010017395
1619378303.06483,-8.622032,42.44109010696411
1619378303.08045,-15.13203,42.45671010017395
1619378303.09608,-20.91129,42.47234010696411
1619378303.1117,-26.24055,42.48796010017395
1619378303.12733,-31.56685,42.50359010696411
1619378303.14296,-37.27231,42.51922011375427
1619378303.15858,-43.44604,42.53484010696411
1619378303.17421,-49.79364,42.55047011375427
1619378303.18983,-55.77808,42.56609010696411
1619378303.20546,-60.94374,42.58172011375427
1619378303.22108,-65.09401,42.59734010696411
1619378303.23671,-68.54446,42.61297011375427
1619378303.25234,-72.03001,42.628600120544434
1619378303.26796,-76.55227,42.64422011375427
1619378303.28359,-83.13985,42.659850120544434
1619378303.29921,-92.42959,42.67547011375427
1619378303.31484,-104.304,42.691100120544434
1619378303.33046,-117.5302,42.70672011375427
1619378303.34609,-129.7274,42.722350120544434
1619378303.36172,-137.6814,42.737980127334595
1619378303.37734,-138.2647,42.753600120544434
1619378303.39297,-129.4142,42.769230127334595
1619378303.40859,-111.0183,42.784850120544434
1619378303.42422,-85.06821,42.800480127334595
1619378303.43984,-55.14194,42.816100120544434
1619378303.45547,-25.20977,42.831730127334595
1619378303.4711,1.499481,42.847360134124756
1619378303.48672,23.20135,42.862980127334595
1619378303.50235,39.65269,42.878610134124756
1619378303.51797,51.50319,42.894230127334595
1619378303.5336,59.69847,42.909860134124756
1619378303.54922,64.88867,42.925480127334595
1619378303.56485,67.44855,42.941110134124756
1619378303.58048,67.69188,42.95674014091492
1619378303.5961,66.18233,42.972360134124756
1619378303.61173,63.80331,42.98799014091492
1619378303.62735,61.56351,43.003610134124756
1619378303.64298,60.27435,43.01924014091492
1619378303.6586,60.21294,43.034860134124756
1619378303.67423,61.16176,43.05049014091492
1619378303.68986,62.5858,43.06612014770508
1619378303.70548,64.03104,43.08174014091492
1619378303.72111,65.39215,43.09737014770508
1619378303.73673,66.84521,43.11299014091492
1619378303.75236,68.69611,43.12862014770508
1619378303.76798,70.94492,43.14424014091492
1619378303.78361,73.19234,43.15987014770508
1619378303.79924,74.67725,43.17550015449524
1619378303.81486,74.66019,43.19112014770508
1619378303.83049,72.72021,43.20675015449524
1619378303.84611,68.96228,43.22237014770508
1619378303.86174,63.95982,43.23800015449524
1619378303.87736,58.41299,43.25362014770508
1619378303.89299,52.91164,43.26925015449524
1619378303.90862,47.65208,43.2848801612854
1619378303.92424,42.47308,43.30050015449524
1619378303.93987,36.92567,43.3161301612854
1619378303.95549,30.62828,43.33175015449524
1619378303.97112,23.49545,43.3473801612854
1619378303.98675,15.80974,43.36300992965698
1619378304.00237,8.221252,43.3786301612854
1619378304.018,1.378296,43.39425992965698
1619378304.03362,-4.320129,43.4098801612854
1619378304.04925,-8.969757,43.42550992965698
1619378304.06487,-13.09848,43.4411301612854
1619378304.0805,-17.37631,43.45675992965698
1619378304.09613,-22.34137,43.472389936447144
1619378304.11175,-28.04213,43.48800992965698
1619378304.12738,-34.13986,43.503639936447144
1619378304.143,-40.04176,43.51925992965698
1619378304.15863,-45.28828,43.534889936447144
1619378304.17425,-49.72559,43.55050992965698
1619378304.18988,-53.69467,43.566139936447144
1619378304.20551,-57.92073,43.581769943237305
1619378304.22113,-63.35201,43.597389936447144
1619378304.23676,-70.95328,43.613019943237305
1619378304.25238,-81.3932,43.628639936447144
1619378304.26801,-94.6306,43.644269943237305
1619378304.28363,-109.568,43.659889936447144
1619378304.29926,-123.9051,43.675519943237305
1619378304.31489,-134.3997,43.691149950027466
1619378304.33051,-137.6938,43.706769943237305
1619378304.34614,-131.3599,43.722399950027466
1619378304.36176,-114.8793,43.738019943237305
1619378304.37739,-89.92778,43.753649950027466
1619378304.39301,-59.95872,43.769269943237305
1619378304.40864,-29.10999,43.784899950027466
1619378304.42427,-0.9638519,43.80052995681763
1619378304.43989,22.23308,43.816149950027466
1619378304.45552,39.823,43.83177995681763
1619378304.47114,52.24834,43.847399950027466
1619378304.48677,60.42773,43.86302995681763
1619378304.50239,65.23253,43.878649950027466
1619378304.51802,67.26534,43.89427995681763
1619378304.53365,66.98262,43.90990996360779
1619378304.54927,64.89157,43.92552995681763
1619378304.5649,61.63641,43.94115996360779
1619378304.58052,57.99936,43.95677995681763
1619378304.59615,54.69513,43.97240996360779
1619378304.61177,52.22984,43.98802995681763
1619378304.6274,50.77979,44.00365996360779
1619378304.64303,50.27046,44.01928997039795
1619378304.65865,50.44176,44.03490996360779
1619378304.67428,51.02454,44.05053997039795
1619378304.6899,51.8215,44.06615996360779
1619378304.70553,52.761,44.08178997039795
1619378304.72115,53.84352,44.09740996360779
1619378304.73678,55.00177,44.11303997039795
1619378304.75241,56.02354,44.12866997718811
1619378304.76803,56.50833,44.14428997039795
1619378304.78366,55.96489,44.15991997718811
1619378304.79928,53.94044,44.17553997039795
1619378304.81491,50.2047,44.19116997718811
1619378304.83053,44.77277,44.20678997039795
1619378304.84616,37.96938,44.22241997718811
1619378304.86179,30.29021,44.23804998397827
1619378304.87741,22.32867,44.25366997718811
1619378304.89304,14.64296,44.26929998397827
1619378304.90866,7.638367,44.28491997718811
1619378304.92429,1.43779,44.30054998397827
1619378304.93991,-4.190109,44.31616997718811
1619378304.95554,-9.748917,44.33179998397827
1619378304.97117,-15.83429,44.34742999076843
1619378304.98679,-22.87537,44.36304998397827
1619378305.00242,-30.88313,44.37867999076843
1619378305.01804,-39.45009,44.39429998397827
1619378305.03367,-47.83145,44.40992999076843
1619378305.04929,-55.3192,44.42554998397827
1619378305.06492,-61.49286,44.44117999076843
1619378305.08055,-66.41002,44.456809997558594
1619378305.09617,-70.576,44.47242999076843
1619378305.1118,-74.78305,44.488059997558594
1619378305.12742,-79.91705,44.50367999076843
1619378305.14305,-86.75397,44.519309997558594
1619378305.15867,-95.84723,44.53492999076843
1619378305.1743,-107.2117,44.550559997558594
1619378305.18993,-120.058,44.566190004348755
1619378305.20555,-132.4561,44.581809997558594
1619378305.22118,-141.5081,44.597440004348755
1619378305.2368,-143.9067,44.613059997558594
1619378305.25243,-137.0508,44.628690004348755
1619378305.26805,-120.0397,44.644309997558594
1619378305.28368,-94.2666,44.659940004348755
1619378305.29931,-63.11513,44.675570011138916
1619378305.31493,-30.90511,44.691190004348755
1619378305.33056,-1.532547,44.706820011138916
1619378305.34618,22.55945,44.722440004348755
1619378305.36181,40.69504,44.738070011138916
1619378305.37743,53.59023,44.753690004348755
1619378305.39306,62.5303,44.769320011138916
1619378305.40869,68.62486,44.78495001792908
1619378305.42431,72.52586,44.800570011138916
1619378305.43994,74.48337,44.81620001792908
1619378305.45556,74.74852,44.831820011138916
1619378305.47119,73.74184,44.84745001792908
1619378305.48681,72.18364,44.863070011138916
1619378305.50244,70.84473,44.87870001792908
1619378305.51807,70.33156,44.89433002471924
1619378305.53369,70.85739,44.90995001792908
1619378305.54932,72.22725,44.92558002471924
1619378305.56494,74.01218,44.94120001792908
1619378305.58057,75.7753,44.95683002471924
1619378305.59619,77.26016,44.97245001792908
1619378305.61182,78.37341,44.98808002471924
1619378305.62745,79.13864,45.0037100315094
1619378305.64307,79.47989,45.01933002471924
1619378305.6587,79.14925,45.0349600315094
1619378305.67432,77.82384,45.05058002471924
1619378305.68995,75.22176,45.0662100315094
1619378305.70557,71.26811,45.08183002471924
1619378305.7212,66.11494,45.0974600315094
1619378305.73683,60.04509,45.11309003829956
1619378305.75245,53.34224,45.1287100315094
1619378305.76808,46.17047,45.14434003829956
1619378305.7837,38.59976,45.1599600315094
1619378305.79933,30.64807,45.17559003829956
1619378305.81495,22.42163,45.1912100315094
1619378305.83058,14.1489,45.20684003829956
1619378305.84621,6.161575,45.22247004508972
1619378305.86183,-1.233047,45.23809003829956
1619378305.87746,-7.915131,45.25372004508972
1619378305.89308,-14.02446,45.26934003829956
1619378305.90871,-19.95122,45.28497004508972
1619378305.92433,-26.16539,45.30059003829956
1619378305.93996,-32.97189,45.31622004508972
1619378305.95559,-40.31172,45.33185005187988
1619378305.97121,-47.78557,45.34747004508972
1619378305.98684,-54.75528,45.36310005187988
1619378306.00246,-60.68091,45.37872004508972
1619378306.01809,-65.41661,45.39435005187988
1619378306.03371,-69.39941,45.40997004508972
1619378306.04934,-73.54057,45.42560005187988
1619378306.06497,-79.07256,45.441230058670044
1619378306.08059,-87.10539,45.45685005187988
1619378306.09622,-98.19167,45.472480058670044
1619378306.11184,-111.8742,45.48810005187988
1619378306.12747,-126.4002,45.503730058670044
1619378306.14309,-138.798,45.51935005187988
1619378306.15872,-145.4695,45.534980058670044
1619378306.17435,-143.2314,45.550610065460205
1619378306.18997,-130.3947,45.566230058670044
1619378306.2056,-107.5416,45.581860065460205
1619378306.22122,-77.52246,45.597480058670044
1619378306.23685,-44.56976,45.613110065460205
1619378306.25248,-13.05475,45.628740072250366
1619378306.2681,13.81868,45.644360065460205
1619378306.28373,34.56537,45.659990072250366
1619378306.29935,49.37192,45.675610065460205
1619378306.31498,59.32523,45.691240072250366
1619378306.3306,65.76721,45.706860065460205
1619378306.34623,69.68425,45.722490072250366
1619378306.36186,71.65608,45.73812007904053
1619378306.37748,72.02296,45.753740072250366
1619378306.39311,71.15028,45.76937007904053
1619378306.40873,69.52388,45.784990072250366
1619378306.42436,67.74872,45.80062007904053
1619378306.43998,66.38902,45.816240072250366
1619378306.45561,65.79376,45.83187007904053
