timestamp,value,norm_ts
1618824597.31096,18.80194,3.2666101455688477
1618824597.32658,18.95593,3.2822301387786865
1618824597.34221,18.3833,3.2978601455688477
1618824597.35783,16.93591,3.3134801387786865
1618824597.37346,14.68518,3.3291101455688477
1618824597.38909,11.90491,3.344740152359009
1618824597.40471,8.94574,3.3603601455688477
1618824597.42034,6.104065,3.375990152359009
1618824597.43596,3.486755,3.3916101455688477
1618824597.45159,1.001465,3.407240152359009
1618824597.46721,-1.597931,3.4228601455688477
1618824597.48284,-4.570313,3.438490152359009
1618824597.49847,-8.060852,3.45412015914917
1618824597.51409,-12.01294,3.469740152359009
1618824597.52972,-16.22568,3.48537015914917
1618824597.54534,-20.42847,3.500990152359009
1618824597.56097,-24.40024,3.51662015914917
1618824597.57659,-28.05878,3.532240152359009
1618824597.59222,-31.465,3.54787015914917
1618824597.60785,-34.80981,3.563500165939331
1618824597.62347,-38.32831,3.57912015914917
1618824597.6391,-42.26431,3.594750165939331
1618824597.65472,-46.73865,3.61037015914917
1618824597.67035,-51.6228,3.626000165939331
1618824597.68597,-56.42041,3.64162015914917
1618824597.7016,-60.21619,3.657250165939331
1618824597.71723,-61.83997,3.672880172729492
1618824597.73285,-60.18805,3.688500165939331
1618824597.74848,-54.6358,3.704130172729492
1618824597.7641,-45.31741,3.719750165939331
1618824597.77973,-33.16159,3.735380172729492
1618824597.79535,-19.60364,3.751000165939331
1618824597.81098,-6.171143,3.766630172729492
1618824597.82661,5.914337,3.7822601795196533
1618824597.84223,15.9552,3.797880172729492
1618824597.85786,23.74631,3.8135101795196533
1618824597.87348,29.38455,3.829130172729492
1618824597.88911,33.08447,3.8447601795196533
1618824597.90473,35.06223,3.860380172729492
1618824597.92036,35.50351,3.8760101795196533
1618824597.93599,34.64224,3.8916401863098145
1618824597.95161,32.77399,3.9072601795196533
1618824597.96724,30.26556,3.9228901863098145
1618824597.98286,27.49432,3.9385101795196533
1618824597.99849,24.80746,3.9541401863098145
1618824598.01411,22.44431,3.9697601795196533
1618824598.02974,20.51529,3.9853901863098145
1618824598.04537,19.01929,4.001020193099976
1618824598.06099,17.90057,4.0166401863098145
1618824598.07662,17.10526,4.032270193099976
1618824598.09224,16.63376,4.0478901863098145
1618824598.10787,16.48642,4.063520193099976
1618824598.12349,16.61523,4.0791401863098145
1618824598.13912,16.83624,4.094770193099976
1618824598.15475,16.84741,4.110400199890137
1618824598.17037,16.31384,4.126020193099976
1618824598.186,15.03214,4.141650199890137
1618824598.20162,12.99768,4.157270193099976
1618824598.21725,10.40402,4.172900199890137
1618824598.23287,7.510925,4.188520193099976
1618824598.2485,4.487183,4.204150199890137
1618824598.26413,1.344147,4.219780206680298
1618824598.27975,-2.020782,4.235400199890137
1618824598.29538,-5.688904,4.251030206680298
1618824598.311,-9.616028,4.266650199890137
1618824598.32663,-13.60471,4.282280206680298
1618824598.34225,-17.39331,4.297900199890137
1618824598.35788,-20.7756,4.313530206680298
1618824598.37351,-23.72418,4.32915997505188
1618824598.38913,-26.40466,4.344780206680298
1618824598.40476,-29.1192,4.36040997505188
1618824598.42038,-32.22052,4.376030206680298
1618824598.43601,-35.99261,4.39165997505188
1618824598.45163,-40.53262,4.407280206680298
1618824598.46726,-45.63803,4.42290997505188
1618824598.48289,-50.72827,4.438539981842041
1618824598.49851,-54.85428,4.45415997505188
1618824598.51414,-56.86258,4.469789981842041
1618824598.52976,-55.69855,4.48540997505188
1618824598.54539,-50.74524,4.501039981842041
1618824598.56101,-42.07166,4.51665997505188
1618824598.57664,-30.47186,4.532289981842041
1618824598.59227,-17.26126,4.547919988632202
1618824598.60789,-3.90918,4.563539981842041
1618824598.62352,8.311615,4.579169988632202
1618824598.63914,18.53995,4.594789981842041
1618824598.65477,26.39761,4.610419988632202
1618824598.6704,31.87057,4.626049995422363
1618824598.68602,35.21283,4.641669988632202
1618824598.70165,36.79086,4.657299995422363
1618824598.71727,37.00378,4.672919988632202
1618824598.7329,36.24146,4.688549995422363
1618824598.74852,34.85028,4.704169988632202
1618824598.76415,33.0918,4.719799995422363
1618824598.77978,31.13412,4.735430002212524
1618824598.7954,29.06256,4.751049995422363
1618824598.81103,26.88263,4.766680002212524
1618824598.82665,24.62265,4.782299995422363
1618824598.84228,22.354,4.797930002212524
1618824598.8579,20.23666,4.813549995422363
1618824598.87353,18.52499,4.829180002212524
1618824598.88916,17.45233,4.8448100090026855
1618824598.90478,17.14117,4.860430002212524
1618824598.92041,17.50391,4.8760600090026855
1618824598.93603,18.21857,4.891680002212524
1618824598.95166,18.81125,4.9073100090026855
1618824598.96728,18.81122,4.922930002212524
1618824598.98291,17.92374,4.9385600090026855
1618824598.99854,16.09787,4.954190015792847
1618824599.01416,13.54523,4.9698100090026855
1618824599.02979,10.61765,4.985440015792847
1618824599.04541,7.630859,5.0010600090026855
1618824599.06104,4.783203,5.016690015792847
1618824599.07666,2.053406,5.0323100090026855
1618824599.09229,-0.7490845,5.047940015792847
1618824599.10792,-3.892487,5.063570022583008
1618824599.12354,-7.606476,5.079190015792847
1618824599.13917,-11.94016,5.094820022583008
1618824599.15479,-16.68845,5.110440015792847
1618824599.17042,-21.46307,5.126070022583008
1618824599.18604,-25.84058,5.141690015792847
1618824599.20167,-29.54111,5.157320022583008
1618824599.2173,-32.59656,5.172950029373169
1618824599.23292,-35.34778,5.188570022583008
1618824599.24855,-38.32111,5.204200029373169
1618824599.26417,-42.00946,5.219820022583008
1618824599.2798,-46.62366,5.235450029373169
1618824599.29542,-51.91443,5.251070022583008
1618824599.31105,-57.14795,5.266700029373169
1618824599.32668,-61.22012,5.28233003616333
1618824599.3423,-62.88727,5.297950029373169
1618824599.35793,-61.11252,5.31358003616333
1618824599.37355,-55.33142,5.329200029373169
1618824599.38918,-45.68948,5.34483003616333
1618824599.4048,-33.01239,5.360450029373169
1618824599.42043,-18.67099,5.37608003616333
1618824599.43606,-4.203827,5.391710042953491
1618824599.45168,9.006378,5.40733003616333
1618824599.46731,19.9921,5.422960042953491
1618824599.48293,28.31998,5.43858003616333
1618824599.49856,33.96603,5.454210042953491
1618824599.51418,37.20575,5.46983003616333
1618824599.52981,38.4249,5.485460042953491
1618824599.54544,38.06165,5.501090049743652
1618824599.56106,36.56021,5.516710042953491
1618824599.57669,34.35818,5.532340049743652
1618824599.59231,31.8678,5.547960042953491
1618824599.60794,29.43588,5.563590049743652
1618824599.62356,27.30502,5.579210042953491
1618824599.63919,25.56024,5.594840049743652
1618824599.65482,24.16891,5.6104700565338135
1618824599.67044,23.02051,5.626090049743652
1618824599.68607,22.05051,5.6417200565338135
1618824599.70169,21.27347,5.657340049743652
1618824599.71732,20.79312,5.6729700565338135
1618824599.73294,20.69876,5.688590049743652
1618824599.74857,20.94775,5.7042200565338135
1618824599.7642,21.3125,5.719850063323975
1618824599.77982,21.39896,5.7354700565338135
1618824599.79545,20.82947,5.751100063323975
1618824599.81107,19.39481,5.7667200565338135
1618824599.8267,17.16434,5.782350063323975
1618824599.84232,14.46143,5.7979700565338135
1618824599.85795,11.71075,5.813600063323975
1618824599.87358,9.223236,5.829230070114136
1618824599.8892,7.054352,5.844850063323975
1618824599.90483,5.020325,5.860480070114136
1618824599.92045,2.735565,5.876100063323975
1618824599.93608,-0.1472168,5.891730070114136
1618824599.9517,-3.847534,5.907350063323975
1618824599.96733,-8.350632,5.922980070114136
1618824599.98296,-13.41843,5.938610076904297
1618824599.99858,-18.65263,5.954230070114136
1618824600.01421,-23.60143,5.969860076904297
1618824600.02983,-27.90115,5.985480070114136
1618824600.04546,-31.36798,6.001110076904297
1618824600.06108,-34.10097,6.016730070114136
1618824600.07671,-36.42708,6.032360076904297
1618824600.09234,-38.8287,6.047990083694458
1618824600.10796,-41.81781,6.063610076904297
1618824600.12359,-45.74109,6.079240083694458
1618824600.13921,-50.60678,6.094860076904297
1618824600.15484,-55.97548,6.110490083694458
1618824600.17046,-60.93478,6.126110076904297
1618824600.18609,-64.19989,6.141740083694458
1618824600.20172,-64.47421,6.157370090484619
1618824600.21734,-60.77031,6.172990083694458
1618824600.23297,-52.79994,6.188620090484619
1618824600.24859,-41.11263,6.204240083694458
1618824600.26422,-26.99103,6.219870090484619
1618824600.27984,-12.08768,6.235490083694458
1618824600.29547,2.022339,6.251120090484619
1618824600.3111,14.20667,6.26675009727478
1618824600.32672,23.92984,6.282370090484619
1618824600.34235,31.13475,6.29800009727478
1618824600.35797,36.05202,6.313620090484619
1618824600.3736,38.96652,6.32925009727478
1618824600.38922,40.1264,6.344870090484619
1618824600.40485,39.74657,6.36050009727478
1618824600.42048,38.11311,6.376130104064941
1618824600.4361,35.62823,6.39175009727478
1618824600.45173,32.78195,6.407380104064941
1618824600.46735,30.06973,6.42300009727478
1618824600.48298,27.85086,6.438630104064941
1618824600.4986,26.25668,6.45425009727478
1618824600.51423,25.19887,6.469880104064941
1618824600.52986,24.48167,6.4855101108551025
1618824600.54548,23.92009,6.501130104064941
1618824600.56111,23.4783,6.5167601108551025
1618824600.57673,23.25212,6.532380104064941
1618824600.59236,23.38977,6.5480101108551025
1618824600.60798,23.93567,6.563630104064941
1618824600.62361,24.7037,6.5792601108551025
1618824600.63924,25.30513,6.594890117645264
1618824600.65486,25.24353,6.6105101108551025
1618824600.67049,24.12126,6.626140117645264
1618824600.68611,21.82097,6.6417601108551025
1618824600.70174,18.53433,6.657390117645264
1618824600.71736,14.71597,6.6730101108551025
1618824600.73299,10.87991,6.688640117645264
1618824600.74862,7.403107,6.704270124435425
1618824600.76424,4.391449,6.719890117645264
1618824600.77987,1.655472,6.735520124435425
1618824600.79549,-1.171204,6.751140117645264
1618824600.81112,-4.45108,6.766770124435425
1618824600.82675,-8.364792,6.782400131225586
1618824600.84237,-12.82353,6.798020124435425
1618824600.858,-17.50955,6.813650131225586
1618824600.87362,-21.99947,6.829270124435425
1618824600.88925,-25.95512,6.844900131225586
1618824600.90487,-29.25285,6.860520124435425
1618824600.9205,-32.03108,6.876150131225586
1618824600.93613,-34.6028,6.891780138015747
1618824600.95175,-37.38858,6.907400131225586
1618824600.96738,-40.76065,6.923030138015747
1618824600.983,-44.95015,6.938650131225586
1618824600.99863,-49.93834,6.954280138015747
1618824601.01425,-55.33038,6.969900131225586
1618824601.02988,-60.27818,6.985530138015747
1618824601.04551,-63.56749,7.001160144805908
1618824601.06113,-63.84891,7.016780138015747
1618824601.07676,-60.06195,7.032410144805908
1618824601.09238,-51.85997,7.048030138015747
1618824601.10801,-39.81308,7.063660144805908
1618824601.12363,-25.34526,7.079280138015747
1618824601.13926,-10.28836,7.094910144805908
1618824601.15489,3.641174,7.110540151596069
1618824601.17051,15.3085,7.126160144805908
1618824601.18614,24.32265,7.141790151596069
1618824601.20176,30.86453,7.157410144805908
1618824601.21739,35.38383,7.173040151596069
1618824601.23301,38.27385,7.188660144805908
1618824601.24864,39.73114,7.204290151596069
1618824601.26427,39.82613,7.2199201583862305
1618824601.27989,38.6588,7.235540151596069
1618824601.29552,36.51236,7.2511701583862305
1618824601.31114,33.83861,7.266790151596069
1618824601.32677,31.1666,7.2824201583862305
1618824601.34239,28.914,7.298040151596069
1618824601.35802,27.2749,7.3136701583862305
1618824601.37365,26.22646,7.329300165176392
1618824601.38927,25.61528,7.3449201583862305
1618824601.4049,25.30759,7.360550165176392
1618824601.42052,25.25337,7.3761701583862305
1618824601.43615,25.52637,7.391800165176392
1618824601.45177,26.21014,7.4074201583862305
1618824601.4674,27.31349,7.423050165176392
1618824601.48303,28.67105,7.438680171966553
1618824601.49865,29.93808,7.454300165176392
1618824601.51428,30.66608,7.469930171966553
1618824601.5299,30.42477,7.485550165176392
1618824601.54553,28.98917,7.501180171966553
1618824601.56115,26.42056,7.516800165176392
1618824601.57678,23.00456,7.532430171966553
1618824601.59241,19.20383,7.548060178756714
1618824601.60803,15.58401,7.563680171966553
1618824601.62366,12.60095,7.579310178756714
1618824601.63928,10.41714,7.594930171966553
1618824601.65491,8.799866,7.610560178756714
1618824601.67053,7.186157,7.626180171966553
1618824601.68616,4.958099,7.641810178756714
1618824601.70179,1.692749,7.657440185546875
1618824601.71741,-2.704041,7.673060178756714
1618824601.73304,-7.826492,7.688690185546875
1618824601.74866,-12.81125,7.704310178756714
1618824601.76429,-16.6013,7.719940185546875
1618824601.77991,-18.40717,7.735560178756714
1618824601.79554,-18.10562,7.751190185546875
1618824601.81117,-16.42403,7.766820192337036
1618824601.82679,-14.71914,7.782440185546875
1618824601.84242,-14.45068,7.798070192337036
1618824601.85804,-16.82352,7.813690185546875
1618824601.87367,-22.02583,7.829320192337036
1618824601.88929,-28.82281,7.844940185546875
1618824601.90492,-34.77892,7.860570192337036
1618824601.92055,-37.00272,7.876200199127197
1618824601.93617,-33.11793,7.891820192337036
1618824601.9518,-22.03275,7.907450199127197
1618824601.96742,-4.317451,7.923070192337036
1618824601.98305,17.79001,7.938700199127197
1618824601.99867,40.00492,7.954320192337036
1618824602.0143,57.73605,7.969950199127197
1618824602.02993,67.80095,7.985580205917358
1618824602.04555,69.82818,8.001200199127197
1618824602.06118,66.351,8.016830205917358
1618824602.0768,61.64419,8.032450199127197
1618824602.09243,60.03419,8.048080205917358
1618824602.10805,64.37776,8.063700199127197
1618824602.12368,75.2139,8.079330205917358
1618824602.13931,89.32455,8.09495997428894
1618824602.15493,102.4553,8.110580205917358
1618824602.17056,111.8038,8.12620997428894
1618824602.18618,117.5182,8.141830205917358
1618824602.20181,122.0433,8.15745997428894
1618824602.21743,128.1234,8.173080205917358
1618824602.23306,137.4892,8.18870997428894
1618824602.24869,150.5444,8.204339981079102
1618824602.26431,166.6114,8.21995997428894
1618824602.27994,181.573,8.235589981079102
1618824602.29556,190.6061,8.25120997428894
1618824602.31119,190.0429,8.266839981079102
1618824602.32681,178.6647,8.28245997428894
1618824602.34244,157.4042,8.298089981079102
1618824602.35807,127.8006,8.313719987869263
1618824602.37369,91.35391,8.329339981079102
1618824602.38932,49.46589,8.344969987869263
1618824602.40494,3.190987,8.360589981079102
1618824602.42057,-50.42718,8.376219987869263
1618824602.43619,-114.8763,8.391839981079102
1618824602.45182,-191.3486,8.407469987869263
1618824602.46745,-276.8032,8.423099994659424
1618824602.48307,-364.8355,8.438719987869263
1618824602.4987,-449.2251,8.454349994659424
1618824602.51432,-525.8829,8.469969987869263
1618824602.52995,-593.2184,8.485599994659424
1618824602.54557,-629.9852,8.501219987869263
1618824602.5612,-619.2184,8.516849994659424
1618824602.57683,-557.76,8.532480001449585
1618824602.59245,-461.074,8.548099994659424
1618824602.60808,-352.5905,8.563730001449585
1618824602.6237,-249.4679,8.579349994659424
1618824602.63933,-159.5347,8.594980001449585
1618824602.65495,-84.59607,8.610599994659424
1618824602.67058,-24.1479,8.626230001449585
1618824602.68621,22.76937,8.641860008239746
1618824602.70183,54.03309,8.657480001449585
1618824602.71746,68.27702,8.673110008239746
1618824602.73308,67.36076,8.688730001449585
1618824602.74871,56.70852,8.704360008239746
1618824602.76433,45.92778,8.719980001449585
1618824602.77996,43.00809,8.735610008239746
1618824602.79559,52.29448,8.751240015029907
1618824602.81121,74.13657,8.766860008239746
1618824602.82684,105.6404,8.782490015029907
1618824602.84246,139.1434,8.798110008239746
1618824602.85809,166.4369,8.813740015029907
1618824602.87371,181.9158,8.829360008239746
1618824602.88934,181.1851,8.844990015029907
1618824602.90497,166.1536,8.860620021820068
1618824602.92059,142.598,8.876240015029907
1618824602.93622,117.5984,8.891870021820068
1618824602.95184,97.11623,8.907490015029907
1618824602.96747,84.44232,8.923120021820068
1618824602.98309,78.14839,8.938740015029907
1618824602.99872,74.4294,8.954370021820068
1618824603.01435,69.69007,8.97000002861023
1618824603.02997,62.6498,8.985620021820068
1618824603.0456,55.09956,9.00125002861023
1618824603.06122,49.51327,9.016870021820068
1618824603.07685,47.66901,9.03250002861023
1618824603.09247,49.82063,9.048120021820068
1618824603.1081,54.7471,9.06375002861023
1618824603.12373,59.67647,9.07938003540039
1618824603.13935,62.06254,9.09500002861023
1618824603.15498,60.77524,9.11063003540039
1618824603.1706,56.44971,9.12625002861023
1618824603.18623,50.70318,9.14188003540039
1618824603.20185,44.00858,9.15750002861023
1618824603.21748,35.43875,9.17313003540039
1618824603.23311,23.55069,9.188760042190552
1618824603.24873,7.743837,9.20438003540039
1618824603.26436,-11.08267,9.220010042190552
1618824603.27998,-30.58107,9.23563003540039
1618824603.29561,-47.73262,9.251260042190552
1618824603.31123,-59.64309,9.26688003540039
1618824603.32686,-64.22855,9.282510042190552
1618824603.34249,-61.48751,9.298140048980713
1618824603.35811,-53.20137,9.313760042190552
1618824603.37374,-42.09704,9.329390048980713
1618824603.38936,-30.90522,9.345010042190552
1618824603.40499,-21.4777,9.360640048980713
1618824603.42061,-14.468,9.376260042190552
1618824603.43624,-9.376971,9.391890048980713
1618824603.45187,-5.096617,9.407520055770874
1618824603.46749,-0.3164549,9.423140048980713
1618824603.48312,5.447698,9.438770055770874
1618824603.49874,11.70315,9.454390048980713
1618824603.51437,17.21811,9.470020055770874
1618824603.53,20.43961,9.485650062561035
1618824603.54562,20.31544,9.501270055770874
1618824603.56125,16.63899,9.516900062561035
1618824603.57687,10.20627,9.532520055770874
1618824603.5925,2.60072,9.548150062561035
1618824603.60812,-3.898387,9.563770055770874
1618824603.62375,-7.113631,9.579400062561035
1618824603.63938,-5.35135,9.595030069351196
1618824603.655,2.200783,9.610650062561035
1618824603.67063,15.02241,9.626280069351196
1618824603.68625,31.44862,9.641900062561035
1618824603.70188,48.71856,9.657530069351196
1618824603.7175,63.77766,9.673150062561035
1618824603.73313,73.03098,9.688780069351196
1618824603.74876,74.00013,9.704410076141357
1618824603.76438,65.78123,9.720030069351196
1618824603.78001,49.29088,9.735660076141357
1618824603.79563,26.88983,9.751280069351196
1618824603.81126,1.245753,9.766910076141357
1618824603.82688,-25.19626,9.782530069351196
1618824603.84251,-51.20049,9.798160076141357
1618824603.85814,-76.87409,9.813790082931519
1618824603.87376,-103.2084,9.829410076141357
1618824603.88939,-128.2965,9.845040082931519
1618824603.90501,-148.4435,9.860660076141357
1618824603.92064,-158.7302,9.876290082931519
1618824603.93626,-154.1902,9.891910076141357
1618824603.95189,-132.2392,9.907540082931519
1618824603.96752,-93.94125,9.92317008972168
1618824603.98314,-44.97701,9.938790082931519
1618824603.99877,5.625561,9.95442008972168
1618824604.01439,48.18974,9.970040082931519
1618824604.03002,76.54153,9.98567008972168
1618824604.04564,90.23294,10.001290082931519
1618824604.06127,93.93474,10.01692008972168
1618824604.0769,96.80935,10.03255009651184
1618824604.09252,104.6553,10.04817008972168
1618824604.10815,119.5935,10.06380009651184
1618824604.12377,139.5741,10.07942008972168
1618824604.1394,159.5903,10.09505009651184
1618824604.15502,173.6535,10.11067008972168
1618824604.17065,177.584,10.12630009651184
1618824604.18628,169.8186,10.141930103302002
1618824604.2019,150.157,10.15755009651184
1618824604.21753,119.2266,10.173180103302002
1618824604.23315,77.67968,10.18880009651184
1618824604.24878,26.89783,10.204430103302002
1618824604.2644,-31.37663,10.22005009651184
1618824604.28003,-91.52628,10.235680103302002
1618824604.29566,-146.4098,10.251310110092163
1618824604.31128,-189.3879,10.266930103302002
1618824604.32691,-212.0123,10.282560110092163
1618824604.34253,-211.3795,10.298180103302002
1618824604.35816,-191.9076,10.313810110092163
1618824604.37378,-162.9172,10.329430103302002
1618824604.38941,-132.3519,10.345060110092163
1618824604.40504,-103.0242,10.360690116882324
1618824604.42066,-73.2955,10.376310110092163
1618824604.43629,-41.1795,10.391940116882324
1618824604.45191,-7.179596,10.407560110092163
1618824604.46754,25.12815,10.423190116882324
1618824604.48316,50.23659,10.438810110092163
1618824604.49879,64.31915,10.454440116882324
1618824604.51442,67.13177,10.470070123672485
1618824604.53004,61.94295,10.485690116882324
1618824604.54567,53.36097,10.501320123672485
1618824604.56129,45.21101,10.516940116882324
1618824604.57692,39.24427,10.532570123672485
1618824604.59254,35.86327,10.548190116882324
1618824604.60817,35.09108,10.563820123672485
1618824604.6238,36.46978,10.579450130462646
1618824604.63942,39.56229,10.595070123672485
1618824604.65505,43.7706,10.610700130462646
1618824604.67067,48.0566,10.626320123672485
1618824604.6863,51.01141,10.641950130462646
1618824604.70192,51.51212,10.657570123672485
1618824604.71755,48.76678,10.673200130462646
1618824604.73318,43.18776,10.688830137252808
1618824604.7488,36.42917,10.704450130462646
1618824604.76443,30.22396,10.720080137252808
1618824604.78005,25.8468,10.735700130462646
1618824604.79568,23.60445,10.751330137252808
1618824604.8113,22.73167,10.766950130462646
1618824604.82693,22.0244,10.782580137252808
1618824604.84256,20.43225,10.798210144042969
1618824604.85818,17.52048,10.813830137252808
1618824604.87381,13.78272,10.829460144042969
1618824604.88943,10.38317,10.845080137252808
1618824604.90506,8.364586,10.860710144042969
1618824604.92068,8.354874,10.876330137252808
1618824604.93631,10.47449,10.891960144042969
1618824604.95194,14.19511,10.90759015083313
1618824604.96756,18.88586,10.923210144042969
1618824604.98319,23.89773,10.93884015083313
1618824604.99881,28.51016,10.954460144042969
1618824605.01444,32.02346,10.97009015083313
1618824605.03006,33.73476,10.985710144042969
1618824605.04569,32.89079,11.00134015083313
1618824605.06132,28.77014,11.016970157623291
1618824605.07694,22.57097,11.03259015083313
1618824605.09257,15.05246,11.048220157623291
1618824605.10819,7.050751,11.06384015083313
1618824605.12382,-0.7239685,11.079470157623291
1618824605.13944,-7.885841,11.09509015083313
1618824605.15507,-14.46104,11.110720157623291
1618824605.1707,-20.83112,11.126350164413452
1618824605.18632,-27.53447,11.141970157623291
1618824605.20195,-34.86394,11.157600164413452
1618824605.21757,-42.47108,11.173220157623291
1618824605.2332,-49.39912,11.188850164413452
1618824605.24882,-53.86966,11.204470157623291
1618824605.26445,-53.87376,11.220100164413452
1618824605.28008,-47.94363,11.235730171203613
1618824605.2957,-35.85057,11.251350164413452
1618824605.31133,-18.83925,11.266980171203613
1618824605.32695,0.6966705,11.282600164413452
1618824605.34258,20.01959,11.298230171203613
1618824605.3582,36.9178,11.313850164413452
1618824605.37383,50.03568,11.329480171203613
1618824605.38946,59.15912,11.345110177993774
1618824605.40508,64.78244,11.360730171203613
1618824605.42071,67.58582,11.376360177993774
1618824605.43633,68.09764,11.391980171203613
1618824605.45196,66.60349,11.407610177993774
1618824605.46758,63.2733,11.423230171203613
1618824605.48321,58.34889,11.438860177993774
1618824605.49884,52.22981,11.454490184783936
1618824605.51446,45.33147,11.470110177993774
1618824605.53009,38.17125,11.485740184783936
1618824605.54571,31.26585,11.501360177993774
1618824605.56134,25.09435,11.516990184783936
1618824605.57696,20.01585,11.532610177993774
1618824605.59259,16.21761,11.548240184783936
1618824605.60822,13.63518,11.563870191574097
1618824605.62384,11.95142,11.579490184783936
1618824605.63947,10.71268,11.595120191574097
1618824605.65509,9.399384,11.610740184783936
1618824605.67072,7.666718,11.626370191574097
1618824605.68635,5.406342,11.642000198364258
1618824605.70197,2.684692,11.657620191574097
1618824605.7176,-0.381012,11.673250198364258
1618824605.73322,-3.743378,11.688870191574097
1618824605.74885,-7.478851,11.704500198364258
1618824605.76447,-11.73047,11.720120191574097
1618824605.7801,-16.56161,11.735750198364258
1618824605.79573,-21.94345,11.751380205154419
1618824605.81135,-27.6601,11.767000198364258
1618824605.82698,-33.44659,11.782630205154419
1618824605.8426,-39.06305,11.798250198364258
1618824605.85823,-44.37997,11.813880205154419
1618824605.87385,-49.38181,11.829500198364258
1618824605.88948,-54.08054,11.845130205154419
1618824605.90511,-58.48126,11.860759973526001
1618824605.92073,-62.55768,11.876380205154419
1618824605.93636,-66.37009,11.892009973526001
1618824605.95198,-70.13739,11.907630205154419
1618824605.96761,-74.2699,11.923259973526001
1618824605.98323,-79.12125,11.938880205154419
1618824605.99886,-84.57449,11.954509973526001
1618824606.01449,-89.73947,11.970139980316162
1618824606.03011,-92.8678,11.985759973526001
1618824606.04574,-91.85989,12.001389980316162
1618824606.06136,-84.99307,12.017009973526001
1618824606.07699,-71.75781,12.032639980316162
1618824606.09261,-53.1568,12.048259973526001
1618824606.10824,-31.50098,12.063889980316162
1618824606.12387,-9.602692,12.079519987106323
1618824606.13949,10.11993,12.095139980316162
1618824606.15512,26.21164,12.110769987106323
1618824606.17074,38.33371,12.126389980316162
1618824606.18637,46.84042,12.142019987106323
1618824606.20199,52.30273,12.157639980316162
1618824606.21762,55.11301,12.173269987106323
1618824606.23325,55.46133,12.188899993896484
1618824606.24887,53.46783,12.204519987106323
1618824606.2645,49.45343,12.220149993896484
1618824606.28012,44.00607,12.235769987106323
1618824606.29575,37.8808,12.251399993896484
1618824606.31137,31.82611,12.267019987106323
1618824606.327,26.36887,12.282649993896484
1618824606.34263,21.74533,12.298280000686646
1618824606.35825,17.95538,12.313899993896484
1618824606.37388,14.85028,12.329530000686646
1618824606.3895,12.28302,12.345149993896484
1618824606.40513,10.17142,12.360780000686646
1618824606.42075,8.476105,12.376399993896484
1618824606.43638,7.14032,12.392030000686646
1618824606.45201,6.029327,12.407660007476807
1618824606.46763,4.89859,12.423280000686646
1618824606.48326,3.454651,12.438910007476807
1618824606.49888,1.422394,12.454530000686646
1618824606.51451,-1.38443,12.470160007476807
1618824606.53013,-5.048737,12.485780000686646
1618824606.54576,-9.542542,12.501410007476807
1618824606.56139,-14.76706,12.517040014266968
1618824606.57701,-20.57504,12.532660007476807
1618824606.59264,-26.75735,12.548290014266968
1618824606.60826,-33.05966,12.563910007476807
1618824606.62389,-39.18463,12.579540014266968
1618824606.63951,-44.84332,12.595160007476807
1618824606.65514,-49.88251,12.610790014266968
1618824606.67077,-54.29953,12.626420021057129
1618824606.68639,-58.34485,12.642040014266968
1618824606.70202,-62.4744,12.657670021057129
1618824606.71764,-67.25421,12.673290014266968
1618824606.73327,-73.14313,12.688920021057129
1618824606.74889,-80.27234,12.704540014266968
1618824606.76452,-88.0986,12.720170021057129
1618824606.78015,-95.28101,12.73580002784729
1618824606.79577,-99.8259,12.751420021057129
1618824606.8114,-99.51004,12.76705002784729
1618824606.82702,-92.60901,12.782670021057129
1618824606.84265,-78.5658,12.79830002784729
1618824606.85827,-58.30432,12.813920021057129
1618824606.8739,-34.07306,12.82955002784729
1618824606.88953,-8.789795,12.845180034637451
1618824606.90515,14.77869,12.86080002784729
1618824606.92078,34.65991,12.876430034637451
1618824606.9364,49.9248,12.89205002784729
1618824606.95203,60.52771,12.907680034637451
1618824606.96765,66.89795,12.92330002784729
1618824606.98328,69.61682,12.938930034637451
1618824606.99891,69.20947,12.954560041427612
1618824607.01453,66.19067,12.970180034637451
1618824607.03016,61.15564,12.985810041427612
1618824607.04578,54.84155,13.001430034637451
1618824607.06141,48.06036,13.017060041427612
1618824607.07703,41.57721,13.032680034637451
1618824607.09266,35.97241,13.048310041427612
1618824607.10829,31.51727,13.063940048217773
1618824607.12391,28.17902,13.079560041427612
1618824607.13954,25.68518,13.095190048217773
1618824607.15516,23.66211,13.110810041427612
1618824607.17079,21.80273,13.126440048217773
1618824607.18641,19.95905,13.142060041427612
1618824607.20204,18.13849,13.157690048217773
1618824607.21767,16.45605,13.173320055007935
1618824607.23329,14.97949,13.188940048217773
1618824607.24892,13.61511,13.204570055007935
1618824607.26454,12.0813,13.220190048217773
1618824607.28017,9.981384,13.235820055007935
1618824607.29579,6.85791,13.251440048217773
1618824607.31142,2.403259,13.267070055007935
1618824607.32705,-3.48645,13.282700061798096
1618824607.34267,-10.64478,13.298320055007935
1618824607.3583,-18.6319,13.313950061798096
1618824607.37392,-26.83099,13.329570055007935
1618824607.38955,-34.61108,13.345200061798096
1618824607.40517,-41.51221,13.360820055007935
1618824607.4208,-47.39105,13.376450061798096
1618824607.43643,-52.492,13.392080068588257
1618824607.45205,-57.367,13.407700061798096
1618824607.46768,-62.74939,13.423330068588257
1618824607.4833,-69.30548,13.438950061798096
1618824607.49893,-77.41211,13.454580068588257
1618824607.51455,-86.87866,13.470200061798096
1618824607.53018,-96.73145,13.485830068588257
1618824607.54581,-105.161,13.501460075378418
1618824607.56143,-109.7495,13.517080068588257
1618824607.57706,-108.0846,13.532710075378418
1618824607.59268,-98.50195,13.548330068588257
1618824607.60831,-80.82568,13.563960075378418
1618824607.62393,-56.60492,13.579580068588257
1618824607.63956,-28.73315,13.595210075378418
1618824607.65519,-0.6380005,13.610840082168579
1618824607.67081,24.68939,13.626460075378418
1618824607.68644,45.35602,13.642090082168579
1618824607.70206,60.68787,13.657710075378418
1618824607.71769,70.93103,13.673340082168579
1618824607.73331,76.77521,13.688960075378418
1618824607.74894,78.96875,13.704590082168579
1618824607.76457,78.16907,13.72022008895874
1618824607.78019,75.00177,13.735840082168579
1618824607.79582,70.08734,13.75147008895874
1618824607.81144,64.0564,13.767090082168579
1618824607.82707,57.52301,13.78272008895874
1618824607.84269,50.98724,13.798340082168579
1618824607.85832,44.82703,13.81397008895874
1618824607.87395,39.31476,13.829600095748901
1618824607.88957,34.60748,13.84522008895874
1618824607.9052,30.79913,13.860850095748901
1618824607.92082,27.88269,13.87647008895874
1618824607.93645,25.72186,13.892100095748901
1618824607.95208,24.08057,13.907730102539062
1618824607.9677,22.61728,13.923350095748901
1618824607.98333,21.00812,13.938980102539062
1618824607.99895,18.95441,13.954600095748901
1618824608.01458,16.3049,13.970230102539062
1618824608.0302,13.01263,13.985850095748901
1618824608.04583,9.084961,14.001480102539062
1618824608.06146,4.480408,14.017110109329224
1618824608.07708,-0.9456787,14.032730102539062
1618824608.09271,-7.393097,14.048360109329224
1618824608.10833,-14.99561,14.063980102539062
1618824608.12396,-23.64642,14.079610109329224
1618824608.13958,-32.95279,14.095230102539062
1618824608.15521,-42.27551,14.110860109329224
1618824608.17084,-50.97952,14.126490116119385
1618824608.18646,-58.638,14.142110109329224
1618824608.20209,-65.22717,14.157740116119385
1618824608.21771,-71.12006,14.173360109329224
1618824608.23334,-76.97772,14.188990116119385
1618824608.24896,-83.58978,14.204610109329224
1618824608.26459,-91.59149,14.220240116119385
1618824608.28022,-101.2135,14.235870122909546
1618824608.29584,-111.9202,14.251490116119385
1618824608.31147,-122.2198,14.267120122909546
1618824608.32709,-129.7043,14.282740116119385
1618824608.34272,-131.5226,14.298370122909546
1618824608.35834,-125.1931,14.313990116119385
1618824608.37397,-109.52,14.329620122909546
1618824608.3896,-85.17496,14.345250129699707
1618824608.40522,-54.64252,14.360870122909546
1618824608.42085,-21.59772,14.376500129699707
1618824608.43647,10.16214,14.392120122909546
1618824608.4521,37.68689,14.407750129699707
1618824608.46772,59.39316,14.423370122909546
1618824608.48335,75.04453,14.439000129699707
1618824608.49898,85.30081,14.454630136489868
1618824608.5146,91.18939,14.470250129699707
1618824608.53023,93.67392,14.485880136489868
1618824608.54585,93.51596,14.501500129699707
1618824608.56148,91.27478,14.517130136489868
1618824608.5771,87.44211,14.532750129699707
1618824608.59273,82.50833,14.548380136489868
1618824608.60836,76.98462,14.56401014328003
1618824608.62398,71.31989,14.579630136489868
1618824608.63961,65.86777,14.59526014328003
1618824608.65523,60.85126,14.610880136489868
1618824608.67086,56.43527,14.62651014328003
1618824608.68648,52.77222,14.642130136489868
1618824608.70211,50.03497,14.65776014328003
1618824608.71774,48.32614,14.67339015007019
1618824608.73336,47.5947,14.68901014328003
1618824608.74899,47.4859,14.70464015007019
1618824608.76461,47.34961,14.72026014328003
1618824608.78024,46.33328,14.73589015007019
1618824608.79586,43.65207,14.75151014328003
1618824608.81149,38.86371,14.76714015007019
1618824608.82712,32.07568,14.782770156860352
1618824608.84274,23.87314,14.79839015007019
1618824608.85837,15.1257,14.814020156860352
1618824608.87399,6.59671,14.82964015007019
1618824608.88962,-1.361389,14.845270156860352
1618824608.90524,-8.84787,14.86089015007019
1618824608.92087,-16.33438,14.876520156860352
1618824608.9365,-24.31757,14.892150163650513
1618824608.95212,-33.04422,14.907770156860352
1618824608.96775,-42.3287,14.923400163650513
1618824608.98337,-51.65009,14.939020156860352
1618824608.999,-60.36746,14.954650163650513
1618824609.01462,-68.03009,14.970270156860352
1618824609.03025,-74.59671,14.985900163650513
1618824609.04588,-80.50549,15.001530170440674
1618824609.0615,-86.57156,15.017150163650513
1618824609.07713,-93.76141,15.032780170440674
1618824609.09275,-102.8145,15.048400163650513
1618824609.10838,-113.7584,15.064030170440674
1618824609.124,-125.5114,15.079650163650513
1618824609.13963,-135.7485,15.095280170440674
1618824609.15526,-141.265,15.110910177230835
1618824609.17088,-138.851,15.126530170440674
1618824609.18651,-126.3691,15.142160177230835
1618824609.20213,-103.6544,15.157780170440674
1618824609.21776,-72.78607,15.173410177230835
1618824609.23338,-37.52963,15.189030170440674
1618824609.24901,-2.213623,15.204660177230835
1618824609.26464,29.48901,15.220290184020996
1618824609.28026,55.34402,15.235910177230835
1618824609.29589,74.70474,15.251540184020996
1618824609.31151,88.02896,15.267160177230835
1618824609.32714,96.28339,15.282790184020996
1618824609.34276,100.3706,15.298410177230835
1618824609.35839,101.0409,15.314040184020996
1618824609.37402,98.95981,15.329670190811157
1618824609.38964,94.86063,15.345290184020996
1618824609.40527,89.59213,15.360920190811157
1618824609.42089,83.98682,15.376540184020996
1618824609.43652,78.68362,15.392170190811157
1618824609.45214,74.00427,15.407790184020996
1618824609.46777,69.97223,15.423420190811157
1618824609.4834,66.43179,15.439050197601318
1618824609.49902,63.25327,15.454670190811157
1618824609.51465,60.4259,15.470300197601318
1618824609.53027,58.09409,15.485920190811157
1618824609.5459,56.44266,15.501550197601318
1618824609.56152,55.56863,15.517170190811157
1618824609.57715,55.32111,15.532800197601318
1618824609.59278,55.21637,15.54843020439148
1618824609.6084,54.5217,15.564050197601318
1618824609.62403,52.43793,15.57968020439148
1618824609.63965,48.38348,15.595300197601318
1618824609.65528,42.22192,15.61093020439148
1618824609.6709,34.36838,15.626550197601318
1618824609.68653,25.66269,15.64218020439148
1618824609.70216,17.06152,15.657809972763062
1618824609.71778,9.27002,15.67343020439148
1618824609.73341,2.446106,15.689059972763062
1618824609.74903,-3.830963,15.70468020439148
1618824609.76466,-10.36032,15.720309972763062
1618824609.78028,-17.9205,15.73593020439148
1618824609.79591,-26.87564,15.751559972763062
1618824609.81154,-36.96979,15.767189979553223
1618824609.82716,-47.38205,15.782809972763062
1618824609.84279,-57.05856,15.798439979553223
1618824609.85841,-65.15842,15.814059972763062
1618824609.87404,-71.40927,15.829689979553223
1618824609.88966,-76.24597,15.845309972763062
1618824609.90529,-80.66208,15.860939979553223
1618824609.92092,-85.93323,15.876569986343384
1618824609.93654,-93.18628,15.892189979553223
1618824609.95217,-102.9995,15.907819986343384
1618824609.96779,-115.0078,15.923439979553223
1618824609.98342,-127.6594,15.939069986343384
1618824609.99904,-138.3192,15.954689979553223
1618824610.01467,-143.6966,15.970319986343384
1618824610.0303,-140.7086,15.985949993133545
1618824610.04592,-127.4454,16.001569986343384
1618824610.06155,-103.9456,16.017199993133545
1618824610.07717,-72.33556,16.032819986343384
1618824610.0928,-36.36972,16.048449993133545
1618824610.10842,-0.3346558,16.064069986343384
1618824610.12405,32.07747,16.079699993133545
1618824610.13968,58.51785,16.095329999923706
1618824610.1553,78.2115,16.110949993133545
1618824610.17093,91.60785,16.126579999923706
1618824610.18655,99.76193,16.142199993133545
1618824610.20218,103.8033,16.157829999923706
1618824610.2178,104.6262,16.173449993133545
1618824610.23343,102.8711,16.189079999923706
1618824610.24906,99.08702,16.204710006713867
1618824610.26468,93.86142,16.220329999923706
1618824610.28031,87.90671,16.235960006713867
1618824610.29593,81.99405,16.251579999923706
1618824610.31156,76.7753,16.267210006713867
1618824610.32718,72.63326,16.282829999923706
1618824610.34281,69.61101,16.298460006713867
1618824610.35844,67.53662,16.31409001350403
1618824610.37406,66.09196,16.329710006713867
1618824610.38969,65.01709,16.34534001350403
1618824610.40531,64.16133,16.360960006713867
1618824610.42094,63.44739,16.37659001350403
1618824610.43656,62.78474,16.392210006713867
1618824610.45219,61.96075,16.40784001350403
1618824610.46782,60.62056,16.42347002029419
1618824610.48344,58.3071,16.43909001350403
1618824610.49907,54.64003,16.45472002029419
1618824610.51469,49.43941,16.47034001350403
1618824610.53032,42.82854,16.48597002029419
1618824610.54594,35.19142,16.50159001350403
1618824610.56157,27.05554,16.51722002029419
1618824610.5772,18.94574,16.53285002708435
1618824610.59282,11.23761,16.54847002029419
1618824610.60845,4.090775,16.56410002708435
1618824610.62407,-2.552719,16.57972002029419
1618824610.6397,-8.944565,16.59535002708435
1618824610.65533,-15.461,16.61098003387451
1618824610.67095,-22.48097,16.62660002708435
1618824610.68658,-30.28128,16.64223003387451
1618824610.7022,-38.89609,16.65785002708435
1618824610.71783,-48.07794,16.67348003387451
1618824610.73345,-57.28175,16.68910002708435
1618824610.74908,-65.83212,16.70473003387451
1618824610.76471,-73.1483,16.720360040664673
1618824610.78033,-78.98918,16.73598003387451
1618824610.79596,-83.60797,16.751610040664673
1618824610.81158,-87.72459,16.76723003387451
1618824610.82721,-92.41512,16.782860040664673
1618824610.84283,-98.77281,16.79848003387451
1618824610.85846,-107.521,16.814110040664673
1618824610.87409,-118.5305,16.829740047454834
1618824610.88971,-130.4806,16.845360040664673
1618824610.90534,-140.7712,16.860990047454834
1618824610.92096,-145.9513,16.876610040664673
1618824610.93659,-142.6442,16.892240047454834
1618824610.95221,-128.633,16.907860040664673
1618824610.96784,-103.7894,16.923490047454834
1618824610.98347,-70.35464,16.939120054244995
1618824610.99909,-32.36841,16.954740047454834
1618824611.01472,5.471024,16.970370054244995
1618824611.03034,39.10512,16.985990047454834
1618824611.04597,66.02623,17.001620054244995
1618824611.06159,85.51122,17.017240047454834
1618824611.07722,98.18571,17.032870054244995
1618824611.09285,105.3534,17.048500061035156
1618824611.10847,108.3305,17.064120054244995
1618824611.1241,108.1559,17.079750061035156
1618824611.13972,105.6393,17.095370054244995
1618824611.15535,101.5091,17.111000061035156
1618824611.17097,96.51736,17.126620054244995
1618824611.1866,91.39175,17.142250061035156
1618824611.20223,86.67236,17.157880067825317
1618824611.21785,82.57762,17.173500061035156
1618824611.23348,79.02298,17.189130067825317
1618824611.2491,75.78212,17.204750061035156
1618824611.26473,72.73666,17.220380067825317
1618824611.28035,70.01509,17.236000061035156
1618824611.29598,67.9503,17.251630067825317
1618824611.31161,66.88579,17.26726007461548
1618824611.32723,66.88139,17.282880067825317
1618824611.34286,67.55347,17.29851007461548
1618824611.35848,68.10823,17.314130067825317
1618824611.37411,67.61577,17.32976007461548
1618824611.38973,65.38036,17.345380067825317
1618824611.40536,61.20274,17.36101007461548
1618824611.42099,55.42487,17.37664008140564
1618824611.43661,48.7305,17.39226007461548
1618824611.45224,41.82773,17.40789008140564
1618824611.46786,35.1403,17.42351007461548
1618824611.48349,28.73112,17.43914008140564
1618824611.49911,22.367,17.45476007461548
1618824611.51474,15.75801,17.47039008140564
1618824611.53037,8.758469,17.4860200881958
1618824611.54599,1.496552,17.50164008140564
1618824611.56162,-5.712234,17.5172700881958
1618824611.57724,-12.51845,17.53289008140564
1618824611.59287,-18.74535,17.5485200881958
1618824611.60849,-24.50656,17.56414008140564
1618824611.62412,-30.16612,17.5797700881958
1618824611.63975,-36.17604,17.595400094985962
1618824611.65537,-42.81799,17.6110200881958
1618824611.671,-50.04297,17.626650094985962
1618824611.68662,-57.45576,17.6422700881958
1618824611.70225,-64.47824,17.657900094985962
1618824611.71787,-70.5883,17.6735200881958
1618824611.7335,-75.57489,17.689150094985962
1618824611.74913,-79.66103,17.704780101776123
1618824611.76475,-83.51358,17.720400094985962
1618824611.78038,-88.01692,17.736030101776123
1618824611.796,-94.01376,17.751650094985962
1618824611.81163,-102.0616,17.767280101776123
1618824611.82725,-112.1244,17.782900094985962
1618824611.84288,-123.2662,17.798530101776123
1618824611.85851,-133.4285,17.814160108566284
1618824611.87413,-139.6654,17.829780101776123
1618824611.88976,-138.7807,17.845410108566284
1618824611.90538,-128.4234,17.861030101776123
1618824611.92101,-107.9525,17.876660108566284
1618824611.93663,-78.82629,17.892280101776123
1618824611.95226,-44.33463,17.907910108566284
1618824611.96789,-8.694687,17.923540115356445
1618824611.98351,24.10341,17.939160108566284
1618824611.99914,51.24969,17.954790115356445
1618824612.01476,71.48938,17.970410108566284
1618824612.03039,84.92482,17.986040115356445
1618824612.04601,92.30486,18.001660108566284
1618824612.06164,94.73761,18.017290115356445
1618824612.07727,93.42203,18.032920122146606
1618824612.09289,89.51091,18.048540115356445
1618824612.10852,83.99519,18.064170122146606
1618824612.12414,77.65149,18.079790115356445
1618824612.13977,71.08426,18.095420122146606
1618824612.15539,64.66634,18.111040115356445
1618824612.17102,58.59401,18.126670122146606
1618824612.18665,52.47021,18.142300128936768
1618824612.20227,46.15886,18.157920122146606
1618824612.2179,40.08833,18.173550128936768
1618824612.23352,35.11537,18.189170122146606
1618824612.24915,31.97499,18.204800128936768
1618824612.26477,30.86938,18.220420122146606
1618824612.2804,31.39661,18.236050128936768
1618824612.29603,32.59343,18.25168013572693
1618824612.31165,33.23001,18.267300128936768
1618824612.32728,31.27988,18.28293013572693
1618824612.3429,25.70589,18.298550128936768
1618824612.35853,17.06181,18.31418013572693
1618824612.37415,7.089355,18.329800128936768
1618824612.38978,-2.476868,18.34543013572693
1618824612.40541,-10.67493,18.36106014251709
1618824612.42103,-17.46344,18.37668013572693
1618824612.43666,-23.49121,18.39231014251709
1618824612.45228,-29.74924,18.40793013572693
1618824612.46791,-38.46504,18.42356014251709
1618824612.48353,-50.56543,18.43918013572693
1618824612.49916,-64.87352,18.45481014251709
1618824612.51479,-78.92107,18.47044014930725
1618824612.53041,-90.56915,18.48606014251709
1618824612.54604,-98.9823,18.50169014930725
1618824612.56166,-104.4636,18.51731014251709
1618824612.57729,-107.9872,18.53294014930725
1618824612.59291,-110.8284,18.54856014251709
1618824612.60854,-116.0585,18.56419014930725
1618824612.62417,-125.548,18.579820156097412
1618824612.63979,-138.7696,18.59544014930725
1618824612.65542,-153.1001,18.611070156097412
1618824612.67104,-165.1929,18.62669014930725
1618824612.68667,-171.7631,18.642320156097412
1618824612.70229,-169.8554,18.65794014930725
1618824612.71792,-157.5207,18.673570156097412
1618824612.73355,-123.2816,18.689200162887573
1618824612.74917,-66.77787,18.704820156097412
1618824612.7648,-0.3340912,18.720450162887573
1618824612.78042,58.6549,18.736070156097412
1618824612.79605,99.52047,18.751700162887573
1618824612.81168,121.7563,18.767330169677734
1618824612.8273,130.7726,18.782950162887573
1618824612.84293,132.9164,18.798580169677734
1618824612.85855,132.5575,18.814200162887573
1618824612.87418,131.4455,18.829830169677734
1618824612.8898,127.8777,18.845450162887573
1618824612.90543,120.5997,18.861080169677734
1618824612.92106,110.3799,18.876710176467896
1618824612.93668,99.16196,18.892330169677734
1618824612.95231,88.10371,18.907960176467896
1618824612.96793,76.7373,18.923580169677734
1618824612.98356,63.87218,18.939210176467896
1618824612.99918,48.92762,18.954830169677734
1618824613.01481,31.74435,18.970460176467896
1618824613.03044,12.11862,18.986090183258057
1618824613.04606,-8.693947,19.001710176467896
1618824613.06169,-28.11298,19.017340183258057
1618824613.07731,-43.42294,19.032960176467896
1618824613.09294,-53.15141,19.048590183258057
1618824613.10856,-57.41498,19.064210176467896
1618824613.12419,-57.29255,19.079840183258057
1618824613.13982,-54.22952,19.095470190048218
1618824613.15544,-49.53242,19.111090183258057
1618824613.17107,-44.98012,19.126720190048218
1618824613.18669,-41.5095,19.142340183258057
1618824613.20232,-38.71687,19.157970190048218
1618824613.21794,-35.40373,19.173590183258057
1618824613.23357,-30.56977,19.189220190048218
1618824613.2492,-24.12186,19.20485019683838
1618824613.26482,-16.37545,19.220470190048218
1618824613.28045,-8.386055,19.23610019683838
1618824613.29607,-0.8615761,19.251720190048218
1618824613.3117,5.906414,19.26735019683838
1618824613.32732,12.38625,19.282970190048218
1618824613.34295,19.37774,19.29860019683838
1618824613.35858,27.12071,19.31423020362854
1618824613.3742,35.01086,19.32985019683838
1618824613.38983,42.06411,19.34548020362854
1618824613.40545,47.70249,19.36110019683838
1618824613.42108,51.91424,19.37673020362854
1618824613.4367,55.03299,19.39235019683838
1618824613.45233,57.06506,19.40798020362854
1618824613.46796,57.63952,19.423609972000122
1618824613.48358,56.49798,19.43923020362854
1618824613.49921,54.24324,19.454859972000122
1618824613.51483,53.00442,19.47048020362854
1618824613.53046,56.00342,19.486109972000122
1618824613.54608,65.85811,19.50173020362854
1618824613.56171,82.53049,19.517359972000122
1618824613.57734,102.5596,19.532989978790283
1618824613.59296,120.1745,19.548609972000122
1618824613.60859,129.8756,19.564239978790283
1618824613.62421,128.861,19.579859972000122
1618824613.63984,117.8561,19.595489978790283
1618824613.65546,100.6069,19.611109972000122
1618824613.67109,82.29375,19.626739978790283
1618824613.68672,67.41978,19.642369985580444
1618824613.70234,58.37055,19.657989978790283
1618824613.71797,55.29327,19.673619985580444
1618824613.73359,56.71146,19.689239978790283
1618824613.74922,60.45026,19.704869985580444
1618824613.76484,64.11544,19.720489978790283
1618824613.78047,64.74245,19.736119985580444
1618824613.7961,59.41227,19.751749992370605
1618824613.81172,46.12054,19.767369985580444
1618824613.82735,24.24998,19.782999992370605
1618824613.84297,-5.411072,19.798619985580444
1618824613.8586,-41.023,19.814249992370605
1618824613.87422,-80.02145,19.829869985580444
1618824613.88985,-117.9945,19.845499992370605
1618824613.90548,-147.4454,19.861129999160767
1618824613.9211,-162.116,19.876749992370605
1618824613.93673,-160.7455,19.892379999160767
1618824613.95235,-147.3778,19.907999992370605
1618824613.96798,-128.345,19.923629999160767
1618824613.9836,-109.1218,19.939249992370605
1618824613.99923,-92.73222,19.954879999160767
1618824614.01486,-79.73758,19.970510005950928
1618824614.03048,-68.94952,19.986129999160767
1618824614.04611,-58.49355,20.001760005950928
1618824614.06173,-48.06972,20.017379999160767
1618824614.07736,-38.67921,20.033010005950928
1618824614.09298,-31.62329,20.048629999160767
1618824614.10861,-27.93823,20.064260005950928
1618824614.12424,-28.10313,20.07989001274109
1618824614.13986,-31.88715,20.095510005950928
1618824614.15549,-38.05116,20.11114001274109
1618824614.17111,-43.6902,20.126760005950928
1618824614.18674,-44.44643,20.14239001274109
1618824614.20236,-36.52243,20.158010005950928
1618824614.21799,-17.9926,20.17364001274109
1618824614.23362,10.26829,20.18927001953125
1618824614.24924,44.17311,20.20489001274109
1618824614.26487,77.64883,20.22052001953125
1618824614.28049,104.5025,20.23614001274109
1618824614.29612,120.4978,20.25177001953125
1618824614.31174,121.6018,20.26739001274109
1618824614.32737,111.0611,20.28302001953125
1618824614.343,94.00394,20.29865002632141
1618824614.35862,74.74828,20.31427001953125
1618824614.37425,55.96293,20.32990002632141
1618824614.38987,38.78187,20.34552001953125
1618824614.4055,24.04402,20.36115002632141
1618824614.42112,12.41351,20.37677001953125
1618824614.43675,3.939571,20.39240002632141
1618824614.45238,-2.097134,20.408030033111572
1618824614.468,-6.871481,20.42365002632141
1618824614.48363,-12.60149,20.439280033111572
1618824614.49925,-21.3,20.45490002632141
1618824614.51488,-34.16338,20.470530033111572
1618824614.5305,-51.70391,20.48615002632141
1618824614.54613,-72.93185,20.501780033111572
1618824614.56176,-95.43277,20.517410039901733
1618824614.57738,-115.26,20.533030033111572
1618824614.59301,-126.9991,20.548660039901733
1618824614.60863,-125.2572,20.564280033111572
1618824614.62426,-107.8751,20.579910039901733
1618824614.63988,-77.08354,20.595530033111572
1618824614.65551,-38.28573,20.611160039901733
1618824614.67114,-0.9603367,20.626790046691895
1618824614.68676,28.11369,20.642410039901733
1618824614.70239,46.9177,20.658040046691895
1618824614.71801,57.41128,20.673660039901733
1618824614.73364,63.19959,20.689290046691895
1618824614.74926,66.67636,20.704910039901733
1618824614.76489,67.57979,20.720540046691895
1618824614.78052,64.4977,20.736170053482056
1618824614.79614,56.8542,20.751790046691895
1618824614.81177,46.05043,20.767420053482056
1618824614.82739,35.33128,20.783040046691895
1618824614.84302,28.00451,20.798670053482056
1618824614.85864,23.69503,20.814290046691895
1618824614.87427,20.57066,20.829920053482056
1618824614.8899,16.30769,20.845550060272217
1618824614.90552,9.372826,20.861170053482056
1618824614.92115,-0.0246582,20.876800060272217
1618824614.93677,-10.31453,20.892420053482056
1618824614.9524,-19.66711,20.908050060272217
1618824614.96802,-26.52495,20.923670053482056
1618824614.98365,-30.57948,20.939300060272217
1618824614.99928,-32.82376,20.954930067062378
1618824615.0149,-34.73375,20.970550060272217
1618824615.03053,-37.82597,20.986180067062378
1618824615.04615,-43.22504,21.001800060272217
1618824615.06178,-51.15869,21.017430067062378
1618824615.0774,-60.81752,21.033050060272217
1618824615.09303,-70.50752,21.048680067062378
1618824615.10866,-78.0663,21.06431007385254
1618824615.12428,-81.96433,21.079930067062378
1618824615.13991,-81.94283,21.09556007385254
1618824615.15553,-79.01886,21.111180067062378
1618824615.17116,-75.2043,21.12681007385254
1618824615.18678,-72.79395,21.142430067062378
1618824615.20241,-73.42078,21.15806007385254
1618824615.21804,-77.53124,21.1736900806427
1618824615.23366,-84.17034,21.18931007385254
1618824615.24929,-91.12145,21.2049400806427
1618824615.26491,-95.56871,21.22056007385254
1618824615.28054,-94.78761,21.2361900806427
1618824615.29616,-87.00993,21.25181007385254
1618824615.31179,-71.51817,21.2674400806427
1618824615.32742,-49.31404,21.28307008743286
1618824615.34304,-22.82258,21.2986900806427
1618824615.35867,4.970459,21.31432008743286
1618824615.37429,31.5567,21.3299400806427
1618824615.38992,55.55103,21.34557008743286
1618824615.40555,76.63451,21.361200094223022
1618824615.42117,94.92,21.37682008743286
1618824615.4368,110.3546,21.392450094223022
1618824615.45242,122.3414,21.40807008743286
1618824615.46805,129.8563,21.423700094223022
1618824615.48367,132.0673,21.43932008743286
1618824615.4993,128.8402,21.454950094223022
1618824615.51493,120.9018,21.470580101013184
1618824615.53055,109.6353,21.486200094223022
1618824615.54618,96.80467,21.501830101013184
1618824615.5618,84.40929,21.517450094223022
1618824615.57743,74.54504,21.533080101013184
1618824615.59305,69.10176,21.548700094223022
1618824615.60868,69.14771,21.564330101013184
1618824615.62431,74.50505,21.579960107803345
1618824615.63993,83.67041,21.595580101013184
1618824615.65556,94.26932,21.611210107803345
1618824615.67118,103.8637,21.626830101013184
1618824615.68681,110.7379,21.642460107803345
1618824615.70243,114.2157,21.658080101013184
1618824615.71806,114.4956,21.673710107803345
1618824615.73369,112.2412,21.689340114593506
1618824615.74931,108.1863,21.704960107803345
1618824615.76494,103.0713,21.720590114593506
1618824615.78056,97.66281,21.736210107803345
1618824615.79619,92.64149,21.751840114593506
1618824615.81181,88.231,21.767460107803345
1618824615.82744,83.83804,21.783090114593506
1618824615.84307,77.93022,21.798720121383667
1618824615.85869,68.47527,21.814340114593506
1618824615.87432,53.80397,21.829970121383667
1618824615.88994,33.45189,21.845590114593506
1618824615.90557,8.568527,21.861220121383667
1618824615.92119,-18.3882,21.876840114593506
1618824615.93682,-44.45175,21.892470121383667
1618824615.95245,-67.02441,21.908100128173828
1618824615.96807,-84.53645,21.923720121383667
1618824615.9837,-96.65196,21.939350128173828
1618824615.99932,-104.0763,21.954970121383667
1618824616.01495,-108.1353,21.970600128173828
1618824616.03057,-110.3825,21.986220121383667
1618824616.0462,-112.2421,22.001850128173828
1618824616.06183,-114.7555,22.01748013496399
1618824616.07745,-118.3263,22.033100128173828
1618824616.09308,-122.4814,22.04873013496399
1618824616.1087,-125.8367,22.064350128173828
1618824616.12433,-126.326,22.07998013496399
1618824616.13995,-121.8137,22.095600128173828
1618824616.15558,-110.856,22.11123013496399
1618824616.17121,-93.37548,22.12686014175415
1618824616.18683,-70.88714,22.14248013496399
1618824616.20246,-46.13822,22.15811014175415
1618824616.21808,-22.26201,22.17373013496399
1618824616.23371,-1.818863,22.18936014175415
1618824616.24933,13.84229,22.20498013496399
1618824616.26496,24.68328,22.22061014175415
1618824616.28059,31.5792,22.23624014854431
1618824616.29621,35.72657,22.25186014175415
1618824616.31184,38.07497,22.26749014854431
1618824616.32746,39.09708,22.28311014175415
1618824616.34309,38.86431,22.29874014854431
1618824616.35871,37.31747,22.31436014175415
1618824616.37434,34.54224,22.32999014854431
1618824616.38997,30.9053,22.345620155334473
1618824616.40559,27.00023,22.36124014854431
1618824616.42122,23.53016,22.376870155334473
1618824616.43684,21.09937,22.39249014854431
1618824616.45247,20.05631,22.408120155334473
1618824616.46809,20.44376,22.42374014854431
1618824616.48372,22.05225,22.439370155334473
1618824616.49935,24.56805,22.455000162124634
1618824616.51497,27.76517,22.470620155334473
1618824616.5306,31.53928,22.486250162124634
1618824616.54622,35.83891,22.501870155334473
1618824616.56185,40.49261,22.517500162124634
1618824616.57747,44.99604,22.533120155334473
1618824616.5931,48.50244,22.548750162124634
1618824616.60873,50.01158,22.564380168914795
1618824616.62435,48.72566,22.580000162124634
1618824616.63998,44.37439,22.595630168914795
1618824616.6556,37.35457,22.611250162124634
1618824616.67123,28.51022,22.626880168914795
1618824616.68685,18.78696,22.642500162124634
1618824616.70248,8.87355,22.658130168914795
1618824616.71811,-0.9559174,22.673760175704956
1618824616.73373,-10.71867,22.689380168914795
1618824616.74936,-20.45646,22.705010175704956
1618824616.76498,-30.00696,22.720630168914795
1618824616.78061,-39.01762,22.736260175704956
1618824616.79623,-47.1104,22.751880168914795
1618824616.81186,-54.16446,22.767510175704956
1618824616.82749,-60.37351,22.783140182495117
1618824616.84311,-66.03934,22.798760175704956
1618824616.85874,-71.13597,22.814390182495117
1618824616.87436,-74.94621,22.830010175704956
1618824616.88999,-76.04515,22.845640182495117
1618824616.90561,-72.71725,22.861260175704956
1618824616.92124,-63.70881,22.876890182495117
1618824616.93687,-48.83313,22.89252018928528
1618824616.95249,-29.21446,22.908140182495117
1618824616.96812,-6.983047,22.92377018928528
1618824616.98374,15.3864,22.939390182495117
1618824616.99937,35.71689,22.95502018928528
1618824617.01499,52.49386,22.970640182495117
1618824617.03062,64.89281,22.98627018928528
1618824617.04625,72.55215,23.00190019607544
1618824617.06187,75.36302,23.01752018928528
1618824617.0775,73.40242,23.03315019607544
1618824617.09312,67.01116,23.04877018928528
1618824617.10875,56.8774,23.06440019607544
1618824617.12437,43.98468,23.08002018928528
1618824617.14,29.47981,23.09565019607544
1618824617.15563,14.47298,23.1112802028656
1618824617.17125,-0.07830238,23.12690019607544
1618824617.18688,-13.3914,23.1425302028656
1618824617.2025,-24.81653,23.15815019607544
1618824617.21813,-33.7866,23.1737802028656
1618824617.23375,-39.87122,23.18940019607544
1618824617.24938,-42.9042,23.2050302028656
1618824617.26501,-43.16602,23.22066020965576
1618824617.28063,-41.42702,23.2362802028656
1618824617.29626,-38.78844,23.25191020965576
1618824617.31188,-36.37003,23.2675302028656
1618824617.32751,-34.90276,23.28316020965576
1618824617.34313,-34.52994,23.2987802028656
1618824617.35876,-34.87122,23.31441020965576
1618824617.37439,-35.35027,23.330039978027344
1618824617.39001,-35.59241,23.34566020965576
1618824617.40564,-35.65662,23.361289978027344
1618824617.42126,-35.97612,23.37691020965576
1618824617.43689,-37.04002,23.392539978027344
1618824617.45251,-39.05383,23.40816020965576
1618824617.46814,-41.8079,23.423789978027344
1618824617.48377,-44.80112,23.439419984817505
1618824617.49939,-47.54288,23.455039978027344
1618824617.51502,-49.83502,23.470669984817505
1618824617.53064,-51.84539,23.486289978027344
1618824617.54627,-54.04334,23.501919984817505
1618824617.56189,-56.97149,23.517539978027344
1618824617.57752,-61.06728,23.533169984817505
1618824617.59315,-66.44174,23.548799991607666
1618824617.60877,-72.70625,23.564419984817505
1618824617.6244,-78.85759,23.580049991607666
1618824617.64002,-83.3101,23.595669984817505
1618824617.65565,-84.17001,23.611299991607666
1618824617.67128,-79.75592,23.626929998397827
1618824617.6869,-69.18976,23.642549991607666
1618824617.70253,-52.78829,23.658179998397827
1618824617.71815,-32.08982,23.673799991607666
1618824617.73378,-9.428391,23.689429998397827
1618824617.7494,12.73934,23.705049991607666
1618824617.76503,32.43789,23.720679998397827
1618824617.78066,48.51089,23.73631000518799
1618824617.79628,60.62277,23.751929998397827
1618824617.81191,68.99527,23.76756000518799
1618824617.82753,74.10228,23.783179998397827
1618824617.84316,76.47308,23.79881000518799
1618824617.85878,76.61843,23.814429998397827
1618824617.87441,75.0427,23.83006000518799
1618824617.89004,72.28754,23.84569001197815
1618824617.90566,68.89655,23.86131000518799
1618824617.92129,65.32903,23.87694001197815
1618824617.93691,61.88224,23.89256000518799
1618824617.95254,58.65904,23.90819001197815
1618824617.96816,55.65525,23.92381000518799
1618824617.98379,52.82316,23.93944001197815
1618824617.99942,50.20953,23.95507001876831
1618824618.01504,47.93494,23.97069001197815
1618824618.03067,46.14354,23.98632001876831
1618824618.04629,44.84078,24.00194001197815
1618824618.06192,43.84992,24.01757001876831
1618824618.07754,42.81841,24.03319001197815
1618824618.09317,41.35059,24.04882001876831
1618824618.1088,39.15921,24.06445002555847
1618824618.12442,36.14506,24.08007001876831
1618824618.14005,32.37527,24.09570002555847
1618824618.15567,27.94879,24.11132001876831
1618824618.1713,22.8853,24.12695002555847
1618824618.18692,17.09561,24.14257001876831
1618824618.20255,10.50127,24.15820002555847
1618824618.21818,3.167603,24.173830032348633
1618824618.2338,-4.617645,24.18945002555847
1618824618.24943,-12.36801,24.205080032348633
1618824618.26505,-19.55311,24.22070002555847
1618824618.28068,-25.7524,24.236330032348633
1618824618.2963,-30.88013,24.25195002555847
1618824618.31193,-35.22177,24.267580032348633
1618824618.32756,-39.3989,24.283210039138794
1618824618.34318,-44.15878,24.298830032348633
1618824618.35881,-50.14739,24.314460039138794
1618824618.37443,-57.67287,24.330080032348633
1618824618.39006,-66.44142,24.345710039138794
1618824618.40568,-75.42181,24.361330032348633
1618824618.42131,-82.79507,24.376960039138794
1618824618.43694,-86.42427,24.392590045928955
1618824618.45256,-84.40733,24.408210039138794
1618824618.46819,-75.74307,24.423840045928955
1618824618.48381,-60.72324,24.439460039138794
1618824618.49944,-40.96587,24.455090045928955
1618824618.51506,-18.94759,24.470710039138794
1618824618.53069,2.708679,24.486340045928955
1618824618.54632,21.95486,24.501970052719116
1618824618.56194,37.84169,24.517590045928955
1618824618.57757,50.23282,24.533220052719116
1618824618.59319,59.40985,24.548840045928955
1618824618.60882,65.69838,24.564470052719116
1618824618.62444,69.39444,24.580090045928955
1618824618.64007,70.84071,24.595720052719116
1618824618.6557,70.52196,24.611350059509277
1618824618.67132,69.0751,24.626970052719116
1618824618.68695,67.2162,24.642600059509277
1618824618.70257,65.84764,24.658220052719116
1618824618.7182,65.44215,24.673850059509277
1618824618.73382,65.84186,24.689470052719116
1618824618.74945,66.42973,24.705100059509277
1618824618.76508,66.59306,24.72073006629944
1618824618.7807,66.05878,24.736350059509277
1618824618.79633,64.99931,24.75198006629944
1618824618.81195,63.93571,24.767600059509277
1618824618.82758,63.53208,24.78323006629944
1618824618.8432,64.78923,24.798850059509277
1618824618.85883,68.00283,24.81448006629944
1618824618.87446,72.43057,24.8301100730896
1618824618.89008,76.52362,24.84573006629944
1618824618.90571,78.74715,24.8613600730896
1618824618.92133,78.25713,24.87698006629944
1618824618.93696,75.08296,24.8926100730896
1618824618.95258,69.98031,24.90823006629944
1618824618.96821,64.01245,24.9238600730896
1618824618.98384,58.74154,24.93949007987976
1618824618.99946,54.91577,24.9551100730896
1618824619.01509,52.24,24.97074007987976
1618824619.03071,49.70258,24.9863600730896
1618824619.04634,46.35653,25.00199007987976
1618824619.06196,41.56543,25.0176100730896
1618824619.07759,34.7339,25.03324007987976
1618824619.09322,24.97043,25.048870086669922
1618824619.10884,7.596581,25.06449007987976
1618824619.12447,-18.38323,25.080120086669922
1618824619.14009,-49.12752,25.09574007987976
1618824619.15572,-77.62965,25.111370086669922
1618824619.17134,-98.18046,25.12699007987976
1618824619.18697,-108.6712,25.142620086669922
1618824619.2026,-110.1995,25.158250093460083
1618824619.21822,-105.4426,25.173870086669922
1618824619.23385,-97.34018,25.189500093460083
1618824619.24947,-88.08695,25.205120086669922
1618824619.2651,-78.16324,25.220750093460083
1618824619.28072,-67.65839,25.236370086669922
1618824619.29635,-57.15168,25.252000093460083
1618824619.31198,-48.09553,25.267630100250244
1618824619.3276,-42.0435,25.283250093460083
1618824619.34323,-39.99652,25.298880100250244
1618824619.35885,-41.61952,25.314500093460083
1618824619.37448,-45.46713,25.330130100250244
1618824619.3901,-49.42915,25.345750093460083
1618824619.40573,-51.06547,25.361380100250244
1618824619.42136,-49.11811,25.377010107040405
1618824619.43698,-44.07442,25.392630100250244
1618824619.45261,-37.97362,25.408260107040405
1618824619.46823,-33.11357,25.423880100250244
1618824619.48386,-31.12923,25.439510107040405
1618824619.49948,-31.91756,25.455130100250244
1618824619.51511,-34.04141,25.470760107040405
1618824619.53074,-35.41523,25.486390113830566
1618824619.54636,-34.09778,25.502010107040405
1618824619.56199,-29.85782,25.517640113830566
1618824619.57761,-23.33891,25.533260107040405
1618824619.59324,-16.68792,25.548890113830566
1618824619.60886,-12.24134,25.564510107040405
1618824619.62449,-11.93245,25.580140113830566
1618824619.64012,-16.41272,25.595770120620728
1618824619.65574,-25.55822,25.611390113830566
1618824619.67137,-38.43781,25.627020120620728
1618824619.68699,-52.85538,25.642640113830566
1618824619.70262,-65.30247,25.658270120620728
1618824619.71824,-71.44701,25.673890113830566
1618824619.73387,-67.73642,25.689520120620728
1618824619.7495,-51.50946,25.70515012741089
1618824619.76512,-26.73231,25.720770120620728
1618824619.78075,-0.4353619,25.73640012741089
1618824619.79637,19.78127,25.752020120620728
1618824619.812,29.02718,25.76765012741089
1618824619.82762,27.15311,25.783270120620728
1618824619.84325,18.23062,25.79890012741089
1618824619.85888,8.007266,25.81453013420105
1618824619.8745,0.7702265,25.83015012741089
1618824619.89013,-2.271725,25.84578013420105
1618824619.90575,-2.835775,25.86140012741089
1618824619.92138,-3.003188,25.87703013420105
1618824619.93701,-3.764901,25.89266014099121
1618824619.95263,-4.503305,25.90828013420105
1618824619.96826,-3.705731,25.92391014099121
1618824619.98388,-0.5859194,25.93953013420105
1618824619.99951,4.191187,25.95516014099121
1618824620.01513,8.797821,25.97078013420105
1618824620.03076,11.16048,25.98641014099121
1618824620.04639,9.664107,26.002040147781372
1618824620.06201,4.413962,26.01766014099121
1618824620.07764,-3.112288,26.033290147781372
1618824620.09326,-10.54392,26.04891014099121
1618824620.10889,-15.48461,26.064540147781372
1618824620.12451,-16.15961,26.08016014099121
1618824620.14014,-11.88669,26.095790147781372
1618824620.15577,-3.089415,26.111420154571533
1618824620.17139,8.733717,26.127040147781372
1618824620.18702,21.37583,26.142670154571533
1618824620.20264,32.84836,26.158290147781372
1618824620.21827,41.66606,26.173920154571533
1618824620.23389,46.9675,26.189540147781372
1618824620.24952,48.52328,26.205170154571533
1618824620.26515,46.48817,26.220800161361694
1618824620.28077,41.27416,26.236420154571533
1618824620.2964,33.57368,26.252050161361694
1618824620.31202,24.1485,26.267670154571533
1618824620.32765,13.79093,26.283300161361694
1618824620.34327,3.499725,26.298920154571533
1618824620.3589,-5.75367,26.314550161361694
1618824620.37453,-13.20189,26.330180168151855
1618824620.39015,-18.41008,26.345800161361694
1618824620.40578,-21.27763,26.361430168151855
1618824620.4214,-22.91348,26.377050161361694
1618824620.43703,-23.87178,26.392680168151855
1618824620.45265,-24.4893,26.408300161361694
1618824620.46828,-24.83801,26.423930168151855
1618824620.48391,-24.68927,26.439560174942017
1618824620.49953,-23.67944,26.455180168151855
1618824620.51516,-21.49596,26.470810174942017
1618824620.53078,-18.06851,26.486430168151855
1618824620.54641,-13.65224,26.502060174942017
1618824620.56203,-8.788933,26.517680168151855
1618824620.57766,-4.044563,26.533310174942017
1618824620.59329,-0.04212952,26.548940181732178
1618824620.60891,2.740715,26.564560174942017
1618824620.62454,4.104858,26.580190181732178
1618824620.64016,4.143204,26.595810174942017
1618824620.65579,3.178825,26.611440181732178
1618824620.67141,1.609055,26.627060174942017
1618824620.68704,-0.22966,26.642690181732178
1618824620.70267,-2.178268,26.65832018852234
1618824620.71829,-4.120026,26.673940181732178
1618824620.73392,-6.113182,26.68957018852234
1618824620.74954,-8.259445,26.705190181732178
1618824620.76517,-10.62712,26.72082018852234
1618824620.78079,-13.26629,26.736440181732178
1618824620.79642,-16.21354,26.75207018852234
1618824620.81205,-19.57912,26.7677001953125
1618824620.82767,-23.45924,26.78332018852234
1618824620.8433,-27.90521,26.7989501953125
1618824620.85892,-32.76643,26.81457018852234
1618824620.87455,-37.75858,26.8302001953125
1618824620.89017,-42.53076,26.84582018852234
1618824620.9058,-46.76566,26.8614501953125
1618824620.92143,-50.28616,26.87708020210266
1618824620.93705,-53.16513,26.8927001953125
1618824620.95268,-55.75208,26.90833020210266
1618824620.9683,-58.61015,26.9239501953125
1618824620.98393,-62.4057,26.93958020210266
1618824620.99955,-67.67419,26.9552001953125
1618824621.01518,-74.55675,26.97083020210266
1618824621.03081,-82.51851,26.986460208892822
1618824621.04643,-90.224,27.00208020210266
1618824621.06206,-95.67715,27.017710208892822
1618824621.07768,-96.68869,27.03333020210266
1618824621.09331,-91.57251,27.048960208892822
1618824621.10893,-79.69479,27.06458020210266
1618824621.12456,-61.7823,27.080210208892822
1618824621.14019,-39.70615,27.095839977264404
1618824621.15581,-15.94238,27.111460208892822
1618824621.17144,7.108765,27.127089977264404
1618824621.18706,27.66528,27.142710208892822
1618824621.20269,44.76112,27.158339977264404
1618824621.21831,58.15955,27.173960208892822
1618824621.23394,68.04001,27.189589977264404
1618824621.24957,74.77144,27.205219984054565
1618824621.26519,78.74774,27.220839977264404
1618824621.28082,80.35498,27.236469984054565
1618824621.29644,80.02585,27.252089977264404
1618824621.31207,78.24579,27.267719984054565
1618824621.32769,75.51645,27.283339977264404
1618824621.34332,72.30597,27.298969984054565
1618824621.35895,68.99823,27.314599990844727
1618824621.37457,65.88809,27.330219984054565
1618824621.3902,63.19757,27.345849990844727
1618824621.40582,61.05692,27.361469984054565
1618824621.42145,59.5466,27.377099990844727
1618824621.43707,58.6644,27.392719984054565
1618824621.4527,58.33246,27.408349990844727
1618824621.46833,58.41525,27.423979997634888
1618824621.48395,58.72141,27.439599990844727
1618824621.49958,59.01181,27.455229997634888
1618824621.5152,59.00882,27.470849990844727
1618824621.53083,58.43311,27.486479997634888
1618824621.54645,57.02481,27.502099990844727
1618824621.56208,54.61548,27.517729997634888
1618824621.57771,51.16507,27.53336000442505
1618824621.59333,46.81122,27.548979997634888
1618824621.60896,41.82983,27.56461000442505
1618824621.62458,36.55237,27.580229997634888
1618824621.64021,31.2536,27.59586000442505
1618824621.65583,26.07434,27.611479997634888
1618824621.67146,20.97745,27.62711000442505
1618824621.68709,15.84143,27.64274001121521
1618824621.70271,10.54504,27.65836000442505
1618824621.71834,5.005066,27.67399001121521
1618824621.73396,-0.7853394,27.68961000442505
1618824621.74959,-6.777649,27.70524001121521
1618824621.76521,-12.91013,27.72086000442505
1618824621.78084,-19.07626,27.73649001121521
1618824621.79647,-25.14645,27.75212001800537
1618824621.81209,-30.94226,27.76774001121521
1618824621.82772,-36.26514,27.78337001800537
1618824621.84334,-40.98355,27.79899001121521
1618824621.85897,-45.09625,27.81462001800537
1618824621.87459,-48.80652,27.83024001121521
1618824621.89022,-52.51849,27.84587001800537
1618824621.90585,-56.80228,27.861500024795532
1618824621.92147,-62.22446,27.87712001800537
1618824621.9371,-69.08899,27.892750024795532
1618824621.95272,-77.18921,27.90837001800537
1618824621.96835,-85.55356,27.924000024795532
1618824621.98397,-92.45767,27.93962001800537
1618824621.9996,-95.74451,27.955250024795532
1618824622.01523,-93.38623,27.970880031585693
1618824622.03085,-84.18741,27.986500024795532
1618824622.04648,-68.27744,28.002130031585693
1618824622.0621,-47.1691,28.017750024795532
1618824622.07773,-23.34915,28.033380031585693
1618824622.09335,0.4351807,28.049000024795532
1618824622.10898,21.90341,28.064630031585693
1618824622.12461,39.65277,28.080260038375854
1618824622.14023,53.22266,28.095880031585693
1618824622.15586,62.81223,28.111510038375854
1618824622.17148,68.92477,28.127130031585693
1618824622.18711,72.10266,28.142760038375854
1618824622.20273,72.85675,28.158380031585693
1618824622.21836,71.70093,28.174010038375854
1618824622.23399,69.2247,28.189640045166016
1618824622.24961,66.06058,28.205260038375854
1618824622.26524,62.77692,28.220890045166016
1618824622.28086,59.74182,28.236510038375854
1618824622.29649,57.09222,28.252140045166016
1618824622.31211,54.79144,28.267760038375854
1618824622.32774,52.81903,28.283390045166016
1618824622.34337,51.27548,28.299020051956177
1618824622.35899,50.42972,28.314640045166016
1618824622.37462,50.56964,28.330270051956177
1618824622.39024,51.80713,28.345890045166016
1618824622.40587,53.93112,28.361520051956177
1618824622.42149,56.37674,28.377140045166016
1618824622.43712,58.39224,28.392770051956177
1618824622.45275,59.27087,28.408400058746338
1618824622.46837,58.6102,28.424020051956177
1618824622.484,56.40222,28.439650058746338
1618824622.49962,52.98456,28.455270051956177
1618824622.51525,48.87122,28.470900058746338
1618824622.53088,44.5336,28.4865300655365
1618824622.5465,40.22754,28.502150058746338
1618824622.56213,35.9462,28.5177800655365
1618824622.57775,31.50357,28.533400058746338
1618824622.59338,26.69424,28.5490300655365
1618824622.609,21.42142,28.564650058746338
1618824622.62463,15.78384,28.5802800655365
1618824622.64026,10.03473,28.59591007232666
1618824622.65588,4.457336,28.6115300655365
1618824622.67151,-0.7776489,28.62716007232666
1618824622.68713,-5.685425,28.6427800655365
1618824622.70276,-10.47656,28.65841007232666
1618824622.71838,-15.41959,28.6740300655365
1618824622.73401,-20.71429,28.68966007232666
1618824622.74964,-26.34933,28.70529007911682
1618824622.76526,-32.10672,28.72091007232666
1618824622.78089,-37.65988,28.73654007911682
1618824622.79651,-42.74548,28.75216007232666
1618824622.81214,-47.29776,28.76779007911682
1618824622.82776,-51.48596,28.78341007232666
1618824622.84339,-55.70718,28.79904007911682
1618824622.85902,-60.4292,28.814670085906982
1618824622.87464,-66.04575,28.83029007911682
1618824622.89027,-72.72723,28.845920085906982
1618824622.90589,-80.19348,28.86154007911682
1618824622.92152,-87.6015,28.877170085906982
1618824622.93714,-93.53571,28.89279007911682
1618824622.95277,-96.22797,28.908420085906982
1618824622.9684,-93.98184,28.924050092697144
1618824622.98402,-85.73157,28.939670085906982
1618824622.99965,-71.45532,28.955300092697144
1618824623.01527,-52.31812,28.970920085906982
1618824623.0309,-30.39835,28.986550092697144
1618824623.04652,-8.099518,29.002170085906982
1618824623.06215,12.43698,29.017800092697144
1618824623.07778,29.77878,29.033430099487305
1618824623.0934,43.32669,29.049050092697144
1618824623.10903,53.13397,29.064680099487305
1618824623.12465,59.65256,29.080300092697144
1618824623.14028,63.46014,29.095930099487305
1618824623.1559,65.10538,29.111550092697144
1618824623.17153,65.03879,29.127180099487305
1618824623.18716,63.65518,29.142810106277466
1618824623.20278,61.28253,29.158430099487305
1618824623.21841,58.23038,29.174060106277466
1618824623.23403,54.81955,29.189680099487305
1618824623.24966,51.35785,29.205310106277466
1618824623.26528,48.15378,29.220930099487305
1618824623.28091,45.47357,29.236560106277466
1618824623.29654,43.49576,29.252190113067627
1618824623.31216,42.31097,29.267810106277466
1618824623.32779,41.92419,29.283440113067627
1618824623.34341,42.21619,29.299060106277466
1618824623.35904,42.96622,29.314690113067627
1618824623.37466,43.86121,29.330310106277466
1618824623.39029,44.50925,29.345940113067627
1618824623.40592,44.53085,29.361570119857788
1618824623.42154,43.65463,29.377190113067627
1618824623.43717,41.79755,29.392820119857788
1618824623.45279,39.09454,29.408440113067627
1618824623.46842,35.85117,29.424070119857788
1618824623.48404,32.38452,29.439690113067627
1618824623.49967,28.92004,29.455320119857788
1618824623.5153,25.51221,29.47095012664795
1618824623.53092,22.04346,29.486570119857788
1618824623.54655,18.35153,29.50220012664795
1618824623.56217,14.31418,29.517820119857788
1618824623.5778,9.912842,29.53345012664795
1618824623.59342,5.263031,29.549070119857788
1618824623.60905,0.5028381,29.56470012664795
1618824623.62468,-4.271362,29.58033013343811
1618824623.6403,-9.036133,29.59595012664795
1618824623.65593,-13.8418,29.61158013343811
1618824623.67155,-18.76385,29.62720012664795
1618824623.68718,-23.80328,29.64283013343811
1618824623.7028,-28.8566,29.65845012664795
1618824623.71843,-33.74481,29.67408013343811
1618824623.73406,-38.25656,29.68971014022827
1618824623.74968,-42.2634,29.70533013343811
1618824623.76531,-45.81042,29.72096014022827
1618824623.78093,-49.10211,29.73658013343811
1618824623.79656,-52.50772,29.75221014022827
1618824623.81218,-56.4595,29.76783013343811
1618824623.82781,-61.30206,29.78346014022827
1618824623.84344,-67.11578,29.799090147018433
1618824623.85906,-73.53912,29.81471014022827
1618824623.87469,-79.61896,29.830340147018433
1618824623.89031,-83.86438,29.84596014022827
1618824623.90594,-84.54379,29.861590147018433
1618824623.92156,-80.15472,29.87721014022827
1618824623.93719,-69.98038,29.892840147018433
1618824623.95282,-54.4505,29.908470153808594
1618824623.96844,-35.13702,29.924090147018433
1618824623.98407,-14.34302,29.939720153808594
1618824623.99969,5.536285,29.955340147018433
1618824624.01532,22.63507,29.970970153808594
1618824624.03094,35.95901,29.986590147018433
1618824624.04657,45.38266,30.002220153808594
1618824624.0622,51.37387,30.017850160598755
1618824624.07782,54.63214,30.033470153808594
1618824624.09345,55.81729,30.049100160598755
1618824624.10907,55.46866,30.064720153808594
1618824624.1247,54.00958,30.080350160598755
1618824624.14032,51.78198,30.095970153808594
1618824624.15595,49.09653,30.111600160598755
1618824624.17158,46.19519,30.127230167388916
1618824624.1872,43.24991,30.142850160598755
1618824624.20283,40.37766,30.158480167388916
1618824624.21845,37.68112,30.174100160598755
1618824624.23408,35.26584,30.189730167388916
1618824624.2497,33.29922,30.205350160598755
1618824624.26533,31.94931,30.220980167388916
1618824624.28096,31.33804,30.236610174179077
1618824624.29658,31.45761,30.252230167388916
1618824624.31221,32.12476,30.267860174179077
1618824624.32783,32.99365,30.283480167388916
1618824624.34346,33.64603,30.299110174179077
1618824624.35908,33.70471,30.314730167388916
1618824624.37471,32.92535,30.330360174179077
1618824624.39034,31.2442,30.34599018096924
1618824624.40596,28.79083,30.361610174179077
1618824624.42159,25.78586,30.37724018096924
1618824624.43721,22.48486,30.392860174179077
1618824624.45284,19.05313,30.40849018096924
1618824624.46846,15.54379,30.424110174179077
1618824624.48409,11.89334,30.43974018096924
1618824624.49972,8.007751,30.4553701877594
1618824624.51534,3.829956,30.47099018096924
1618824624.53097,-0.6183167,30.4866201877594
1618824624.54659,-5.219574,30.50224018096924
1618824624.56222,-9.829926,30.5178701877594
1618824624.57784,-14.31366,30.53349018096924
1618824624.59347,-18.61865,30.5491201877594
1618824624.6091,-22.76596,30.56475019454956
1618824624.62472,-26.79877,30.5803701877594
1618824624.64035,-30.74521,30.59600019454956
1618824624.65597,-34.57547,30.6116201877594
1618824624.6716,-38.22711,30.62725019454956
1618824624.68722,-41.63998,30.6428701877594
1618824624.70285,-44.88159,30.65850019454956
1618824624.71848,-48.13269,30.67413020133972
1618824624.7341,-51.72244,30.68975019454956
1618824624.74973,-55.98874,30.70538020133972
1618824624.76535,-61.14688,30.72100019454956
1618824624.78098,-67.07535,30.73663020133972
1618824624.79661,-73.16275,30.752260208129883
1618824624.81223,-78.30728,30.76788020133972
1618824624.82786,-81.04205,30.783510208129883
1618824624.84348,-79.92645,30.79913020133972
1618824624.85911,-73.96237,30.814760208129883
1618824624.87473,-62.9556,30.83038020133972
1618824624.89036,-47.68137,30.846010208129883
1618824624.90599,-29.71945,30.861639976501465
1618824624.92161,-11.0715,30.877260208129883
1618824624.93724,6.384613,30.892889976501465
1618824624.95286,21.27744,30.908510208129883
1618824624.96849,32.96313,30.924139976501465
1618824624.98411,41.40207,30.939760208129883
1618824624.99974,46.91428,30.955389976501465
1618824625.01537,49.93451,30.971019983291626
1618824625.03099,50.86133,30.986639976501465
1618824625.04662,50.07336,31.002269983291626
1618824625.06224,47.96182,31.017889976501465
1618824625.07787,45.00256,31.033519983291626
1618824625.09349,41.65933,31.049139976501465
1618824625.10912,38.31995,31.064769983291626
1618824625.12475,35.22702,31.080399990081787
1618824625.14037,32.48676,31.096019983291626
1618824625.156,30.15793,31.111649990081787
1618824625.17162,28.30762,31.127269983291626
1618824625.18725,27.05539,31.142899990081787
1618824625.20287,26.50342,31.158519983291626
1618824625.2185,26.66443,31.174149990081787
1618824625.23413,27.38388,31.18977999687195
1618824625.24975,28.36932,31.205399990081787
1618824625.26538,29.24571,31.22102999687195
1618824625.281,29.66199,31.236649990081787
1618824625.29663,29.37199,31.25227999687195
1618824625.31225,28.23572,31.267899990081787
1618824625.32788,26.25194,31.28352999687195
1618824625.34351,23.51755,31.29916000366211
1618824625.35913,20.20068,31.31477999687195
1618824625.37476,16.51147,31.33041000366211
1618824625.39038,12.6628,31.34602999687195
1618824625.40601,8.861038,31.36166000366211
1618824625.42163,5.265976,31.37727999687195
1618824625.43726,1.952789,31.39291000366211
1618824625.45289,-1.096848,31.40854001045227
1618824625.46851,-4.018112,31.42416000366211
1618824625.48414,-7.031082,31.43979001045227
1618824625.49976,-10.38992,31.45541000366211
1618824625.51539,-14.30281,31.47104001045227
1618824625.53101,-18.83192,31.48666000366211
1618824625.54664,-23.87875,31.50229001045227
1618824625.56227,-29.16846,31.51792001724243
1618824625.57789,-34.3204,31.53354001045227
1618824625.59352,-38.9646,31.54917001724243
1618824625.60914,-42.86668,31.56479001045227
1618824625.62477,-45.98045,31.58042001724243
1618824625.64039,-48.53062,31.59604001045227
1618824625.65602,-50.94791,31.61167001724243
1618824625.67165,-53.80504,31.627300024032593
1618824625.68727,-57.66049,31.64292001724243
1618824625.7029,-62.80702,31.658550024032593
1618824625.71852,-69.01894,31.67417001724243
1618824625.73415,-75.3544,31.689800024032593
1618824625.74977,-80.22101,31.70542001724243
1618824625.7654,-81.73305,31.721050024032593
1618824625.78103,-78.30743,31.736680030822754
1618824625.79665,-69.2063,31.752300024032593
1618824625.81228,-54.89874,31.767930030822754
1618824625.8279,-36.95056,31.783550024032593
1618824625.84353,-17.5739,31.799180030822754
1618824625.85915,1.019974,31.814800024032593
1618824625.87478,17.16986,31.830430030822754
1618824625.89041,30.02438,31.846060037612915
1618824625.90603,39.48541,31.861680030822754
1618824625.92166,45.92551,31.877310037612915
1618824625.93728,49.8866,31.892930030822754
1618824625.95291,51.85408,31.908560037612915
1618824625.96853,52.19057,31.924180030822754
1618824625.98416,51.16267,31.939810037612915
1618824625.99979,49.02866,31.955440044403076
1618824626.01541,46.10982,31.971060037612915
1618824626.03104,42.81805,31.986690044403076
1618824626.04666,39.60103,32.002310037612915
1618824626.06229,36.85399,32.017940044403076
1618824626.07791,34.8031,32.033560037612915
1618824626.09354,33.43251,32.049190044403076
1618824626.10917,32.51297,32.06482005119324
1618824626.12479,31.74403,32.080440044403076
1618824626.14042,30.92068,32.09607005119324
1618824626.15604,30.02179,32.111690044403076
1618824626.17167,29.18173,32.12732005119324
1618824626.18729,28.56647,32.142940044403076
1618824626.20292,28.23344,32.15857005119324
1618824626.21855,28.00697,32.1742000579834
1618824626.23417,27.51273,32.18982005119324
1618824626.2498,26.29672,32.2054500579834
1618824626.26542,23.97221,32.22107005119324
1618824626.28105,20.36209,32.2367000579834
1618824626.29667,15.61566,32.25232005119324
1618824626.3123,10.10106,32.2679500579834
1618824626.32793,4.321609,32.28358006477356
1618824626.34355,-1.260437,32.2992000579834
1618824626.35918,-6.387909,32.31483006477356
1618824626.3748,-11.05125,32.3304500579834
1618824626.39043,-15.45152,32.34608006477356
1618824626.40605,-19.93893,32.3617000579834
1618824626.42168,-24.86636,32.37733006477356
1618824626.43731,-30.50072,32.39296007156372
1618824626.45293,-37.02032,32.40858006477356
1618824626.46856,-44.41327,32.42421007156372
1618824626.48418,-52.42198,32.43983006477356
1618824626.49981,-60.40297,32.45546007156372
1618824626.51543,-67.29494,32.47108006477356
1618824626.53106,-71.86964,32.48671007156372
1618824626.54669,-73.16016,32.50234007835388
1618824626.56231,-70.94341,32.51796007156372
1618824626.57794,-65.96594,32.53359007835388
1618824626.59356,-59.73337,32.54921007156372
1618824626.60919,-53.83824,32.56484007835388
1618824626.62481,-49.22597,32.58046007156372
1618824626.64044,-45.68193,32.59609007835388
1618824626.65607,-41.88194,32.61172008514404
1618824626.67169,-36.0442,32.62734007835388
1618824626.68732,-26.79936,32.64297008514404
1618824626.70294,-13.84825,32.65859007835388
1618824626.71857,1.840195,32.67422008514404
1618824626.73419,18.4525,32.68984007835388
1618824626.74982,34.1044,32.70547008514404
1618824626.76545,47.48947,32.721100091934204
1618824626.78107,58.17245,32.73672008514404
1618824626.7967,66.51482,32.752350091934204
1618824626.81232,73.12703,32.76797008514404
1618824626.82795,78.43742,32.783600091934204
1618824626.84357,82.46002,32.79922008514404
1618824626.8592,84.89101,32.814850091934204
1618824626.87483,85.39346,32.830480098724365
1618824626.89045,83.97342,32.846100091934204
1618824626.90608,81.01199,32.861730098724365
1618824626.9217,77.11349,32.877350091934204
1618824626.93733,72.85072,32.892980098724365
1618824626.95296,68.50477,32.908610105514526
1618824626.96858,64.0555,32.924230098724365
1618824626.98421,59.33836,32.939860105514526
1618824626.99983,54.26408,32.955480098724365
1618824627.01546,49.03116,32.971110105514526
1618824627.03108,44.08891,32.986730098724365
1618824627.04671,40.0022,33.002360105514526
1618824627.06234,37.14046,33.01799011230469
1618824627.07796,35.46205,33.033610105514526
1618824627.09359,34.46197,33.04924011230469
1618824627.10921,33.34381,33.064860105514526
1618824627.12484,31.32406,33.08049011230469
1618824627.14046,27.91254,33.096110105514526
1618824627.15609,23.15992,33.11174011230469
1618824627.17172,17.55272,33.12737011909485
1618824627.18734,11.82578,33.14299011230469
1618824627.20297,6.650738,33.15862011909485
1618824627.21859,2.374577,33.17424011230469
1618824627.23422,-1.096359,33.18987011909485
1618824627.24984,-4.206764,33.20549011230469
1618824627.26547,-7.545876,33.22112011909485
1618824627.2811,-11.61011,33.23675012588501
1618824627.29672,-16.59428,33.25237011909485
1618824627.31235,-22.36868,33.26800012588501
1618824627.32797,-28.49672,33.28362011909485
1618824627.3436,-34.42564,33.29925012588501
1618824627.35922,-39.63864,33.31487011909485
1618824627.37485,-43.8796,33.33050012588501
1618824627.39048,-47.23959,33.34613013267517
1618824627.4061,-50.19013,33.36175012588501
1618824627.42173,-53.47417,33.37738013267517
1618824627.43735,-57.88842,33.39300012588501
1618824627.45298,-63.99946,33.40863013267517
1618824627.4686,-71.84577,33.42425012588501
1618824627.48423,-80.73359,33.43988013267517
1618824627.49986,-89.24113,33.45551013946533
1618824627.51548,-95.45168,33.47113013267517
1618824627.53111,-97.40701,33.48676013946533
1618824627.54673,-93.62527,33.50238013267517
1618824627.56236,-83.58113,33.51801013946533
1618824627.57798,-67.89516,33.53363013267517
1618824627.59361,-48.22829,33.54926013946533
1618824627.60924,-26.88835,33.56489014625549
1618824627.62486,-6.260418,33.58051013946533
1618824627.64049,11.69876,33.59614014625549
1618824627.65611,25.7678,33.61176013946533
1618824627.67174,35.50847,33.62739014625549
1618824627.68736,41.09499,33.64301013946533
1618824627.70299,43.09241,33.65864014625549
1618824627.71862,42.26214,33.674270153045654
1618824627.73424,39.45821,33.68989014625549
1618824627.74987,35.52258,33.705520153045654
1618824627.76549,31.18071,33.72114014625549
1618824627.78112,26.95573,33.736770153045654
1618824627.79674,23.09229,33.75239014625549
1618824627.81237,19.59672,33.768020153045654
1618824627.828,16.38055,33.783650159835815
1618824627.84362,13.40295,33.799270153045654
1618824627.85925,10.80917,33.814900159835815
1618824627.87487,8.884026,33.830520153045654
1618824627.8905,7.915039,33.846150159835815
1618824627.90612,8.039658,33.861770153045654
1618824627.92175,9.132034,33.877400159835815
1618824627.93738,10.78312,33.89303016662598
1618824627.953,12.41912,33.908650159835815
1618824627.96863,13.43267,33.92428016662598
1618824627.98425,13.36727,33.939900159835815
1618824627.99988,12.04937,33.95553016662598
1618824628.0155,9.631233,33.971150159835815
1618824628.03113,6.50309,33.98678016662598
1618824628.04676,3.108719,34.00241017341614
1618824628.06238,-0.2609558,34.01803016662598
1618824628.07801,-3.597687,34.03366017341614
1618824628.09363,-7.16806,34.04928016662598
1618824628.10926,-11.38518,34.06491017341614
1618824628.12488,-16.54697,34.08053016662598
1618824628.14051,-22.68682,34.09616017341614
1618824628.15614,-29.51945,34.1117901802063
1618824628.17176,-36.58345,34.12741017341614
1618824628.18739,-43.45708,34.1430401802063
1618824628.20301,-49.86864,34.15866017341614
1618824628.21864,-55.80294,34.1742901802063
1618824628.23426,-61.43961,34.18991017341614
1618824628.24989,-67.09518,34.2055401802063
1618824628.26552,-73.02327,34.22117018699646
1618824628.28114,-79.18923,34.2367901802063
1618824628.29677,-85.04878,34.25242018699646
1618824628.31239,-89.47096,34.2680401802063
1618824628.32802,-90.93561,34.28367018699646
1618824628.34364,-87.89632,34.2992901802063
1618824628.35927,-79.32884,34.31492018699646
1618824628.3749,-65.24519,34.33055019378662
1618824628.39052,-46.8936,34.34617018699646
1618824628.40615,-26.45974,34.36180019378662
1618824628.42177,-6.412399,34.37742018699646
1618824628.4374,11.22559,34.39305019378662
1618824628.45302,25.31226,34.40867018699646
1618824628.46865,35.44057,34.42430019378662
1618824628.48428,41.87639,34.43993020057678
1618824628.4999,45.1884,34.45555019378662
1618824628.51553,45.92634,34.47118020057678
1618824628.53115,44.43126,34.48680019378662
1618824628.54678,40.93271,34.50243020057678
1618824628.5624,35.76781,34.51805019378662
1618824628.57803,29.49868,34.53368020057678
1618824628.59366,22.88951,34.54931020736694
1618824628.60928,16.39197,34.56493020057678
1618824628.62491,10.49509,34.58056020736694
1618824628.64053,5.676079,34.59618020057678
1618824628.65616,2.269928,34.61181020736694
1618824628.67178,0.2435684,34.62743020057678
1618824628.68741,-0.8495483,34.64306020736694
1618824628.70304,-1.580376,34.658689975738525
1618824628.71866,-2.404434,34.67431020736694
1618824628.73429,-3.511879,34.689939975738525
1618824628.74991,-5.342712,34.70556020736694
1618824628.76554,-7.875565,34.721189975738525
1618824628.78116,-10.62368,34.73681020736694
1618824628.79679,-12.94862,34.752439975738525
1618824628.81242,-14.52802,34.76806998252869
1618824628.82804,-15.59219,34.783689975738525
1618824628.84367,-16.46103,34.79931998252869
1618824628.85929,-17.34045,34.814939975738525
1618824628.87492,-18.26564,34.83056998252869
1618824628.89054,-19.82457,34.846189975738525
1618824628.90617,-22.12846,34.86181998252869
1618824628.9218,-24.68692,34.87744998931885
1618824628.93742,-26.62026,34.89306998252869
1618824628.95305,-27.27021,34.90869998931885
1618824628.96867,-26.7744,34.92431998252869
1618824628.9843,-25.49677,34.93994998931885
1618824628.99992,-24.03453,34.95556998252869
1618824629.01555,-18.89658,34.97119998931885
1618824629.03118,-9.572586,34.98682999610901
1618824629.0468,1.514511,35.00244998931885
1618824629.06243,10.90784,35.01807999610901
1618824629.07805,17.12983,35.03369998931885
1618824629.09368,21.32304,35.04932999610901
1618824629.1093,25.32458,35.06494998931885
1618824629.12493,30.89786,35.08057999610901
1618824629.14056,38.55309,35.09621000289917
1618824629.15618,47.29247,35.11182999610901
1618824629.17181,54.40383,35.12746000289917
1618824629.18743,57.59016,35.14307999610901
1618824629.20306,55.95521,35.15871000289917
1618824629.21868,50.20393,35.17432999610901
1618824629.23431,41.75682,35.18996000289917
1618824629.24994,30.77562,35.20559000968933
1618824629.26556,17.12548,35.22121000289917
1618824629.28119,0.3747368,35.23684000968933
1618824629.29681,-19.68358,35.25246000289917
1618824629.31244,-42.91944,35.26809000968933
1618824629.32806,-67.63228,35.28371000289917
1618824629.34369,-90.86447,35.29934000968933
1618824629.35932,-109.4576,35.31497001647949
1618824629.37494,-117.4012,35.33059000968933
1618824629.39057,-114.4499,35.34622001647949
1618824629.40619,-102.9242,35.36184000968933
1618824629.42182,-86.02944,35.37747001647949
1618824629.43744,-66.38338,35.39309000968933
1618824629.45307,-45.89427,35.40872001647949
1618824629.4687,-25.4272,35.42435002326965
1618824629.48432,-5.504622,35.43997001647949
1618824629.49995,13.154,35.45560002326965
1618824629.51557,29.38651,35.47122001647949
1618824629.5312,41.30891,35.48685002326965
1618824629.54682,48.17723,35.50247001647949
1618824629.56245,50.38976,35.51810002326965
1618824629.57808,49.22855,35.533730030059814
1618824629.5937,46.15148,35.54935002326965
1618824629.60933,42.77438,35.564980030059814
1618824629.62495,40.43585,35.58060002326965
1618824629.64058,39.94663,35.596230030059814
1618824629.65621,41.40849,35.611860036849976
1618824629.67183,43.64062,35.627480030059814
1618824629.68746,45.50674,35.643110036849976
1618824629.70308,46.13059,35.658730030059814
1618824629.71871,45.62917,35.674360036849976
1618824629.73433,44.0631,35.689980030059814
1618824629.74996,42.10153,35.705610036849976
1618824629.76559,40.50898,35.72124004364014
1618824629.78121,39.68329,35.736860036849976
1618824629.79684,39.36021,35.75249004364014
1618824629.81246,38.42597,35.768110036849976
1618824629.82809,35.89159,35.78374004364014
1618824629.84371,31.2174,35.799360036849976
1618824629.85934,24.57502,35.81499004364014
1618824629.87497,16.82042,35.8306200504303
1618824629.89059,9.408651,35.84624004364014
1618824629.90622,3.980687,35.8618700504303
1618824629.92184,1.935483,35.87749004364014
1618824629.93747,4.199479,35.8931200504303
1618824629.95309,10.88264,35.90874004364014
1618824629.96872,21.44388,35.9243700504303
1618824629.98435,34.5821,35.94000005722046
1618824629.99997,48.33009,35.9556200504303
1618824630.0156,60.3412,35.97125005722046
1618824630.03122,68.48096,35.9868700504303
1618824630.04685,71.39545,36.00250005722046
1618824630.06247,68.86813,36.0181200504303
1618824630.0781,61.96361,36.03375005722046
1618824630.09373,52.61721,36.04938006401062
1618824630.10935,43.06973,36.06500005722046
1618824630.12498,35.12936,36.08063006401062
1618824630.1406,29.74404,36.09625005722046
1618824630.15623,26.90483,36.11188006401062
1618824630.17185,25.9309,36.12750005722046
1618824630.18748,26.15426,36.14313006401062
1618824630.20311,26.92886,36.15876007080078
1618824630.21873,27.88092,36.17438006401062
1618824630.23436,29.01893,36.19001007080078
1618824630.24998,30.65023,36.20563006401062
1618824630.26561,33.20556,36.22126007080078
1618824630.28123,37.01237,36.23688006401062
1618824630.29686,42.18362,36.25251007080078
1618824630.31249,48.52866,36.26814007759094
1618824630.32811,55.60912,36.28376007080078
1618824630.34374,62.82298,36.29939007759094
1618824630.35936,69.68566,36.31501007080078
1618824630.37499,75.87505,36.33064007759094
1618824630.39061,81.3723,36.34626007080078
1618824630.40624,86.08391,36.36189007759094
1618824630.42187,90.20807,36.3775200843811
1618824630.43749,94.40161,36.39314007759094
1618824630.45312,99.47369,36.4087700843811
1618824630.46874,106.0094,36.42439007759094
1618824630.48437,113.9683,36.4400200843811
1618824630.49999,122.5721,36.45564007759094
1618824630.51562,130.4076,36.4712700843811
1618824630.53125,135.8199,36.486900091171265
1618824630.54687,137.2214,36.5025200843811
1618824630.5625,134.2448,36.518150091171265
1618824630.57812,128.184,36.5337700843811
1618824630.59375,121.4982,36.549400091171265
1618824630.60937,116.6525,36.5650200843811
1618824630.625,114.8006,36.580650091171265
1618824630.64063,115.2583,36.596280097961426
1618824630.65625,115.676,36.611900091171265
1618824630.67188,112.9886,36.627530097961426
1618824630.6875,103.8926,36.643150091171265
1618824630.70313,87.02197,36.658780097961426
1618824630.71875,63.51132,36.674400091171265
1618824630.73438,36.12292,36.690030097961426
1618824630.75001,7.733276,36.70566010475159
1618824630.76563,-19.56824,36.721280097961426
1618824630.78126,-44.38989,36.73691010475159
1618824630.79688,-65.52524,36.752530097961426
1618824630.81251,-81.74557,36.76816010475159
1618824630.82813,-94.36972,36.783780097961426
1618824630.84376,-104.4676,36.79941010475159
1618824630.85939,-111.9315,36.81504011154175
1618824630.87501,-116.0887,36.83066010475159
1618824630.89064,-116.7368,36.84629011154175
1618824630.90626,-114.0778,36.86191010475159
1618824630.92189,-108.0374,36.87754011154175
1618824630.93751,-98.27563,36.89316010475159
1618824630.95314,-85.09052,36.90879011154175
1618824630.96877,-74.81299,36.92442011833191
1618824630.98439,-72.68652,36.94004011154175
1618824631.00002,-79.42377,36.95567011833191
1618824631.01564,-91.65155,36.97129011154175
1618824631.03127,-105.4384,36.98692011833191
1618824631.04689,-118.5143,37.00254011154175
1618824631.06252,-130.4746,37.01817011833191
1618824631.07815,-142.4182,37.03380012512207
1618824631.09377,-156.3089,37.04942011833191
1618824631.1094,-181.2806,37.06505012512207
1618824631.12502,-221.5678,37.08067011833191
1618824631.14065,-272.116,37.09630012512207
1618824631.15627,-322.0191,37.11192011833191
1618824631.1719,-362.2534,37.12755012512207
1618824631.18753,-389.692,37.14318013191223
1618824631.20315,-406.1791,37.15880012512207
1618824631.21878,-416.027,37.17443013191223
1618824631.2344,-423.9955,37.19005012512207
1618824631.25003,-443.8036,37.20568013191223
1618824631.26565,-483.5325,37.22130012512207
1618824631.28128,-540.5013,37.23693013191223
1618824631.29691,-604.4031,37.25256013870239
1618824631.31253,-665.0212,37.26818013191223
1618824631.32816,-715.1654,37.28381013870239
1618824631.34378,-749.1963,37.29943013191223
1618824631.35941,-762.2519,37.31506013870239
1618824631.37503,-690.8192,37.33068013191223
1618824631.39066,-515.1229,37.34631013870239
1618824631.40629,-275.1162,37.361940145492554
1618824631.42191,-40.79407,37.37756013870239
1618824631.43754,140.8689,37.393190145492554
1618824631.45316,260.6989,37.40881013870239
1618824631.46879,331.4371,37.424440145492554
1618824631.48441,370.9049,37.44006013870239
1618824631.50004,393.0806,37.455690145492554
1618824631.51567,405.7064,37.471320152282715
1618824631.53129,402.1331,37.486940145492554
1618824631.54692,378.4081,37.502570152282715
1618824631.56254,340.5941,37.518190145492554
1618824631.57817,301.6525,37.533820152282715
1618824631.59379,272.1204,37.549440145492554
1618824631.60942,255.4661,37.565070152282715
1618824631.62505,249.6296,37.580700159072876
1618824631.64067,250.1818,37.596320152282715
1618824631.6563,252.5905,37.611950159072876
1618824631.67192,246.8512,37.627570152282715
1618824631.68755,228.1961,37.643200159072876
1618824631.70317,201.1984,37.658820152282715
1618824631.7188,175.9592,37.674450159072876
1618824631.73443,160.6517,37.69008016586304
1618824631.75005,157.959,37.705700159072876
1618824631.76568,166.0432,37.72133016586304
1618824631.7813,180.498,37.736950159072876
1618824631.79693,195.9148,37.75258016586304
1618824631.81256,202.6147,37.7682101726532
1618824631.82818,194.5673,37.78383016586304
1618824631.84381,172.9432,37.7994601726532
1618824631.85943,144.1855,37.81508016586304
1618824631.87506,115.2668,37.8307101726532
1618824631.89068,90.74944,37.84633016586304
1618824631.90631,72.50809,37.8619601726532
1618824631.92194,60.36394,37.87759017944336
1618824631.93756,53.03931,37.8932101726532
1618824631.95319,46.95248,37.90884017944336
1618824631.96881,39.07828,37.9244601726532
1618824631.98444,30.31297,37.94009017944336
1618824632.00006,23.4169,37.9557101726532
1618824632.01569,20.37996,37.97134017944336
1618824632.03132,21.06854,37.98697018623352
1618824632.04694,23.7676,38.00259017944336
1618824632.06257,26.24942,38.01822018623352
1618824632.07819,26.76837,38.03384017944336
1618824632.09382,23.8119,38.04947018623352
1618824632.10944,17.21354,38.06509017944336
1618824632.12507,8.468536,38.08072018623352
1618824632.1407,-0.3856964,38.09635019302368
1618824632.15632,-7.871979,38.11197018623352
1618824632.17195,-13.53014,38.12760019302368
1618824632.18757,-17.70097,38.14322018623352
1618824632.2032,-21.11732,38.15885019302368
1618824632.21882,-24.53917,38.17447018623352
1618824632.23445,-28.42805,38.19010019302368
1618824632.25008,-32.8644,38.20573019981384
1618824632.2657,-37.34165,38.22135019302368
1618824632.28133,-41.19152,38.23698019981384
1618824632.29695,-43.80687,38.25260019302368
1618824632.31258,-44.93564,38.26823019981384
1618824632.3282,-44.88047,38.28385019302368
1618824632.34383,-44.52487,38.29948019981384
1618824632.35946,-45.13942,38.315110206604004
1618824632.37508,-48.03684,38.33073019981384
1618824632.39071,-54.2358,38.346360206604004
1618824632.40633,-63.97544,38.36198019981384
1618824632.42196,-76.64124,38.377610206604004
1618824632.43758,-90.64764,38.39323019981384
1618824632.45321,-103.6274,38.408860206604004
1618824632.46884,-112.8378,38.424489974975586
1618824632.48446,-115.7724,38.440110206604004
1618824632.50009,-110.8069,38.455739974975586
1618824632.51571,-97.63431,38.471360206604004
1618824632.53134,-77.39499,38.486989974975586
1618824632.54696,-52.28166,38.502610206604004
1618824632.56259,-25.05887,38.518239974975586
1618824632.57822,1.580582,38.53386998176575
1618824632.59384,25.57176,38.549489974975586
1618824632.60947,45.6458,38.56511998176575
1618824632.62509,61.24971,38.580739974975586
1618824632.64072,72.32011,38.59636998176575
1618824632.65634,79.05147,38.611989974975586
1618824632.67197,81.78065,38.62761998176575
1618824632.6876,81.01239,38.64324998855591
1618824632.70322,77.45206,38.65886998176575
1618824632.71885,71.98465,38.67449998855591
1618824632.73447,65.58644,38.69011998176575
1618824632.7501,59.13649,38.70574998855591
1618824632.76572,53.28087,38.72136998176575
1618824632.78135,48.35883,38.73699998855591
1618824632.79698,44.46806,38.75262999534607
1618824632.8126,41.59207,38.76824998855591
1618824632.82823,39.73094,38.78387999534607
1618824632.84385,38.98442,38.79949998855591
1618824632.85948,39.52237,38.81512999534607
1618824632.8751,41.46652,38.83074998855591
1618824632.89073,44.69856,38.84637999534607
1618824632.90636,48.79573,38.86201000213623
1618824632.92198,53.0201,38.87762999534607
1618824632.93761,56.48532,38.89326000213623
1618824632.95323,58.42081,38.90887999534607
1618824632.96886,58.38977,38.92451000213623
1618824632.98448,56.37875,38.94012999534607
1618824633.00011,52.73462,38.95576000213623
1618824633.01574,47.97119,38.97139000892639
1618824633.03136,42.46732,38.98701000213623
1618824633.04699,36.32016,39.00264000892639
1618824633.06261,29.31512,39.01826000213623
1618824633.07824,21.0289,39.03389000892639
1618824633.09386,11.15814,39.04951000213623
1618824633.10949,-0.2171021,39.06514000892639
1618824633.12512,-12.52216,39.08077001571655
1618824633.14074,-24.7337,39.09639000892639
1618824633.15637,-35.72321,39.11202001571655
1618824633.17199,-44.66592,39.12764000892639
1618824633.18762,-51.35712,39.14327001571655
1618824633.20324,-56.36115,39.15889000892639
1618824633.21887,-60.76642,39.17452001571655
1618824633.2345,-65.69226,39.190150022506714
1618824633.25012,-71.76611,39.20577001571655
1618824633.26575,-78.74039,39.221400022506714
1618824633.28137,-85.41299,39.23702001571655
1618824633.297,-89.92444,39.252650022506714
1618824633.31262,-90.2767,39.26827001571655
1618824633.32825,-84.93979,39.283900022506714
1618824633.34388,-73.29282,39.299530029296875
1618824633.3595,-55.87003,39.315150022506714
1618824633.37513,-34.22821,39.330780029296875
1618824633.39075,-10.60962,39.346400022506714
1618824633.40638,12.63855,39.362030029296875
1618824633.422,33.5119,39.377650022506714
1618824633.43763,50.67758,39.393280029296875
1618824633.45326,63.51651,39.408910036087036
1618824633.46888,72.01828,39.424530029296875
1618824633.48451,76.53134,39.440160036087036
1618824633.50013,77.63034,39.455780029296875
1618824633.51576,76.01746,39.471410036087036
1618824633.53138,72.48831,39.487030029296875
1618824633.54701,67.87958,39.502660036087036
1618824633.56264,63.0072,39.5182900428772
1618824633.57826,58.50641,39.533910036087036
1618824633.59389,54.72989,39.5495400428772
1618824633.60951,51.74127,39.565160036087036
1618824633.62514,49.37408,39.5807900428772
1618824633.64076,47.39328,39.596410036087036
1618824633.65639,45.64954,39.6120400428772
1618824633.67202,44.13849,39.62767004966736
1618824633.68764,43.01065,39.6432900428772
1618824633.70327,42.43518,39.65892004966736
1618824633.71889,42.44925,39.6745400428772
1618824633.73452,42.86771,39.69017004966736
1618824633.75014,43.25143,39.7057900428772
1618824633.76577,43.01089,39.72142004966736
1618824633.7814,41.59491,39.73705005645752
1618824633.79702,38.70282,39.75267004966736
1618824633.81265,34.40027,39.76830005645752
1618824633.82827,29.10696,39.78392004966736
1618824633.8439,23.43692,39.79955005645752
1618824633.85952,17.95474,39.81517004966736
1618824633.87515,12.98843,39.83080005645752
1618824633.89078,8.498352,39.84643006324768
1618824633.9064,4.18634,39.86205005645752
1618824633.92203,-0.3944092,39.87768006324768
1618824633.93765,-5.60141,39.89330005645752
1618824633.95328,-11.58298,39.90893006324768
1618824633.9689,-18.18948,39.92455005645752
1618824633.98453,-25.0495,39.94018006324768
1618824634.00016,-31.72049,39.95581007003784
1618824634.01578,-37.83795,39.97143006324768
1618824634.03141,-43.24149,39.98706007003784
1618824634.04703,-48.04935,40.00268006324768
1618824634.06266,-52.63281,40.01831007003784
1618824634.07828,-57.53424,40.03393006324768
1618824634.09391,-63.34494,40.04956007003784
1618824634.10954,-70.43933,40.065190076828
1618824634.12516,-78.71246,40.08081007003784
1618824634.14079,-87.30698,40.096440076828
1618824634.15641,-94.58948,40.11206007003784
1618824634.17204,-98.42416,40.127690076828
1618824634.18766,-96.75635,40.14331007003784
1618824634.20329,-88.29965,40.158940076828
1618824634.21892,-73.052,40.174570083618164
1618824634.23454,-52.40616,40.190190076828
1618824634.25017,-28.78226,40.205820083618164
1618824634.26579,-4.904419,40.221440076828
1618824634.28142,16.86905,40.237070083618164
1618824634.29704,34.99377,40.252690076828
1618824634.31267,48.84473,40.268320083618164
1618824634.3283,58.47452,40.283950090408325
1618824634.34392,64.33981,40.299570083618164
1618824634.35955,67.04224,40.315200090408325
1618824634.37517,67.24603,40.330820083618164
1618824634.3908,65.62857,40.346450090408325
1618824634.40643,62.88757,40.362080097198486
1618824634.42205,59.68896,40.377700090408325
1618824634.43768,56.56448,40.393330097198486
1618824634.4533,53.83701,40.408950090408325
1618824634.46893,51.59018,40.424580097198486
1618824634.48455,49.71094,40.440200090408325
1618824634.50018,48.00128,40.455830097198486
1618824634.51581,46.30914,40.47146010398865
1618824634.53143,44.61588,40.487080097198486
1618824634.54706,43.05673,40.50271010398865
1618824634.56268,41.84842,40.518330097198486
1618824634.57831,41.159,40.53396010398865
1618824634.59393,41.01376,40.549580097198486
1618824634.60956,41.22897,40.56521010398865
1618824634.62519,41.42142,40.58084011077881
1618824634.64081,41.11139,40.59646010398865
1618824634.65644,39.81934,40.61209011077881
1618824634.67206,37.22552,40.62771010398865
1618824634.68769,33.27554,40.64334011077881
1618824634.70331,28.23291,40.65896010398865
1618824634.71894,22.61111,40.67459011077881
1618824634.73457,16.98505,40.69022011756897
1618824634.75019,11.76926,40.70584011077881
1618824634.76582,7.062958,40.72147011756897
1618824634.78144,2.632416,40.73709011077881
1618824634.79707,-1.955261,40.75272011756897
1618824634.81269,-7.082153,40.76834011077881
1618824634.82832,-12.89575,40.78397011756897
1618824634.84395,-19.23239,40.79960012435913
1618824634.85957,-25.70313,40.81522011756897
1618824634.8752,-31.89316,40.83085012435913
1618824634.89082,-37.5304,40.84647011756897
1618824634.90645,-42.58221,40.86210012435913
1618824634.92207,-47.22879,40.87772011756897
1618824634.9377,-51.76712,40.89335012435913
1618824634.95333,-56.56342,40.90898013114929
1618824634.96895,-61.96295,40.92460012435913
1618824634.98458,-68.2121,40.94023013114929
1618824635.0002,-75.28873,40.95585012435913
1618824635.01583,-82.6925,40.97148013114929
1618824635.03145,-89.32501,40.98710012435913
1618824635.04708,-93.54651,41.00273013114929
1618824635.06271,-93.55438,41.01836013793945
1618824635.07833,-87.9108,41.03398013114929
1618824635.09396,-76.09061,41.04961013793945
1618824635.10958,-58.76733,41.06523013114929
1618824635.12521,-37.69913,41.08086013793945
1618824635.14083,-15.27405,41.09648013114929
1618824635.15646,6.130554,41.11211013793945
1618824635.17209,24.68872,41.127740144729614
1618824635.18771,39.41092,41.14336013793945
1618824635.20334,50.09909,41.158990144729614
1618824635.21896,57.1217,41.17461013793945
1618824635.23459,61.07626,41.190240144729614
1618824635.25021,62.57111,41.20586013793945
1618824635.26584,62.10092,41.221490144729614
1618824635.28147,60.06924,41.237120151519775
1618824635.29709,56.87344,41.252740144729614
1618824635.31272,52.96619,41.268370151519775
1618824635.32834,48.88861,41.283990144729614
1618824635.34397,45.16583,41.299620151519775
1618824635.35959,42.20102,41.315240144729614
1618824635.37522,40.14496,41.330870151519775
1618824635.39085,38.90381,41.34650015830994
1618824635.40647,38.22067,41.362120151519775
1618824635.4221,37.80927,41.37775015830994
1618824635.43772,37.51328,41.393370151519775
1618824635.45335,37.29974,41.40900015830994
1618824635.46897,37.26053,41.424620151519775
1618824635.4846,37.37378,41.44025015830994
1618824635.50023,37.42328,41.4558801651001
1618824635.51585,37.02713,41.47150015830994
1618824635.53148,35.83447,41.4871301651001
1618824635.5471,33.6821,41.50275015830994
1618824635.56273,30.64795,41.5183801651001
1618824635.57835,26.98755,41.53400015830994
1618824635.59398,23.02191,41.5496301651001
1618824635.60961,19.04031,41.56526017189026
1618824635.62523,15.16061,41.5808801651001
1618824635.64086,11.31775,41.59651017189026
1618824635.65648,7.333862,41.6121301651001
1618824635.67211,3.070709,41.62776017189026
1618824635.68773,-1.50592,41.6433801651001
1618824635.70336,-6.352966,41.65901017189026
1618824635.71899,-11.36981,41.67464017868042
1618824635.73461,-16.45856,41.69026017189026
1618824635.75024,-21.38489,41.70589017868042
1618824635.76586,-25.99112,41.72151017189026
1618824635.78149,-30.26401,41.73714017868042
1618824635.79711,-34.29037,41.75276017189026
1618824635.81274,-38.16446,41.76839017868042
1618824635.82837,-41.957,41.78402018547058
1618824635.84399,-45.77454,41.79964017868042
1618824635.85962,-49.80762,41.81527018547058
1618824635.87524,-54.30948,41.83089017868042
1618824635.89087,-59.11237,41.84652018547058
1618824635.90649,-63.98581,41.86214017868042
1618824635.92212,-68.62799,41.87777018547058
1618824635.93775,-72.40295,41.89340019226074
1618824635.95337,-74.07233,41.90902018547058
1618824635.969,-71.96039,41.92465019226074
1618824635.98462,-64.57233,41.94027018547058
1618824636.00025,-51.2457,41.95590019226074
1618824636.01587,-32.53967,41.97152018547058
1618824636.0315,-9.385269,41.98715019226074
1618824636.04713,16.099,42.0027801990509
1618824636.06275,40.93027,42.01840019226074
1618824636.07838,62.12898,42.0340301990509
1618824636.094,77.92189,42.04965019226074
1618824636.10963,88.14073,42.0652801990509
1618824636.12525,93.85544,42.08090019226074
1618824636.14088,96.6367,42.0965301990509
1618824636.15651,97.98116,42.112160205841064
1618824636.17213,100.1571,42.1277801990509
1618824636.18776,104.1244,42.143410205841064
1618824636.20338,109.0585,42.1590301990509
1618824636.21901,113.0584,42.174660205841064
1618824636.23463,114.6275,42.1902801990509
1618824636.25026,113.4552,42.205910205841064
1618824636.26589,110.1816,42.22153997421265
1618824636.28151,105.8914,42.237160205841064
1618824636.29714,101.6866,42.25278997421265
1618824636.31276,100.1608,42.268410205841064
1618824636.32839,102.7901,42.28403997421265
1618824636.34401,109.0706,42.299660205841064
1618824636.35964,116.8009,42.31528997421265
1618824636.37527,123.2674,42.33091998100281
1618824636.39089,125.8692,42.34653997421265
1618824636.40652,122.1458,42.36216998100281
1618824636.42214,110.0871,42.37778997421265
1618824636.43777,78.9343,42.39341998100281
1618824636.45339,27.59164,42.40903997421265
1618824636.46902,-33.4128,42.42466998100281
1618824636.48465,-87.68254,42.44029998779297
1618824636.50027,-124.0605,42.45591998100281
1618824636.5159,-140.8625,42.47154998779297
1618824636.53152,-142.8105,42.48716998100281
1618824636.54715,-136.66,42.50279998779297
1618824636.56277,-128.1912,42.51841998100281
1618824636.5784,-121.0294,42.53404998779297
1618824636.59403,-114.8929,42.54967999458313
1618824636.60965,-109.0093,42.56529998779297
1618824636.62528,-103.4032,42.58092999458313
1618824636.6409,-99.04671,42.59654998779297
1618824636.65653,-96.5453,42.61217999458313
1618824636.67216,-95.44228,42.62781000137329
1618824636.68778,-94.61044,42.64342999458313
1618824636.70341,-92.87628,42.65906000137329
1618824636.71903,-89.65399,42.67467999458313
1618824636.73466,-83.79797,42.69031000137329
1618824636.75028,-75.75874,42.70592999458313
1618824636.76591,-67.103,42.72156000137329
1618824636.78154,-59.82229,42.73719000816345
1618824636.79716,-54.8606,42.75281000137329
1618824636.81279,-51.80133,42.76844000816345
1618824636.82841,-49.92924,42.78406000137329
1618824636.84404,-47.8791,42.79969000816345
1618824636.85966,-45.29705,42.81531000137329
1618824636.87529,-41.91598,42.83094000816345
1618824636.89092,-38.82892,42.84657001495361
1618824636.90654,-37.73931,42.86219000816345
1618824636.92217,-40.77395,42.87782001495361
1618824636.93779,-49.36634,42.89344000816345
1618824636.95342,-63.13774,42.90907001495361
1618824636.96904,-79.3889,42.92469000816345
1618824636.98467,-93.25965,42.94032001495361
1618824637.0003,-99.15961,42.955950021743774
1618824637.01592,-90.05136,42.97157001495361
1618824637.03155,-66.06308,42.987200021743774
1618824637.04717,-32.24309,43.00282001495361
1618824637.0628,3.071086,43.018450021743774
1618824637.07842,31.68795,43.03407001495361
1618824637.09405,48.76437,43.049700021743774
1618824637.10968,54.17704,43.065330028533936
1618824637.1253,51.48135,43.080950021743774
1618824637.14093,45.30384,43.096580028533936
1618824637.15655,39.23464,43.112200021743774
1618824637.17218,34.06535,43.127830028533936
1618824637.1878,29.40071,43.143450021743774
1618824637.20343,24.68268,43.159080028533936
1618824637.21906,20.37381,43.1747100353241
1618824637.23468,17.82245,43.190330028533936
1618824637.25031,18.14677,43.2059600353241
1618824637.26593,21.04674,43.221580028533936
1618824637.28156,24.40528,43.2372100353241
1618824637.29718,25.48739,43.252830028533936
1618824637.31281,21.4159,43.2684600353241
1618824637.32844,11.69836,43.28409004211426
1618824637.34406,-1.722971,43.2997100353241
1618824637.35969,-15.32182,43.31534004211426
1618824637.37531,-25.51058,43.3309600353241
1618824637.39094,-30.16005,43.34659004211426
1618824637.40656,-29.31841,43.3622100353241
1618824637.42219,-24.87086,43.37784004211426
1618824637.43782,-19.44592,43.39347004890442
1618824637.45344,-15.42415,43.40909004211426
1618824637.46907,-13.72699,43.42472004890442
1618824637.48469,-14.09835,43.44034004211426
1618824637.50032,-15.70075,43.45597004890442
1618824637.51594,-17.76231,43.47159004211426
1618824637.53157,-19.88709,43.48722004890442
1618824637.5472,-21.96835,43.50285005569458
1618824637.56282,-23.96509,43.51847004890442
1618824637.57845,-25.79264,43.53410005569458
1618824637.59407,-27.47065,43.54972004890442
1618824637.6097,-28.90734,43.56535005569458
1618824637.62532,-30.25504,43.58097004890442
1618824637.64095,-31.86288,43.59660005569458
1618824637.65658,-34.24824,43.61223006248474
1618824637.6722,-37.89846,43.62785005569458
1618824637.68783,-43.06184,43.64348006248474
1618824637.70345,-49.61216,43.65910005569458
1618824637.71908,-56.9435,43.67473006248474
1618824637.7347,-63.96794,43.69035005569458
1618824637.75033,-69.08858,43.70598006248474
1618824637.76596,-70.4904,43.7216100692749
1618824637.78158,-66.42074,43.73723006248474
1618824637.79721,-55.93381,43.7528600692749
1618824637.81283,-39.35929,43.76848006248474
1618824637.82846,-18.3923,43.7841100692749
1618824637.84408,4.280617,43.79973006248474
1618824637.85971,25.74291,43.8153600692749
1618824637.87534,43.66682,43.83099007606506
1618824637.89096,56.85336,43.8466100692749
1618824637.90659,65.25182,43.86224007606506
1618824637.92221,69.60951,43.8778600692749
1618824637.93784,70.89729,43.89349007606506
1618824637.95346,69.93963,43.9091100692749
1618824637.96909,67.25743,43.92474007606506
1618824637.98472,63.17905,43.940370082855225
1618824638.00034,58.02309,43.95599007606506
1618824638.01597,52.19633,43.971620082855225
1618824638.03159,46.23592,43.98724007606506
1618824638.04722,40.66844,44.002870082855225
1618824638.06284,35.90295,44.01849007606506
1618824638.07847,32.13578,44.034120082855225
1618824638.0941,29.36205,44.049750089645386
1618824638.10972,27.50954,44.065370082855225
1618824638.12535,26.46747,44.081000089645386
1618824638.14097,26.18381,44.096620082855225
1618824638.1566,26.58061,44.112250089645386
1618824638.17222,27.52376,44.127870082855225
1618824638.18785,28.74097,44.143500089645386
1618824638.20348,29.81712,44.15913009643555
1618824638.2191,30.21465,44.174750089645386
1618824638.23473,29.42371,44.19038009643555
1618824638.25035,27.15115,44.206000089645386
1618824638.26598,23.40718,44.22163009643555
1618824638.2816,18.55965,44.237250089645386
1618824638.29723,13.19345,44.25288009643555
1618824638.31286,7.943329,44.26851010322571
1618824638.32848,3.243301,44.28413009643555
1618824638.34411,-0.8151398,44.29976010322571
1618824638.35973,-4.501572,44.31538009643555
