timestamp,value,norm_ts
1619375747.38214,25.74918,1.377389907836914
1619375747.39777,24.17955,1.3930199146270752
1619375747.41339,22.5683,1.408639907836914
1619375747.42902,21.03019,1.4242699146270752
1619375747.44464,19.59138,1.439889907836914
1619375747.46027,18.31056,1.4555199146270752
1619375747.4759,17.28576,1.4711499214172363
1619375747.49152,16.63821,1.4867699146270752
1619375747.50715,16.41119,1.5023999214172363
1619375747.52277,16.57008,1.5180199146270752
1619375747.5384,16.99329,1.5336499214172363
1619375747.55402,17.35142,1.5492699146270752
1619375747.56965,17.14999,1.5648999214172363
1619375747.58528,15.71756,1.5805299282073975
1619375747.6009,12.35434,1.5961499214172363
1619375747.61653,6.637924,1.6117799282073975
1619375747.63215,-1.399086,1.6273999214172363
1619375747.64778,-11.29981,1.6430299282073975
1619375747.6634,-22.36099,1.6586499214172363
1619375747.67903,-33.90329,1.6742799282073975
1619375747.69466,-45.34852,1.6899099349975586
1619375747.71028,-56.11822,1.7055299282073975
1619375747.72591,-65.48058,1.7211599349975586
1619375747.74153,-72.55069,1.7367799282073975
1619375747.75716,-76.43923,1.7524099349975586
1619375747.77278,-76.52087,1.7680299282073975
1619375747.78841,-72.65377,1.7836599349975586
1619375747.80404,-64.9563,1.7992899417877197
1619375747.81966,-53.49885,1.8149099349975586
1619375747.83529,-38.00633,1.8305399417877197
1619375747.85091,-17.97816,1.8461599349975586
1619375747.86654,6.664116,1.8617899417877197
1619375747.88216,34.72707,1.8774099349975586
1619375747.89779,63.54486,1.8930399417877197
1619375747.91342,89.49689,1.9086699485778809
1619375747.92904,109.2562,1.9242899417877197
1619375747.94467,120.9818,1.9399199485778809
1619375747.96029,124.7053,1.9555399417877197
1619375747.97592,121.8789,1.9711699485778809
1619375747.99154,114.2512,1.9867899417877197
1619375748.00717,102.9335,2.002419948577881
1619375748.0228,88.17657,2.018049955368042
1619375748.03842,69.96183,2.033669948577881
1619375748.05405,48.7303,2.049299955368042
1619375748.06967,26.00825,2.064919948577881
1619375748.0853,4.149467,2.080549955368042
1619375748.10092,-14.45511,2.096169948577881
1619375748.11655,-28.23386,2.111799955368042
1619375748.13218,-36.9478,2.127429962158203
1619375748.1478,-41.61507,2.143049955368042
1619375748.16343,-43.87398,2.158679962158203
1619375748.17905,-45.28137,2.174299955368042
1619375748.19468,-46.78846,2.189929962158203
1619375748.2103,-48.67667,2.205549955368042
1619375748.22593,-50.77422,2.221179962158203
1619375748.24156,-52.83495,2.2368099689483643
1619375748.25718,-54.79025,2.252429962158203
1619375748.27281,-56.76944,2.2680599689483643
1619375748.28843,-58.97482,2.283679962158203
1619375748.30406,-61.35291,2.2993099689483643
1619375748.31968,-63.52057,2.314929962158203
1619375748.33531,-64.80998,2.3305599689483643
1619375748.35094,-64.56532,2.3461899757385254
1619375748.36656,-62.50212,2.3618099689483643
1619375748.38219,-58.91352,2.3774399757385254
1619375748.39781,-54.59811,2.3930599689483643
1619375748.41344,-50.47558,2.4086899757385254
1619375748.42906,-47.09628,2.4243099689483643
1619375748.44469,-44.18443,2.4399399757385254
1619375748.46032,-40.65439,2.4555699825286865
1619375748.47594,-34.95567,2.4711899757385254
1619375748.49157,-25.67762,2.4868199825286865
1619375748.50719,-12.22208,2.5024399757385254
1619375748.52282,4.797222,2.5180699825286865
1619375748.53844,23.65959,2.5336899757385254
1619375748.55407,41.92294,2.5493199825286865
1619375748.5697,57.24834,2.5649499893188477
1619375748.58532,67.97774,2.5805699825286865
1619375748.60095,73.49266,2.5961999893188477
1619375748.61657,74.15619,2.6118199825286865
1619375748.6322,71.07051,2.6274499893188477
1619375748.64782,65.60551,2.6430699825286865
1619375748.66345,59.05859,2.6586999893188477
1619375748.67908,52.41201,2.674329996109009
1619375748.6947,46.24268,2.6899499893188477
1619375748.71033,40.82256,2.705579996109009
1619375748.72595,36.16718,2.7211999893188477
1619375748.74158,32.14222,2.736829996109009
1619375748.75721,28.48525,2.75246000289917
1619375748.77283,24.91683,2.768079996109009
1619375748.78846,21.21349,2.78371000289917
1619375748.80408,17.40475,2.799329996109009
1619375748.81971,13.80629,2.81496000289917
1619375748.83533,11.02732,2.830579996109009
1619375748.85096,9.807418,2.84621000289917
1619375748.86659,10.68369,2.861840009689331
1619375748.88221,13.73273,2.87746000289917
1619375748.89784,18.36366,2.893090009689331
1619375748.91346,23.43666,2.90871000289917
1619375748.92909,27.44344,2.924340009689331
1619375748.94471,29.10927,2.93996000289917
1619375748.96034,27.8038,2.955590009689331
1619375748.97597,23.77296,2.971220016479492
1619375748.99159,18.07595,2.986840009689331
1619375749.00722,12.07341,3.002470016479492
1619375749.02284,6.86742,3.018090009689331
1619375749.03847,2.908065,3.033720016479492
1619375749.05409,-0.07884407,3.049340009689331
1619375749.06972,-2.894953,3.064970016479492
1619375749.08535,-6.46415,3.0806000232696533
1619375749.10097,-11.46804,3.096220016479492
1619375749.1166,-18.15594,3.1118500232696533
1619375749.13222,-26.18704,3.127470016479492
1619375749.14785,-34.55524,3.1431000232696533
1619375749.16347,-41.63807,3.158720016479492
1619375749.1791,-45.42457,3.1743500232696533
1619375749.19473,-44.06065,3.1899800300598145
1619375749.21035,-36.50026,3.2056000232696533
1619375749.22598,-22.92251,3.2212300300598145
1619375749.2416,-4.774487,3.2368500232696533
1619375749.25723,15.64012,3.2524800300598145
1619375749.27285,35.9366,3.2681000232696533
1619375749.28848,54.15411,3.2837300300598145
1619375749.30411,69.0513,3.2993600368499756
1619375749.31973,79.91398,3.3149800300598145
1619375749.33536,86.29829,3.3306100368499756
1619375749.35098,87.85681,3.3462300300598145
1619375749.36661,84.49956,3.3618600368499756
1619375749.38223,76.60074,3.3774800300598145
1619375749.39786,65.09703,3.3931100368499756
1619375749.41349,51.46009,3.4087400436401367
1619375749.42911,37.32627,3.4243600368499756
1619375749.44474,24.17659,3.4399900436401367
1619375749.46036,13.0574,3.4556100368499756
1619375749.47599,4.480896,3.4712400436401367
1619375749.49161,-1.510357,3.4868600368499756
1619375749.50724,-5.208427,3.5024900436401367
1619375749.52287,-7.040012,3.518120050430298
1619375749.53849,-7.442844,3.5337400436401367
1619375749.55412,-6.724304,3.549370050430298
1619375749.56974,-5.150467,3.5649900436401367
1619375749.58537,-3.047714,3.580620050430298
1619375749.60099,-0.9516068,3.5962400436401367
1619375749.61662,0.3782425,3.611870050430298
1619375749.63225,0.1227493,3.627500057220459
1619375749.64787,-2.260452,3.643120050430298
1619375749.6635,-6.800941,3.658750057220459
1619375749.67912,-12.94476,3.674370050430298
1619375749.69475,-19.74449,3.690000057220459
1619375749.71037,-26.2698,3.705620050430298
1619375749.726,-31.88947,3.721250057220459
1619375749.74163,-36.43896,3.73688006401062
1619375749.75725,-40.18365,3.752500057220459
1619375749.77288,-43.63194,3.76813006401062
1619375749.7885,-47.39459,3.783750057220459
1619375749.80413,-52.00422,3.79938006401062
1619375749.81975,-57.61777,3.815000057220459
1619375749.83538,-63.81264,3.83063006401062
1619375749.85101,-69.42626,3.8462600708007812
1619375749.86663,-72.69838,3.86188006401062
1619375749.88226,-71.75552,3.8775100708007812
1619375749.89788,-65.29236,3.89313006401062
1619375749.91351,-53.15269,3.9087600708007812
1619375749.92913,-36.50569,3.92438006401062
1619375749.94476,-17.50635,3.9400100708007812
1619375749.96039,1.398453,3.9556400775909424
1619375749.97601,18.1294,3.9712600708007812
1619375749.99164,31.42231,3.9868900775909424
1619375750.00726,40.77775,4.002510070800781
1619375750.02289,46.28582,4.018140077590942
1619375750.03851,48.34441,4.033760070800781
1619375750.05414,47.50301,4.049390077590942
1619375750.06977,44.36473,4.0650200843811035
1619375750.08539,39.65604,4.080640077590942
1619375750.10102,34.16215,4.0962700843811035
1619375750.11664,28.63759,4.111890077590942
1619375750.13227,23.65686,4.1275200843811035
1619375750.14789,19.52512,4.143140077590942
1619375750.16352,16.32274,4.1587700843811035
1619375750.17915,13.87628,4.174400091171265
1619375750.19477,12.04582,4.1900200843811035
1619375750.2104,10.73517,4.205650091171265
1619375750.22602,9.976456,4.2212700843811035
1619375750.24165,9.805679,4.236900091171265
1619375750.25727,10.13332,4.2525200843811035
1619375750.2729,10.63547,4.268150091171265
1619375750.28853,10.79037,4.283780097961426
1619375750.30415,10.0426,4.299400091171265
1619375750.31978,7.996094,4.315030097961426
1619375750.3354,4.625519,4.330650091171265
1619375750.35103,0.2284698,4.346280097961426
1619375750.36665,-4.686295,4.361900091171265
1619375750.38228,-9.680023,4.377530097961426
1619375750.39791,-14.53267,4.393160104751587
1619375750.41353,-19.26448,4.408780097961426
1619375750.42916,-24.10759,4.424410104751587
1619375750.44478,-29.37405,4.440030097961426
1619375750.46041,-35.28621,4.455660104751587
1619375750.47603,-41.77322,4.471280097961426
1619375750.49166,-48.26663,4.486910104751587
1619375750.50729,-53.56244,4.502539873123169
1619375750.52291,-56.06055,4.518160104751587
1619375750.53854,-54.18182,4.533789873123169
1619375750.55416,-46.96785,4.549410104751587
1619375750.56979,-34.56483,4.565039873123169
1619375750.58541,-18.31741,4.580660104751587
1619375750.60104,-0.4388275,4.596289873123169
1619375750.61667,16.63982,4.61191987991333
1619375750.63229,30.95473,4.627539873123169
1619375750.64792,41.41632,4.64316987991333
1619375750.66354,47.85338,4.658789873123169
1619375750.67917,50.70673,4.67441987991333
1619375750.69479,50.68687,4.690039873123169
1619375750.71042,48.44122,4.70566987991333
1619375750.72605,44.56334,4.721299886703491
1619375750.74167,39.57996,4.73691987991333
1619375750.7573,34.02812,4.752549886703491
1619375750.77292,28.44725,4.76816987991333
1619375750.78855,23.26672,4.783799886703491
1619375750.80417,18.66826,4.79941987991333
1619375750.8198,14.58961,4.815049886703491
1619375750.83543,10.74278,4.830679893493652
1619375750.85105,6.852875,4.846299886703491
1619375750.86668,2.88002,4.861929893493652
1619375750.8823,-0.9404755,4.877549886703491
1619375750.89793,-4.164474,4.893179893493652
1619375750.91355,-6.428436,4.908799886703491
1619375750.92918,-7.757919,4.924429893493652
1619375750.94481,-8.662506,4.9400599002838135
1619375750.96043,-9.963104,4.955679893493652
1619375750.97606,-12.43008,4.9713099002838135
1619375750.99168,-16.48619,4.986929893493652
1619375751.00731,-21.96011,5.0025599002838135
1619375751.02293,-28.17958,5.018179893493652
1619375751.03856,-34.27487,5.0338099002838135
1619375751.05419,-39.49498,5.049439907073975
1619375751.06981,-43.46727,5.0650599002838135
1619375751.08544,-46.30597,5.080689907073975
1619375751.10106,-48.56953,5.0963099002838135
1619375751.11669,-51.08719,5.111939907073975
1619375751.13231,-54.76746,5.1275599002838135
1619375751.14794,-60.18037,5.143189907073975
1619375751.16357,-67.24684,5.158819913864136
1619375751.17919,-75.00888,5.174439907073975
1619375751.19482,-81.65913,5.190069913864136
1619375751.21044,-84.98289,5.205689907073975
1619375751.22607,-83.02945,5.221319913864136
1619375751.24169,-74.79959,5.236939907073975
1619375751.25732,-60.6929,5.252569913864136
1619375751.27295,-42.53424,5.268199920654297
1619375751.28857,-22.98514,5.283819913864136
1619375751.3042,-4.754745,5.299449920654297
1619375751.31982,10.2529,5.315069913864136
1619375751.33545,21.56136,5.330699920654297
1619375751.35107,30.14594,5.346319913864136
1619375751.3667,37.88289,5.361949920654297
1619375751.38233,46.64626,5.377579927444458
1619375751.39795,57.46817,5.393199920654297
1619375751.41358,70.01344,5.408829927444458
1619375751.4292,82.86836,5.424449920654297
1619375751.44483,94.23158,5.440079927444458
1619375751.46046,102.6347,5.455709934234619
1619375751.47608,107.4818,5.471329927444458
1619375751.49171,108.8704,5.486959934234619
1619375751.50733,107.1576,5.502579927444458
1619375751.52296,102.4512,5.518209934234619
1619375751.53858,94.5531,5.533829927444458
1619375751.55421,83.30585,5.549459934234619
1619375751.56984,69.1524,5.56508994102478
1619375751.58546,53.37726,5.580709934234619
1619375751.60109,37.85379,5.59633994102478
1619375751.61671,24.44496,5.611959934234619
1619375751.63234,14.19502,5.62758994102478
1619375751.64796,7.027054,5.643209934234619
1619375751.66359,1.965805,5.65883994102478
1619375751.67922,-2.377548,5.674469947814941
1619375751.69484,-7.083023,5.69008994102478
1619375751.71047,-12.57863,5.705719947814941
1619375751.72609,-18.6651,5.72133994102478
1619375751.74172,-24.82278,5.736969947814941
1619375751.75734,-30.59842,5.75258994102478
1619375751.77297,-35.82588,5.768219947814941
1619375751.7886,-40.5629,5.7838499546051025
1619375751.80422,-44.83849,5.799469947814941
1619375751.81985,-48.57751,5.8150999546051025
1619375751.83547,-51.63652,5.830719947814941
1619375751.8511,-53.96712,5.8463499546051025
1619375751.86672,-55.67889,5.861969947814941
1619375751.88235,-56.87039,5.8775999546051025
1619375751.89798,-57.31879,5.893229961395264
1619375751.9136,-56.33203,5.9088499546051025
1619375751.92923,-52.9753,5.924479961395264
1619375751.94485,-46.50325,5.9400999546051025
1619375751.96048,-36.89058,5.955729961395264
1619375751.9761,-25.08855,5.9713499546051025
1619375751.99173,-12.71606,5.986979961395264
1619375752.00736,-1.496185,6.002609968185425
1619375752.02298,7.417664,6.018229961395264
1619375752.03861,13.73557,6.033859968185425
1619375752.05423,17.82019,6.049479961395264
1619375752.06986,20.28128,6.065109968185425
1619375752.08548,21.54056,6.080729961395264
1619375752.10111,21.71857,6.096359968185425
1619375752.11674,20.80127,6.111989974975586
1619375752.13236,18.87311,6.127609968185425
1619375752.14799,16.20358,6.143239974975586
1619375752.16361,13.31113,6.158859968185425
1619375752.17924,10.79559,6.174489974975586
1619375752.19486,9.182526,6.190109968185425
1619375752.21049,8.847015,6.205739974975586
1619375752.22612,9.880066,6.221369981765747
1619375752.24174,12.06262,6.236989974975586
1619375752.25737,14.89279,6.252619981765747
1619375752.27299,17.75253,6.268239974975586
1619375752.28862,20.07947,6.283869981765747
1619375752.30424,21.55042,6.299489974975586
1619375752.31987,22.14148,6.315119981765747
1619375752.3355,22.04105,6.330749988555908
1619375752.35112,21.40475,6.346369981765747
1619375752.36675,20.26035,6.361999988555908
1619375752.38237,18.39624,6.377619981765747
1619375752.398,15.52847,6.393249988555908
1619375752.41362,11.56891,6.408869981765747
1619375752.42925,6.655701,6.424499988555908
1619375752.44488,1.185974,6.440129995346069
1619375752.4605,-4.401825,6.455749988555908
1619375752.47613,-9.932648,6.471379995346069
1619375752.49175,-15.56561,6.486999988555908
1619375752.50738,-21.65063,6.502629995346069
1619375752.523,-28.32217,6.518249988555908
1619375752.53863,-35.00406,6.533879995346069
1619375752.55426,-40.24884,6.5495100021362305
1619375752.56988,-42.12695,6.565129995346069
1619375752.58551,-38.97067,6.5807600021362305
1619375752.60113,-30.17194,6.596379995346069
1619375752.61676,-16.63589,6.6120100021362305
1619375752.63238,-0.4588623,6.627629995346069
1619375752.64801,15.80286,6.6432600021362305
1619375752.66364,30.06421,6.658890008926392
1619375752.67926,41.34598,6.6745100021362305
1619375752.69489,49.67883,6.690140008926392
1619375752.71051,55.53122,6.7057600021362305
1619375752.72614,59.25934,6.721390008926392
1619375752.74176,60.78769,6.7370100021362305
1619375752.75739,59.77148,6.752640008926392
1619375752.77302,56.10672,6.768270015716553
1619375752.78864,50.21091,6.783890008926392
1619375752.80427,43.06454,6.799520015716553
1619375752.81989,35.84979,6.815140008926392
1619375752.83552,29.53473,6.830770015716553
1619375752.85114,24.4758,6.846390008926392
1619375752.86677,20.44632,6.862020015716553
1619375752.8824,16.86386,6.877650022506714
1619375752.89802,12.96082,6.893270015716553
1619375752.91365,8.128693,6.908900022506714
1619375752.92927,1.990356,6.924520015716553
1619375752.9449,-5.545593,6.940150022506714
1619375752.96052,-14.24924,6.955770015716553
1619375752.97615,-23.5961,6.971400022506714
1619375752.99178,-32.91663,6.987030029296875
1619375753.0074,-41.51822,7.002650022506714
1619375753.02303,-48.81927,7.018280029296875
1619375753.03865,-54.48489,7.033900022506714
1619375753.05428,-58.39441,7.049530029296875
1619375753.0699,-60.52811,7.065150022506714
1619375753.08553,-60.90338,7.080780029296875
1619375753.10116,-59.52036,7.096410036087036
1619375753.11678,-56.46603,7.112030029296875
1619375753.13241,-52.01215,7.127660036087036
1619375753.14803,-46.70731,7.143280029296875
1619375753.16366,-41.41568,7.158910036087036
1619375753.17928,-37.19852,7.174530029296875
1619375753.19491,-35.00507,7.190160036087036
1619375753.21054,-35.3063,7.205790042877197
1619375753.22616,-37.75305,7.221410036087036
1619375753.24179,-40.96814,7.237040042877197
1619375753.25741,-42.79367,7.252660036087036
1619375753.27304,-40.90451,7.268290042877197
1619375753.28866,-33.61029,7.283910036087036
1619375753.30429,-20.5968,7.299540042877197
1619375753.31992,-3.175812,7.315170049667358
1619375753.33554,16.14529,7.330790042877197
1619375753.35117,34.53583,7.346420049667358
1619375753.36679,49.75662,7.362040042877197
1619375753.38242,60.71628,7.377670049667358
1619375753.39804,67.44846,7.393290042877197
1619375753.41367,70.61188,7.408920049667358
1619375753.4293,70.94067,7.4245500564575195
1619375753.44492,68.72787,7.440170049667358
1619375753.46055,63.80127,7.4558000564575195
1619375753.47617,55.66486,7.471420049667358
1619375753.4918,43.92218,7.4870500564575195
1619375753.50742,28.61377,7.502670049667358
1619375753.52305,10.44781,7.5183000564575195
1619375753.53868,-9.121399,7.533930063247681
1619375753.5543,-28.12619,7.5495500564575195
1619375753.56993,-44.44525,7.565180063247681
1619375753.58555,-56.35016,7.5808000564575195
1619375753.60118,-62.94308,7.596430063247681
1619375753.61681,-64.42932,7.612060070037842
1619375753.63243,-62.03601,7.627680063247681
1619375753.64806,-57.5849,7.643310070037842
1619375753.66368,-52.92715,7.658930063247681
1619375753.67931,-49.41971,7.674560070037842
1619375753.69493,-47.66739,7.690180063247681
1619375753.71056,-47.53647,7.705810070037842
1619375753.72619,-48.47327,7.721440076828003
1619375753.74181,-49.71225,7.737060070037842
1619375753.75744,-50.45975,7.752690076828003
1619375753.77306,-50.08826,7.768310070037842
1619375753.78869,-48.13351,7.783940076828003
1619375753.80431,-44.46979,7.799560070037842
1619375753.81994,-39.39124,7.815190076828003
1619375753.83557,-33.75693,7.830820083618164
1619375753.85119,-28.74893,7.846440076828003
1619375753.86682,-25.44336,7.862070083618164
1619375753.88244,-24.25699,7.877690076828003
1619375753.89807,-24.40793,7.893320083618164
1619375753.91369,-24.0694,7.908940076828003
1619375753.92932,-20.88248,7.924570083618164
1619375753.94495,-12.95844,7.940200090408325
1619375753.96057,0.3310547,7.955820083618164
1619375753.9762,17.93185,7.971450090408325
1619375753.99182,37.48724,7.987070083618164
1619375754.00745,56.17197,8.002700090408325
1619375754.02307,71.54129,8.018320083618164
1619375754.0387,82.17337,8.033950090408325
1619375754.05433,87.71436,8.049580097198486
1619375754.06995,88.69275,8.065200090408325
1619375754.08558,86.05875,8.080830097198486
1619375754.1012,80.93204,8.096450090408325
1619375754.11683,74.38712,8.112080097198486
1619375754.13245,67.37823,8.127700090408325
1619375754.14808,60.65115,8.143330097198486
1619375754.16371,54.62955,8.158960103988647
1619375754.17933,49.47952,8.174580097198486
1619375754.19496,45.11246,8.190210103988647
1619375754.21058,41.42313,8.205830097198486
1619375754.22621,38.31528,8.221460103988647
1619375754.24183,35.75476,8.237080097198486
1619375754.25746,33.72989,8.252710103988647
1619375754.27309,32.28455,8.26833987236023
1619375754.28871,31.45807,8.283960103988647
1619375754.30434,31.27502,8.29958987236023
1619375754.31996,31.76767,8.315210103988647
1619375754.33559,32.74902,8.33083987236023
1619375754.35121,33.80548,8.346460103988647
1619375754.36684,34.3396,8.36208987236023
1619375754.38247,33.74387,8.37771987915039
1619375754.39809,31.72876,8.39333987236023
1619375754.41372,28.51431,8.40896987915039
1619375754.42934,24.85828,8.42458987236023
1619375754.44497,21.73642,8.44021987915039
1619375754.46059,19.96802,8.45583987236023
1619375754.47622,19.76416,8.47146987915039
1619375754.49185,20.63876,8.487099885940552
1619375754.50747,21.64209,8.50271987915039
1619375754.5231,21.9754,8.518349885940552
1619375754.53872,21.56891,8.53396987915039
1619375754.55435,21.52124,8.549599885940552
1619375754.56997,23.86993,8.56521987915039
1619375754.5856,30.91901,8.580849885940552
1619375754.60123,44.22815,8.596479892730713
1619375754.61685,63.76764,8.612099885940552
1619375754.63248,87.74518,8.627729892730713
1619375754.6481,113.0399,8.643349885940552
1619375754.66373,136.1793,8.658979892730713
1619375754.67935,154.3317,8.674599885940552
1619375754.69498,165.8795,8.690229892730713
1619375754.71061,170.4658,8.705859899520874
1619375754.72623,168.5918,8.721479892730713
1619375754.74186,161.0776,8.737109899520874
1619375754.75748,148.7137,8.752729892730713
1619375754.77311,132.2803,8.768359899520874
1619375754.78873,112.6881,8.783979892730713
1619375754.80436,91.12909,8.799609899520874
1619375754.81999,69.0318,8.815239906311035
1619375754.83561,47.78094,8.830859899520874
1619375754.85124,28.43445,8.846489906311035
1619375754.86686,11.61029,8.862109899520874
1619375754.88249,-2.459961,8.877739906311035
1619375754.89811,-13.79901,8.893359899520874
1619375754.91374,-22.55823,8.908989906311035
1619375754.92937,-29.17377,8.924619913101196
1619375754.94499,-34.46222,8.940239906311035
1619375754.96062,-39.66052,8.955869913101196
1619375754.97624,-46.12506,8.971489906311035
1619375754.99187,-54.81439,8.987119913101196
1619375755.00749,-65.86169,9.002739906311035
1619375755.02312,-78.50269,9.018369913101196
1619375755.03875,-91.52081,9.033999919891357
1619375755.05437,-103.8383,9.049619913101196
1619375755.07,-115.1047,9.065249919891357
1619375755.08562,-125.6016,9.080869913101196
1619375755.10125,-136.0291,9.096499919891357
1619375755.11687,-147.007,9.112119913101196
1619375755.1325,-158.7837,9.127749919891357
1619375755.14813,-171.1978,9.143379926681519
1619375755.16375,-183.7661,9.158999919891357
1619375755.17938,-195.7108,9.174629926681519
1619375755.195,-205.9351,9.190249919891357
1619375755.21063,-213.1058,9.205879926681519
1619375755.22625,-215.8268,9.221499919891357
1619375755.24188,-213.1581,9.237129926681519
1619375755.25751,-205.0187,9.25275993347168
1619375755.27313,-192.3274,9.268379926681519
1619375755.28876,-176.8294,9.28400993347168
1619375755.30438,-160.6846,9.299629926681519
1619375755.32001,-145.9795,9.31525993347168
1619375755.33563,-134.3887,9.330879926681519
1619375755.35126,-127.1152,9.34650993347168
1619375755.36689,-124.8403,9.36213994026184
1619375755.38251,-127.7809,9.37775993347168
1619375755.39814,-135.6179,9.39338994026184
1619375755.41376,-147.3026,9.40900993347168
1619375755.42939,-160.8673,9.42463994026184
1619375755.44501,-173.2744,9.44025993347168
1619375755.46064,-180.6923,9.45588994026184
1619375755.47627,-179.3297,9.471519947052002
1619375755.49189,-166.71,9.48713994026184
1619375755.50752,-142.8063,9.502769947052002
1619375755.52314,-110.4917,9.51838994026184
1619375755.53877,-74.79797,9.534019947052002
1619375755.55439,-41.20361,9.54963994026184
1619375755.57002,-13.86444,9.565269947052002
1619375755.58565,5.533997,9.580899953842163
1619375755.60127,17.63232,9.596519947052002
1619375755.6169,24.22998,9.612149953842163
1619375755.63252,26.94531,9.627769947052002
1619375755.64815,26.48346,9.643399953842163
1619375755.66377,22.8703,9.659019947052002
1619375755.6794,16.27881,9.674649953842163
1619375755.69503,7.787292,9.690279960632324
1619375755.71065,-0.6282349,9.705899953842163
1619375755.72628,-6.754456,9.721529960632324
1619375755.7419,-9.160217,9.737149953842163
1619375755.75753,-7.947083,9.752779960632324
1619375755.77315,-4.692322,9.768399953842163
1619375755.78878,-1.669617,9.784029960632324
1619375755.80441,-0.6854858,9.799659967422485
1619375755.82003,-2.039917,9.815279960632324
1619375755.83566,-4.161926,9.830909967422485
1619375755.85128,-4.173645,9.846529960632324
1619375755.86691,0.8452148,9.862159967422485
1619375755.88253,12.43195,9.877779960632324
1619375755.89816,30.00977,9.893409967422485
1619375755.91379,51.12543,9.909039974212646
1619375755.92941,72.51752,9.924659967422485
1619375755.94504,91.36572,9.940289974212646
1619375755.96066,106.108,9.955909967422485
1619375755.97629,116.4109,9.971539974212646
1619375755.99191,122.592,9.987159967422485
1619375756.00754,124.9912,10.002789974212646
1619375756.02317,123.6804,10.018419981002808
1619375756.03879,118.7444,10.034039974212646
1619375756.05442,110.7146,10.049669981002808
1619375756.07004,100.7878,10.065289974212646
1619375756.08567,90.6192,10.080919981002808
1619375756.10129,81.81793,10.096539974212646
1619375756.11692,75.49115,10.112169981002808
1619375756.13255,72.04999,10.127799987792969
1619375756.14817,71.38959,10.143419981002808
1619375756.1638,73.16022,10.159049987792969
1619375756.17942,76.91736,10.174669981002808
1619375756.19505,82.05841,10.190299987792969
1619375756.21068,87.43927,10.20592999458313
1619375756.2263,91.18011,10.221549987792969
1619375756.24193,90.82697,10.23717999458313
1619375756.25755,84.04712,10.252799987792969
1619375756.27318,69.58276,10.26842999458313
1619375756.2888,47.92227,10.284049987792969
1619375756.30443,21.44281,10.29967999458313
1619375756.32006,-6.283783,10.315310001373291
1619375756.33568,-31.71191,10.33092999458313
1619375756.35131,-52.46411,10.346560001373291
1619375756.36693,-67.79715,10.36217999458313
1619375756.38256,-78.53836,10.377810001373291
1619375756.39818,-86.29361,10.39342999458313
1619375756.41381,-92.51096,10.409060001373291
1619375756.42944,-97.92776,10.424690008163452
1619375756.44506,-102.2468,10.440310001373291
1619375756.46069,-104.2356,10.455940008163452
1619375756.47631,-102.1913,10.471560001373291
1619375756.49194,-94.51108,10.487190008163452
1619375756.50756,-80.16425,10.502810001373291
1619375756.52319,-59.16586,10.518440008163452
1619375756.53882,-32.80878,10.534070014953613
1619375756.55444,-3.332703,10.549690008163452
1619375756.57007,26.44617,10.565320014953613
1619375756.58569,53.84662,10.580940008163452
1619375756.60132,76.80365,10.596570014953613
1619375756.61694,94.04639,10.612190008163452
1619375756.63257,105.1292,10.627820014953613
1619375756.6482,110.3218,10.643450021743774
1619375756.66382,110.5284,10.659070014953613
1619375756.67945,107.1055,10.674700021743774
1619375756.69507,101.795,10.690320014953613
1619375756.7107,96.33542,10.705950021743774
1619375756.72632,92.25635,10.721570014953613
1619375756.74195,90.52457,10.737200021743774
1619375756.75758,91.31268,10.752830028533936
1619375756.7732,94.17905,10.768450021743774
1619375756.78883,98.28571,10.784080028533936
1619375756.80445,102.7135,10.799700021743774
1619375756.82008,106.7805,10.815330028533936
1619375756.8357,110.1393,10.830950021743774
1619375756.85133,112.619,10.846580028533936
1619375756.86696,114.1493,10.862210035324097
1619375756.88258,114.6424,10.877830028533936
1619375756.89821,113.9975,10.893460035324097
1619375756.91383,112.2688,10.909080028533936
1619375756.92946,109.7425,10.924710035324097
1619375756.94508,106.9226,10.940330028533936
1619375756.96071,104.4689,10.955960035324097
1619375756.97634,103.0804,10.971590042114258
1619375756.99196,103.2161,10.987210035324097
1619375757.00759,104.8379,11.002840042114258
1619375757.02321,107.2044,11.018460035324097
1619375757.03884,108.7556,11.034090042114258
1619375757.05446,107.5247,11.049710035324097
1619375757.07009,101.7838,11.065340042114258
1619375757.08572,90.93231,11.080970048904419
1619375757.10134,76.10223,11.096590042114258
1619375757.11697,60.1167,11.112220048904419
1619375757.13259,46.58514,11.127840042114258
1619375757.14822,38.60046,11.143470048904419
1619375757.16384,37.61224,11.159090042114258
1619375757.17947,42.84332,11.174720048904419
1619375757.1951,51.74304,11.19035005569458
1619375757.21072,60.87354,11.205970048904419
1619375757.22635,66.97742,11.22160005569458
1619375757.24197,67.72394,11.237220048904419
1619375757.2576,61.88239,11.25285005569458
1619375757.27322,49.22205,11.268470048904419
1619375757.28885,30.26025,11.28410005569458
1619375757.30448,6.072754,11.299730062484741
1619375757.3201,-21.84735,11.31535005569458
1619375757.33573,-51.59467,11.330980062484741
1619375757.35135,-81.1347,11.34660005569458
1619375757.36698,-108.5264,11.362230062484741
1619375757.3826,-132.2708,11.37785005569458
1619375757.39823,-151.5397,11.393480062484741
1619375757.41386,-166.2922,11.409110069274902
1619375757.42948,-177.1782,11.424730062484741
1619375757.44511,-185.2875,11.440360069274902
1619375757.46073,-191.8445,11.455980062484741
1619375757.47636,-197.8776,11.471610069274902
1619375757.49198,-204.0522,11.487230062484741
1619375757.50761,-210.6324,11.502860069274902
1619375757.52324,-217.5272,11.518490076065063
1619375757.53886,-224.3914,11.534110069274902
1619375757.55449,-230.8057,11.549740076065063
1619375757.57011,-236.403,11.565360069274902
1619375757.58574,-240.9957,11.580990076065063
1619375757.60136,-244.6341,11.596610069274902
1619375757.61699,-247.4887,11.612240076065063
1619375757.63262,-249.6658,11.627870082855225
1619375757.64824,-250.9799,11.643490076065063
1619375757.66387,-250.9017,11.659120082855225
1619375757.67949,-248.6035,11.674740076065063
1619375757.69512,-243.1758,11.690370082855225
1619375757.71074,-233.61,11.705990076065063
1619375757.72637,-218.8221,11.721620082855225
1619375757.742,-197.6067,11.737250089645386
1619375757.75762,-168.9484,11.752870082855225
1619375757.77325,-132.5452,11.768500089645386
1619375757.78887,-89.52313,11.784120082855225
1619375757.8045,-42.73029,11.799750089645386
1619375757.82012,3.622192,11.815370082855225
1619375757.83575,44.99762,11.831000089645386
1619375757.85138,77.84247,11.846630096435547
1619375757.867,100.614,11.862250089645386
1619375757.88263,113.938,11.877880096435547
1619375757.89825,119.9095,11.893500089645386
1619375757.91388,121.0791,11.909130096435547
1619375757.9295,119.5002,11.924750089645386
1619375757.94513,116.3541,11.940380096435547
1619375757.96076,112.1467,11.956010103225708
1619375757.97638,107.1228,11.971630096435547
1619375757.99201,101.5676,11.987260103225708
1619375758.00763,95.823,12.002880096435547
1619375758.02326,90.18121,12.018510103225708
1619375758.03888,84.71558,12.034130096435547
1619375758.05451,79.36908,12.049760103225708
1619375758.07014,74.22101,12.06538987159729
1619375758.08576,69.62891,12.081010103225708
1619375758.10139,66.2027,12.09663987159729
1619375758.11701,64.44171,12.112260103225708
1619375758.13264,64.39337,12.12788987159729
1619375758.14826,65.35504,12.143510103225708
1619375758.16389,66.05298,12.15913987159729
1619375758.17952,65.13605,12.174769878387451
1619375758.19514,61.74268,12.19038987159729
1619375758.21077,55.89197,12.206019878387451
1619375758.22639,48.30292,12.22163987159729
1619375758.24202,40.0842,12.237269878387451
1619375758.25764,32.17297,12.25288987159729
1619375758.27327,25.11966,12.268519878387451
1619375758.2889,18.96771,12.284149885177612
1619375758.30452,13.39621,12.299769878387451
1619375758.32015,7.892426,12.315399885177612
1619375758.33577,1.766388,12.331019878387451
1619375758.3514,-5.671234,12.346649885177612
1619375758.36702,-14.884,12.362269878387451
1619375758.38265,-25.56775,12.377899885177612
1619375758.39828,-36.3533,12.393529891967773
1619375758.4139,-44.77328,12.409149885177612
1619375758.42953,-47.93903,12.424779891967773
1619375758.44515,-43.56445,12.440399885177612
1619375758.46078,-30.99493,12.456029891967773
1619375758.47641,-11.67523,12.471659898757935
1619375758.49203,11.23453,12.487279891967773
1619375758.50766,33.88837,12.502909898757935
1619375758.52328,52.99594,12.518529891967773
1619375758.53891,66.54501,12.534159898757935
1619375758.55453,74.0704,12.549779891967773
1619375758.57016,76.22345,12.565409898757935
1619375758.58579,74.13831,12.581039905548096
1619375758.60141,68.9472,12.596659898757935
1619375758.61704,61.53958,12.612289905548096
1619375758.63266,52.69513,12.627909898757935
1619375758.64829,43.19299,12.643539905548096
1619375758.66391,33.85983,12.659159898757935
1619375758.67954,25.39355,12.674789905548096
1619375758.69517,18.25623,12.690419912338257
1619375758.71079,12.56482,12.706039905548096
1619375758.72642,8.09726,12.721669912338257
1619375758.74204,4.513763,12.737289905548096
1619375758.75767,1.499664,12.752919912338257
1619375758.77329,-1.030914,12.768539905548096
1619375758.78892,-2.949219,12.784169912338257
1619375758.80455,-4.046844,12.799799919128418
1619375758.82017,-4.268616,12.815419912338257
1619375758.8358,-3.889252,12.831049919128418
1619375758.85142,-3.596069,12.846669912338257
1619375758.86705,-4.288239,12.862299919128418
1619375758.88267,-6.726166,12.877919912338257
1619375758.8983,-11.1922,12.893549919128418
1619375758.91393,-17.27499,12.909179925918579
1619375758.92955,-23.94986,12.924799919128418
1619375758.94518,-30.02536,12.940429925918579
1619375758.9608,-34.608,12.956049919128418
1619375758.97643,-37.4649,12.971679925918579
1619375758.99205,-39.13434,12.987299919128418
1619375759.00768,-40.60992,13.002929925918579
1619375759.02331,-42.94055,13.01855993270874
1619375759.03893,-46.86603,13.034179925918579
1619375759.05456,-52.51169,13.04980993270874
1619375759.07018,-59.27917,13.065429925918579
1619375759.08581,-65.83133,13.08105993270874
1619375759.10143,-70.25336,13.096679925918579
1619375759.11706,-70.45432,13.11230993270874
1619375759.13269,-64.70047,13.127939939498901
1619375759.14831,-52.19724,13.14355993270874
1619375759.16394,-33.57123,13.159189939498901
1619375759.17956,-10.85785,13.17480993270874
1619375759.19519,13.05774,13.190439939498901
1619375759.21081,35.24542,13.20605993270874
1619375759.22644,53.56815,13.221689939498901
1619375759.24207,67.1282,13.237319946289062
1619375759.25769,76.13419,13.252939939498901
1619375759.27332,81.32629,13.268569946289062
1619375759.28894,83.53244,13.284189939498901
1619375759.30457,83.22678,13.299819946289062
1619375759.32019,80.4913,13.315439939498901
1619375759.33582,75.41086,13.331069946289062
1619375759.35145,68.29874,13.346699953079224
1619375759.36707,59.95752,13.362319946289062
1619375759.3827,51.54129,13.377949953079224
1619375759.39832,44.3179,13.393569946289062
1619375759.41395,39.11191,13.409199953079224
1619375759.42957,36.20947,13.424819946289062
1619375759.4452,35.28476,13.440449953079224
1619375759.46083,35.57047,13.456079959869385
1619375759.47645,36.24948,13.471699953079224
1619375759.49208,36.64594,13.487329959869385
1619375759.5077,36.36978,13.502949953079224
1619375759.52333,35.17178,13.518579959869385
1619375759.53895,32.87274,13.534199953079224
1619375759.55458,29.26959,13.549829959869385
1619375759.57021,24.20355,13.565459966659546
1619375759.58583,17.6705,13.581079959869385
1619375759.60146,9.909119,13.596709966659546
1619375759.61708,1.386871,13.612329959869385
1619375759.63271,-7.319702,13.627959966659546
1619375759.64833,-15.6011,13.643579959869385
1619375759.66396,-22.95511,13.659209966659546
1619375759.67959,-29.07965,13.674839973449707
1619375759.69521,-33.90485,13.690459966659546
1619375759.71084,-37.56184,13.706089973449707
1619375759.72646,-40.39227,13.721709966659546
1619375759.74209,-42.86649,13.737339973449707
1619375759.75771,-45.48022,13.752959966659546
1619375759.77334,-48.63492,13.768589973449707
1619375759.78897,-52.34006,13.784219980239868
1619375759.80459,-55.96094,13.799839973449707
1619375759.82022,-58.19289,13.815469980239868
1619375759.83584,-57.25121,13.831089973449707
1619375759.85147,-51.40361,13.846719980239868
1619375759.86709,-39.57416,13.862339973449707
1619375759.88272,-21.88751,13.877969980239868
1619375759.89835,0.2301331,13.89359998703003
1619375759.91397,24.27284,13.909219980239868
1619375759.9296,47.39372,13.92484998703003
1619375759.94522,67.17743,13.940469980239868
1619375759.96085,82.13579,13.95609998703003
1619375759.97647,91.88861,13.971719980239868
1619375759.9921,96.92664,13.98734998703003
1619375760.00773,98.22134,14.00297999382019
1619375760.02335,96.72995,14.01859998703003
1619375760.03898,93.17422,14.03422999382019
1619375760.0546,87.98407,14.04984998703003
1619375760.07023,81.4541,14.06547999382019
1619375760.08585,73.98322,14.08109998703003
1619375760.10148,66.13901,14.09672999382019
1619375760.11711,58.70474,14.112360000610352
1619375760.13273,52.44949,14.12797999382019
1619375760.14836,47.98572,14.143610000610352
1619375760.16398,45.57904,14.15922999382019
1619375760.17961,45.14676,14.174860000610352
1619375760.19523,46.36728,14.19047999382019
1619375760.21086,48.94379,14.206110000610352
1619375760.22649,52.71048,14.221740007400513
1619375760.24211,57.63052,14.237360000610352
1619375760.25774,63.61844,14.252990007400513
1619375760.27336,70.15616,14.268610000610352
1619375760.28899,76.12094,14.284240007400513
1619375760.30461,79.76794,14.299860000610352
1619375760.32024,79.15872,14.315490007400513
1619375760.33587,72.65057,14.331120014190674
1619375760.35149,59.66431,14.346740007400513
1619375760.36712,41.02347,14.362370014190674
1619375760.38274,18.83633,14.377990007400513
1619375760.39837,-4.069244,14.393620014190674
1619375760.41399,-25.19739,14.409240007400513
1619375760.42962,-43.12149,14.424870014190674
1619375760.44525,-57.79449,14.440500020980835
1619375760.46087,-70.1738,14.456120014190674
1619375760.4765,-81.57245,14.471750020980835
1619375760.49212,-92.96884,14.487370014190674
1619375760.50775,-104.7127,14.503000020980835
1619375760.52337,-116.7622,14.518620014190674
1619375760.539,-128.913,14.534250020980835
1619375760.55463,-140.9342,14.549880027770996
1619375760.57025,-152.2813,14.565500020980835
1619375760.58588,-161.6021,14.581130027770996
1619375760.6015,-166.6557,14.596750020980835
1619375760.61713,-164.7881,14.612380027770996
1619375760.63275,-154.0159,14.628000020980835
1619375760.64838,-134.0855,14.643630027770996
1619375760.66401,-107.0732,14.659260034561157
1619375760.67963,-76.78333,14.674880027770996
1619375760.69526,-47.57965,14.690510034561157
1619375760.71088,-22.92944,14.706130027770996
1619375760.72651,-4.469696,14.721760034561157
1619375760.74214,8.007721,14.737390041351318
1619375760.75776,15.82849,14.753010034561157
1619375760.77339,20.51947,14.768640041351318
1619375760.78901,23.19754,14.784260034561157
1619375760.80464,24.4032,14.799890041351318
1619375760.82026,24.53726,14.815510034561157
1619375760.83589,24.04669,14.831140041351318
1619375760.85152,23.59833,14.84677004814148
1619375760.86714,23.83502,14.862390041351318
1619375760.88277,25.02441,14.87802004814148
1619375760.89839,26.95901,14.893640041351318
1619375760.91402,28.97186,14.90927004814148
1619375760.92964,30.32639,14.924890041351318
1619375760.94527,30.53296,14.94052004814148
1619375760.9609,29.55243,14.95615005493164
1619375760.97652,27.66022,14.97177004814148
1619375760.99215,25.34308,14.98740005493164
1619375761.00777,23.05179,15.00302004814148
1619375761.0234,21.09543,15.01865005493164
1619375761.03902,19.57217,15.03427004814148
1619375761.05465,18.36713,15.04990005493164
1619375761.07028,17.12131,15.065530061721802
1619375761.0859,15.34567,15.08115005493164
1619375761.10153,12.57556,15.096780061721802
1619375761.11715,8.515747,15.11240005493164
1619375761.13278,3.203674,15.128030061721802
1619375761.1484,-3.04895,15.14365005493164
1619375761.16403,-9.848938,15.159280061721802
1619375761.17966,-16.92487,15.174910068511963
1619375761.19528,-24.19897,15.190530061721802
1619375761.21091,-31.70355,15.206160068511963
1619375761.22653,-39.36011,15.221780061721802
1619375761.24216,-46.80414,15.237410068511963
1619375761.25778,-53.55286,15.253030061721802
1619375761.27341,-59.25827,15.268660068511963
1619375761.28904,-63.9137,15.284290075302124
1619375761.30466,-67.77155,15.299910068511963
1619375761.32029,-70.87656,15.315540075302124
1619375761.33591,-72.62149,15.331160068511963
1619375761.35154,-71.54633,15.346790075302124
1619375761.36716,-65.81516,15.362410068511963
1619375761.38279,-54.00204,15.378040075302124
1619375761.39842,-36.04187,15.393670082092285
1619375761.41404,-13.55527,15.409290075302124
1619375761.42967,10.45374,15.424920082092285
1619375761.44529,32.62125,15.440540075302124
1619375761.46092,50.26904,15.456170082092285
1619375761.47654,62.05328,15.471790075302124
1619375761.49217,68.00778,15.487420082092285
1619375761.5078,68.99097,15.503050088882446
1619375761.52342,66.15283,15.518670082092285
1619375761.53905,60.56775,15.534300088882446
1619375761.55467,53.25061,15.549920082092285
1619375761.5703,45.25375,15.565550088882446
1619375761.58592,37.73987,15.581170082092285
1619375761.60155,31.83588,15.596800088882446
1619375761.61718,28.27301,15.612430095672607
1619375761.6328,27.20206,15.628050088882446
1619375761.64843,28.1756,15.643680095672607
1619375761.66405,30.43866,15.659300088882446
1619375761.67968,33.32254,15.674930095672607
1619375761.6953,36.54282,15.690550088882446
1619375761.71093,40.24915,15.706180095672607
1619375761.72656,44.853,15.721810102462769
1619375761.74218,50.73553,15.737430095672607
1619375761.75781,57.95465,15.753060102462769
1619375761.77343,66.12201,15.768680095672607
1619375761.78906,74.45322,15.784310102462769
1619375761.80468,81.95917,15.799930095672607
1619375761.82031,87.6405,15.815560102462769
1619375761.83594,90.67599,15.83118987083435
1619375761.85156,90.60773,15.846810102462769
1619375761.86719,87.35184,15.86243987083435
1619375761.88281,81.35178,15.878060102462769
1619375761.89844,73.48138,15.89368987083435
1619375761.91406,64.99673,15.909310102462769
1619375761.92969,57.20566,15.92493987083435
1619375761.94532,51.19138,15.940569877624512
1619375761.96094,47.49625,15.95618987083435
1619375761.97657,45.98563,15.971819877624512
1619375761.99219,46.05148,15.98743987083435
1619375762.00782,46.87372,16.00306987762451
1619375762.02344,48.03717,16.01868987083435
1619375762.03907,49.90781,16.03431987762451
1619375762.0547,53.78119,16.049949884414673
1619375762.07032,61.517,16.06556987762451
1619375762.08595,74.86566,16.081199884414673
1619375762.10157,94.66306,16.09681987762451
1619375762.1172,120.3134,16.112449884414673
1619375762.13282,149.8771,16.12806987762451
1619375762.14845,180.5945,16.143699884414673
1619375762.16408,209.6719,16.159329891204834
1619375762.1797,234.9693,16.174949884414673
1619375762.19533,255.1713,16.190579891204834
1619375762.21095,269.5895,16.206199884414673
1619375762.22658,277.7222,16.221829891204834
1619375762.2422,279.0004,16.237449884414673
1619375762.25783,272.8057,16.253079891204834
1619375762.27346,258.8428,16.268709897994995
1619375762.28908,237.5512,16.284329891204834
1619375762.30471,210.2667,16.299959897994995
1619375762.32033,178.9732,16.315579891204834
1619375762.33596,145.7827,16.331209897994995
1619375762.35158,112.4219,16.346829891204834
1619375762.36721,79.92169,16.362459897994995
1619375762.38284,48.74384,16.378089904785156
1619375762.39846,19.11115,16.393709897994995
1619375762.41409,-8.608826,16.409339904785156
1619375762.42971,-33.69531,16.424959897994995
1619375762.44534,-55.3045,16.440589904785156
1619375762.46096,-72.74554,16.456209897994995
1619375762.47659,-85.92432,16.471839904785156
1619375762.49222,-95.34979,16.487469911575317
1619375762.50784,-101.9135,16.503089904785156
1619375762.52347,-106.3529,16.518719911575317
1619375762.53909,-108.8136,16.534339904785156
1619375762.55472,-108.7312,16.549969911575317
1619375762.57034,-105.21,16.565589904785156
1619375762.58597,-97.63928,16.581219911575317
1619375762.6016,-86.26556,16.59684991836548
1619375762.61722,-72.49182,16.612469911575317
1619375762.63285,-58.58887,16.62809991836548
1619375762.64847,-47.05811,16.643719911575317
1619375762.6641,-39.85901,16.65934991836548
1619375762.67972,-37.81982,16.674969911575317
1619375762.69535,-40.74744,16.69059991836548
1619375762.71098,-47.75647,16.70622992515564
1619375762.7266,-57.93042,16.72184991836548
1619375762.74223,-70.82361,16.73747992515564
1619375762.75785,-86.61877,16.75309991836548
1619375762.77348,-106.0988,16.76872992515564
1619375762.7891,-130.6245,16.78434991836548
1619375762.80473,-162.0704,16.79997992515564
1619375762.82036,-202.4542,16.8156099319458
1619375762.83598,-252.9757,16.83122992515564
1619375762.85161,-312.5156,16.8468599319458
1619375762.86723,-376.4861,16.86247992515564
1619375762.88286,-436.9299,16.8781099319458
1619375762.89848,-484.3397,16.89372992515564
1619375762.91411,-510.8048,16.9093599319458
1619375762.92974,-512.9655,16.924989938735962
1619375762.94536,-493.2048,16.9406099319458
1619375762.96099,-458.4603,16.956239938735962
1619375762.97661,-417.1844,16.9718599319458
1619375762.99224,-376.1079,16.987489938735962
1619375763.00786,-338.4067,17.0031099319458
1619375763.02349,-303.9468,17.018739938735962
1619375763.03912,-270.8812,17.034369945526123
1619375763.05474,-237.434,17.049989938735962
1619375763.07037,-202.5864,17.065619945526123
1619375763.08599,-165.7695,17.081239938735962
1619375763.10162,-126.1721,17.096869945526123
1619375763.11724,-82.8208,17.112489938735962
1619375763.13287,-35.52759,17.128119945526123
1619375763.1485,13.91406,17.143749952316284
1619375763.16412,61.27832,17.159369945526123
1619375763.17975,100.947,17.174999952316284
1619375763.19537,127.8491,17.190619945526123
1619375763.211,139.5925,17.206249952316284
1619375763.22662,137.5267,17.221869945526123
1619375763.24225,125.9832,17.237499952316284
1619375763.25788,110.2765,17.253129959106445
1619375763.2735,94.33826,17.268749952316284
1619375763.28913,79.32739,17.284379959106445
1619375763.30475,63.80811,17.299999952316284
1619375763.32038,45.20947,17.315629959106445
1619375763.33601,21.68567,17.331259965896606
1619375763.35163,-6.690918,17.346879959106445
1619375763.36726,-37.92004,17.362509965896606
1619375763.38288,-68.98376,17.378129959106445
1619375763.39851,-96.99951,17.393759965896606
1619375763.41413,-120.0515,17.409379959106445
1619375763.42976,-137.3011,17.425009965896606
1619375763.44539,-148.7834,17.440639972686768
1619375763.46101,-155.1239,17.456259965896606
1619375763.47664,-157.4193,17.471889972686768
1619375763.49226,-157.2714,17.487509965896606
1619375763.50789,-156.4664,17.503139972686768
1619375763.52351,-156.3214,17.518759965896606
1619375763.53914,-156.8383,17.534389972686768
1619375763.55477,-156.132,17.55001997947693
1619375763.57039,-150.7493,17.565639972686768
1619375763.58602,-136.981,17.58126997947693
1619375763.60164,-112.6078,17.596889972686768
1619375763.61727,-78.08643,17.61251997947693
1619375763.63289,-36.69629,17.628139972686768
1619375763.64852,6.659729,17.64376997947693
1619375763.66415,47.1474,17.65939998626709
1619375763.67977,81.40656,17.67501997947693
1619375763.6954,107.9232,17.69064998626709
1619375763.71102,126.7141,17.70626997947693
1619375763.72665,138.427,17.72189998626709
1619375763.74227,143.7524,17.73751997947693
1619375763.7579,143.3676,17.75314998626709
1619375763.77353,138.1396,17.76877999305725
1619375763.78915,129.3869,17.78439998626709
1619375763.80478,118.8531,17.80002999305725
1619375763.8204,108.2074,17.81564998626709
1619375763.83603,98.61206,17.83127999305725
1619375763.85165,90.51367,17.84689998626709
1619375763.86728,83.73566,17.86252999305725
1619375763.88291,77.84314,17.878159999847412
1619375763.89853,72.67542,17.89377999305725
1619375763.91416,68.34467,17.909409999847412
1619375763.92978,65.19916,17.92502999305725
1619375763.94541,63.51599,17.940659999847412
1619375763.96103,63.21783,17.95627999305725
1619375763.97666,63.78674,17.971909999847412
1619375763.99229,64.41217,17.987540006637573
1619375764.00791,64.20032,18.003159999847412
1619375764.02354,62.49158,18.018790006637573
1619375764.03916,59.02039,18.034409999847412
1619375764.05479,53.84161,18.050040006637573
1619375764.07041,47.24524,18.065659999847412
1619375764.08604,39.6105,18.081290006637573
1619375764.10167,31.32202,18.096920013427734
1619375764.11729,22.68744,18.112540006637573
1619375764.13292,13.98883,18.128170013427734
1619375764.14854,5.415161,18.143790006637573
1619375764.16417,-2.946869,18.159420013427734
1619375764.17979,-11.13165,18.175040006637573
1619375764.19542,-19.2204,18.190670013427734
1619375764.21105,-27.28351,18.206300020217896
1619375764.22667,-35.28885,18.221920013427734
1619375764.2423,-43.01181,18.237550020217896
1619375764.25792,-49.95303,18.253170013427734
1619375764.27355,-55.20071,18.268800020217896
1619375764.28917,-57.35901,18.284420013427734
1619375764.3048,-54.6261,18.300050020217896
1619375764.32043,-45.26825,18.315680027008057
1619375764.33605,-28.26572,18.331300020217896
1619375764.35168,-4.002838,18.346930027008057
1619375764.3673,25.40344,18.362550020217896
1619375764.38293,56.51276,18.378180027008057
1619375764.39855,85.52386,18.393800020217896
1619375764.41418,109.3924,18.409430027008057
1619375764.42981,126.7033,18.425060033798218
1619375764.44543,137.9384,18.440680027008057
1619375764.46106,144.9125,18.456310033798218
1619375764.47668,149.8574,18.471930027008057
1619375764.49231,154.4571,18.487560033798218
1619375764.50793,159.2572,18.503180027008057
1619375764.52356,163.7877,18.518810033798218
1619375764.53919,166.9634,18.53444004058838
1619375764.55481,167.6627,18.550060033798218
1619375764.57044,165.0909,18.56569004058838
1619375764.58606,158.8642,18.581310033798218
1619375764.60169,148.927,18.59694004058838
1619375764.61731,135.4618,18.612560033798218
1619375764.63294,118.993,18.62819004058838
1619375764.64857,100.6117,18.64382004737854
1619375764.66419,82.08951,18.65944004058838
1619375764.67982,65.57082,18.67507004737854
1619375764.69544,52.96234,18.69069004058838
1619375764.71107,45.17502,18.70632004737854
1619375764.72669,41.76454,18.72194004058838
1619375764.74232,41.15018,18.73757004737854
1619375764.75795,41.3726,18.7532000541687
1619375764.77357,40.82294,18.76882004737854
1619375764.7892,38.72075,18.7844500541687
1619375764.80482,34.97765,18.80007004737854
1619375764.82045,29.74617,18.8157000541687
1619375764.83607,23.10257,18.83132004737854
1619375764.8517,14.98752,18.8469500541687
1619375764.86733,5.362106,18.862580060958862
1619375764.88295,-5.521942,18.8782000541687
1619375764.89858,-17.12944,18.893830060958862
1619375764.9142,-28.91827,18.9094500541687
1619375764.92983,-40.77045,18.925080060958862
1619375764.94545,-53.24261,18.9407000541687
1619375764.96108,-67.34975,18.956330060958862
1619375764.97671,-83.90752,18.971960067749023
1619375764.99233,-102.6204,18.987580060958862
1619375765.00796,-121.5891,19.003210067749023
1619375765.02358,-137.415,19.018830060958862
1619375765.03921,-146.1266,19.034460067749023
1619375765.05483,-144.656,19.050080060958862
1619375765.07046,-132.1609,19.065710067749023
1619375765.08609,-110.6575,19.081340074539185
1619375765.10171,-84.51024,19.096960067749023
1619375765.11734,-58.95354,19.112590074539185
1619375765.13296,-38.33937,19.128210067749023
1619375765.14859,-24.96434,19.143840074539185
1619375765.16421,-18.78209,19.159460067749023
1619375765.17984,-18.0937,19.175090074539185
1619375765.19547,-20.64563,19.190720081329346
1619375765.21109,-24.48195,19.206340074539185
1619375765.22672,-28.22417,19.221970081329346
1619375765.24234,-30.94659,19.237590074539185
1619375765.25797,-31.76787,19.253220081329346
1619375765.27359,-29.82002,19.268840074539185
1619375765.28922,-24.46785,19.284470081329346
1619375765.30485,-15.74113,19.300100088119507
1619375765.32047,-4.541306,19.315720081329346
1619375765.3361,7.510216,19.331350088119507
1619375765.35172,18.75086,19.346970081329346
1619375765.36735,28.17846,19.362600088119507
1619375765.38297,35.7892,19.378220081329346
1619375765.3986,42.39804,19.393850088119507
1619375765.41423,49.0145,19.409480094909668
1619375765.42985,56.07558,19.425100088119507
1619375765.44548,63.06511,19.440730094909668
1619375765.4611,68.71706,19.456350088119507
1619375765.47673,71.62772,19.471980094909668
1619375765.49235,71.00606,19.487600088119507
1619375765.50798,67.0643,19.503230094909668
1619375765.52361,60.92537,19.51886010169983
1619375765.53923,54.1074,19.534480094909668
1619375765.55486,47.81379,19.55011010169983
1619375765.57048,42.41013,19.565730094909668
1619375765.58611,37.27132,19.58136010169983
1619375765.60174,31.04831,19.59698987007141
1619375765.61736,22.1171,19.61261010169983
1619375765.63299,9.208202,19.62823987007141
1619375765.64861,-8.191135,19.64386010169983
1619375765.66424,-29.503,19.65948987007141
1619375765.67986,-52.88558,19.67511010169983
1619375765.69549,-75.35641,19.69073987007141
1619375765.71112,-93.22102,19.706369876861572
1619375765.72674,-102.7248,19.72198987007141
1619375765.74237,-101.1025,19.737619876861572
1619375765.75799,-87.44439,19.75323987007141
1619375765.77362,-63.21092,19.768869876861572
1619375765.78924,-31.98708,19.78448987007141
1619375765.80487,1.453152,19.800119876861572
1619375765.8205,32.48854,19.815749883651733
1619375765.83612,57.8042,19.831369876861572
1619375765.85175,75.93633,19.846999883651733
1619375765.86737,87.21164,19.862619876861572
1619375765.883,92.95082,19.878249883651733
1619375765.89862,94.67674,19.893869876861572
1619375765.91425,93.5919,19.909499883651733
1619375765.92988,90.41218,19.925129890441895
1619375765.9455,85.53448,19.940749883651733
1619375765.96113,79.20055,19.956379890441895
1619375765.97675,71.6846,19.971999883651733
1619375765.99238,63.24956,19.987629890441895
1619375766.008,54.2097,20.003249883651733
1619375766.02363,44.87896,20.018879890441895
1619375766.03926,35.66964,20.034509897232056
1619375766.05488,27.04617,20.050129890441895
1619375766.07051,19.55558,20.065759897232056
1619375766.08613,13.78633,20.081379890441895
1619375766.10176,10.24229,20.097009897232056
1619375766.11738,9.172612,20.112629890441895
1619375766.13301,10.40816,20.128259897232056
1619375766.14864,13.24585,20.143889904022217
1619375766.16426,16.33754,20.159509897232056
1619375766.17989,18.01147,20.175139904022217
1619375766.19551,16.73879,20.190759897232056
1619375766.21114,11.79613,20.206389904022217
1619375766.22676,3.649986,20.222009897232056
1619375766.24239,-6.138845,20.237639904022217
1619375766.25802,-15.5113,20.253269910812378
1619375766.27364,-22.8296,20.268889904022217
1619375766.28927,-27.49339,20.284519910812378
1619375766.30489,-30.26972,20.300139904022217
1619375766.32052,-32.83447,20.315769910812378
1619375766.33614,-37.03745,20.331389904022217
1619375766.35177,-44.16459,20.347019910812378
1619375766.3674,-54.38521,20.36264991760254
1619375766.38302,-66.60417,20.378269910812378
1619375766.39865,-78.68656,20.39389991760254
1619375766.41427,-87.81049,20.409519910812378
1619375766.4299,-91.19342,20.42514991760254
1619375766.44552,-86.85275,20.440769910812378
1619375766.46115,-74.2577,20.45639991760254
1619375766.47678,-54.67915,20.4720299243927
1619375766.4924,-30.89972,20.48764991760254
1619375766.50803,-6.397023,20.5032799243927
1619375766.52365,15.62613,20.51889991760254
1619375766.53928,33.05264,20.5345299243927
1619375766.5549,45.10567,20.55014991760254
1619375766.57053,51.96614,20.5657799243927
1619375766.58616,54.34947,20.58140993118286
1619375766.60178,53.04792,20.5970299243927
1619375766.61741,48.78939,20.61265993118286
1619375766.63303,42.29424,20.6282799243927
1619375766.64866,34.37726,20.64390993118286
1619375766.66428,25.85591,20.6595299243927
1619375766.67991,17.35251,20.67515993118286
1619375766.69554,9.184528,20.690789937973022
1619375766.71116,1.4431,20.70640993118286
1619375766.72679,-5.890526,20.722039937973022
1619375766.74241,-12.69626,20.73765993118286
1619375766.75804,-18.58147,20.753289937973022
1619375766.77366,-23.10575,20.76890993118286
1619375766.78929,-25.80145,20.784539937973022
1619375766.80492,-26.42542,20.800169944763184
1619375766.82054,-25.03013,20.815789937973022
1619375766.83617,-22.04081,20.831419944763184
1619375766.85179,-18.17192,20.847039937973022
1619375766.86742,-14.32143,20.862669944763184
1619375766.88304,-11.401,20.878289937973022
1619375766.89867,-10.06624,20.893919944763184
1619375766.9143,-10.59557,20.909549951553345
1619375766.92992,-12.73782,20.925169944763184
1619375766.94555,-15.97104,20.940799951553345
1619375766.96117,-19.63312,20.956419944763184
1619375766.9768,-23.2994,20.972049951553345
1619375766.99242,-26.91161,20.987669944763184
1619375767.00805,-30.72837,21.003299951553345
1619375767.02368,-35.23584,21.018929958343506
1619375767.0393,-40.89527,21.034549951553345
1619375767.05493,-47.90624,21.050179958343506
1619375767.07055,-55.89652,21.065799951553345
1619375767.08618,-63.6897,21.081429958343506
1619375767.1018,-69.3536,21.097049951553345
1619375767.11743,-70.49566,21.112679958343506
1619375767.13306,-65.02617,21.128309965133667
1619375767.14868,-51.86913,21.143929958343506
1619375767.16431,-31.5612,21.159559965133667
1619375767.17993,-6.330841,21.175179958343506
1619375767.19556,20.50111,21.190809965133667
1619375767.21118,45.41501,21.206429958343506
1619375767.22681,65.60836,21.222059965133667
1619375767.24244,79.56304,21.237689971923828
1619375767.25806,87.12247,21.253309965133667
1619375767.27369,89.02727,21.268939971923828
1619375767.28931,86.46904,21.284559965133667
1619375767.30494,80.67329,21.300189971923828
1619375767.32056,72.71306,21.315809965133667
1619375767.33619,63.53428,21.331439971923828
1619375767.35182,53.92761,21.34706997871399
1619375767.36744,44.55478,21.362689971923828
1619375767.38307,35.81388,21.37831997871399
1619375767.39869,27.93477,21.393939971923828
1619375767.41432,20.97003,21.40956997871399
1619375767.42994,14.97626,21.425189971923828
1619375767.44557,10.12071,21.44081997871399
1619375767.4612,6.722961,21.45644998550415
1619375767.47682,5.132996,21.47206997871399
1619375767.49245,5.486969,21.48769998550415
1619375767.50807,7.561638,21.50331997871399
1619375767.5237,10.69241,21.51894998550415
1619375767.53932,13.94056,21.53456997871399
1619375767.55495,16.32844,21.55019998550415
1619375767.57058,17.13281,21.56582999229431
1619375767.5862,16.04032,21.58144998550415
1619375767.60183,13.161,21.59707999229431
1619375767.61745,8.984741,21.61269998550415
1619375767.63308,4.10672,21.62832999229431
1619375767.6487,-0.8561096,21.64394998550415
1619375767.66433,-5.491333,21.65957999229431
1619375767.67996,-9.718643,21.675209999084473
1619375767.69558,-13.85214,21.69082999229431
1619375767.71121,-18.44113,21.706459999084473
1619375767.72683,-23.88298,21.72207999229431
1619375767.74246,-29.98441,21.737709999084473
1619375767.75809,-35.53296,21.753340005874634
1619375767.77371,-38.43446,21.768959999084473
1619375767.78934,-36.19847,21.784590005874634
1619375767.80496,-26.87463,21.800209999084473
1619375767.82059,-9.924973,21.815840005874634
1619375767.83621,13.39201,21.831459999084473
1619375767.85184,40.28369,21.847090005874634
1619375767.86747,67.31786,21.862720012664795
1619375767.88309,91.40005,21.878340005874634
1619375767.89872,110.6329,21.893970012664795
1619375767.91434,124.4927,21.909590005874634
1619375767.92997,133.6051,21.925220012664795
1619375767.94559,139.1397,21.940840005874634
1619375767.96122,142.2426,21.956470012664795
1619375767.97685,143.7553,21.972100019454956
1619375767.99247,144.228,21.987720012664795
1619375768.0081,144.1455,22.003350019454956
1619375768.02372,144.1401,22.018970012664795
1619375768.03935,144.9822,22.034600019454956
1619375768.05497,147.4547,22.050220012664795
1619375768.0706,152.1155,22.065850019454956
1619375768.08623,159.11,22.081480026245117
1619375768.10185,168.1618,22.097100019454956
1619375768.11748,178.7105,22.112730026245117
1619375768.1331,190.0846,22.128350019454956
1619375768.14873,201.5787,22.143980026245117
1619375768.16435,212.5365,22.159600019454956
1619375768.17998,222.3245,22.175230026245117
1619375768.19561,230.3478,22.19086003303528
1619375768.21123,236.167,22.206480026245117
1619375768.22686,239.6143,22.22211003303528
1619375768.24248,240.8619,22.237730026245117
1619375768.25811,240.2833,22.25336003303528
1619375768.27373,238.101,22.268980026245117
1619375768.28936,233.998,22.28461003303528
1619375768.30499,227.0537,22.30024003982544
1619375768.32061,216.0155,22.31586003303528
1619375768.33624,199.9536,22.33149003982544
1619375768.35186,178.8094,22.34711003303528
1619375768.36749,153.6721,22.36274003982544
1619375768.38311,126.4714,22.37836003303528
1619375768.39874,99.32712,22.39399003982544
1619375768.41437,73.7818,22.4096200466156
1619375768.42999,50.36264,22.42524003982544
1619375768.44562,28.75699,22.4408700466156
1619375768.46124,8.295074,22.45649003982544
1619375768.47687,-11.39139,22.4721200466156
1619375768.49249,-30.01868,22.48774003982544
1619375768.50812,-46.74567,22.5033700466156
1619375768.52375,-60.66998,22.51900005340576
1619375768.53937,-71.22104,22.5346200466156
1619375768.555,-78.55908,22.55025005340576
1619375768.57062,-83.49609,22.5658700466156
1619375768.58625,-87.11584,22.58150005340576
1619375768.60187,-90.29883,22.5971200466156
1619375768.6175,-93.31732,22.61275005340576
1619375768.63313,-95.71045,22.628380060195923
1619375768.64875,-96.52661,22.64400005340576
1619375768.66438,-94.85522,22.659630060195923
1619375768.68,-90.43335,22.67525005340576
1619375768.69563,-84.05902,22.690880060195923
1619375768.71125,-77.53156,22.70650005340576
1619375768.72688,-73.11023,22.722130060195923
1619375768.74251,-72.73529,22.737760066986084
1619375768.75813,-77.20276,22.753380060195923
1619375768.77376,-85.84662,22.769010066986084
1619375768.78938,-96.90558,22.784630060195923
1619375768.80501,-108.3361,22.800260066986084
1619375768.82063,-118.8507,22.815880060195923
1619375768.83626,-128.6767,22.831510066986084
1619375768.85189,-139.5854,22.847140073776245
1619375768.86751,-154.4066,22.862760066986084
1619375768.88314,-176.3391,22.878390073776245
1619375768.89876,-208.3035,22.894010066986084
1619375768.91439,-252.3875,22.909640073776245
1619375768.93001,-309.0787,22.925260066986084
1619375768.94564,-376.2911,22.940890073776245
1619375768.96127,-448.6081,22.956520080566406
1619375768.97689,-517.5472,22.972140073776245
1619375768.99252,-573.2379,22.987770080566406
1619375769.00814,-607.3873,23.003390073776245
1619375769.02377,-616.2645,23.019020080566406
1619375769.03939,-602.021,23.034640073776245
1619375769.05502,-571.6454,23.050270080566406
1619375769.07065,-533.8809,23.065900087356567
1619375769.08627,-495.677,23.081520080566406
1619375769.1019,-460.0929,23.097150087356567
1619375769.11752,-426.5127,23.112770080566406
1619375769.13315,-392.6305,23.128400087356567
1619375769.14877,-356.7775,23.144020080566406
1619375769.1644,-319.1633,23.159650087356567
1619375769.18003,-281.3559,23.17528009414673
1619375769.19565,-244.8118,23.190900087356567
1619375769.21128,-209.598,23.20653009414673
1619375769.2269,-174.149,23.222150087356567
1619375769.24253,-136.2101,23.23778009414673
1619375769.25815,-94.11304,23.253400087356567
1619375769.27378,-47.8576,23.26903009414673
1619375769.28941,0.4547729,23.28466010093689
1619375769.30503,47.17499,23.30028009414673
1619375769.32066,88.22388,23.31591010093689
1619375769.33628,120.327,23.33153009414673
1619375769.35191,141.9736,23.34716010093689
1619375769.36753,153.6786,23.36278009414673
1619375769.38316,157.5344,23.37841010093689
1619375769.39879,156.314,23.39403986930847
1619375769.41441,152.4124,23.40966010093689
1619375769.43004,147.2679,23.42528986930847
1619375769.44566,141.426,23.44091010093689
1619375769.46129,135.0939,23.45653986930847
1619375769.47691,128.6921,23.47216010093689
1619375769.49254,123.1263,23.48778986930847
1619375769.50817,119.5028,23.503419876098633
1619375769.52379,118.4803,23.51903986930847
1619375769.53942,119.7061,23.534669876098633
1619375769.55504,121.7065,23.55028986930847
1619375769.57067,122.3679,23.565919876098633
1619375769.58629,119.7302,23.58153986930847
1619375769.60192,112.8699,23.597169876098633
1619375769.61755,102.2521,23.612799882888794
1619375769.63317,89.54749,23.628419876098633
1619375769.6488,77.00726,23.644049882888794
1619375769.66442,66.54083,23.659669876098633
1619375769.68005,58.89249,23.675299882888794
1619375769.69567,53.43701,23.690919876098633
1619375769.7113,48.45126,23.706549882888794
1619375769.72693,41.83298,23.722179889678955
1619375769.74255,31.94467,23.737799882888794
1619375769.75818,18.18274,23.753429889678955
1619375769.7738,1.271881,23.769049882888794
1619375769.78943,-16.8591,23.784679889678955
1619375769.80505,-33.41095,23.800299882888794
1619375769.82068,-45.36331,23.815929889678955
1619375769.83631,-50.16345,23.831559896469116
1619375769.85193,-46.366,23.847179889678955
1619375769.86756,-34.13342,23.862809896469116
1619375769.88318,-15.23187,23.878429889678955
1619375769.89881,7.49939,23.894059896469116
1619375769.91443,30.89944,23.909679889678955
1619375769.93006,52.26898,23.925309896469116
1619375769.94569,69.82733,23.940939903259277
1619375769.96131,82.7471,23.956559896469116
1619375769.97694,90.892,23.972189903259277
1619375769.99256,94.47639,23.987809896469116
1619375770.00819,93.963,24.003439903259277
1619375770.02381,90.05675,24.019059896469116
1619375770.03944,83.77351,24.034689903259277
1619375770.05507,76.46629,24.05031991004944
1619375770.07069,69.5701,24.065939903259277
1619375770.08632,64.30785,24.08156991004944
1619375770.10194,61.37244,24.097189903259277
1619375770.11757,60.76312,24.11281991004944
1619375770.13319,61.8497,24.128439903259277
1619375770.14882,63.61592,24.14406991004944
1619375770.16445,65.16707,24.1596999168396
1619375770.18007,65.94708,24.17531991004944
1619375770.1957,65.98076,24.1909499168396
1619375770.21132,65.63226,24.20656991004944
1619375770.22695,65.27826,24.2221999168396
1619375770.24257,64.91393,24.23781991004944
1619375770.2582,63.99736,24.2534499168396
1619375770.27383,61.58703,24.26907992362976
1619375770.28945,56.77805,24.2846999168396
1619375770.30508,49.13052,24.30032992362976
1619375770.3207,38.99088,24.3159499168396
1619375770.33633,27.32277,24.33157992362976
1619375770.35195,15.40384,24.3471999168396
1619375770.36758,4.332779,24.36282992362976
1619375770.38321,-5.279636,24.378459930419922
1619375770.39883,-13.3785,24.39407992362976
1619375770.41446,-20.37678,24.409709930419922
1619375770.43008,-26.96446,24.42532992362976
1619375770.44571,-33.94356,24.440959930419922
1619375770.46134,-42.03124,24.456589937210083
1619375770.47696,-51.59015,24.472209930419922
1619375770.49259,-62.18756,24.487839937210083
1619375770.50821,-72.34589,24.503459930419922
1619375770.52384,-79.56855,24.519089937210083
1619375770.53946,-80.96324,24.534709930419922
1619375770.55509,-74.15945,24.550339937210083
1619375770.57072,-58.38976,24.565969944000244
1619375770.58634,-35.00526,24.581589937210083
1619375770.60197,-7.218616,24.597219944000244
1619375770.61759,20.83283,24.612839937210083
1619375770.63322,45.44281,24.628469944000244
1619375770.64884,64.23132,24.644089937210083
1619375770.66447,76.48687,24.659719944000244
1619375770.6801,82.72352,24.675349950790405
1619375770.69572,84.0899,24.690969944000244
1619375770.71135,81.73357,24.706599950790405
1619375770.72697,76.52446,24.722219944000244
1619375770.7426,69.19485,24.737849950790405
1619375770.75822,60.49714,24.753469944000244
1619375770.77385,51.3812,24.769099950790405
1619375770.78948,42.87994,24.784729957580566
1619375770.8051,35.87826,24.800349950790405
1619375770.82073,30.8232,24.815979957580566
1619375770.83635,27.63799,24.831599950790405
1619375770.85198,25.88506,24.847229957580566
1619375770.8676,25.03386,24.862849950790405
1619375770.88323,24.76167,24.878479957580566
1619375770.89886,25.02699,24.894109964370728
1619375770.91448,25.92426,24.909729957580566
1619375770.93011,27.38875,24.925359964370728
1619375770.94573,28.99728,24.940979957580566
1619375770.96136,29.93698,24.956609964370728
1619375770.97698,29.25041,24.972229957580566
1619375770.99261,26.23552,24.987859964370728
1619375771.00824,20.78212,25.00348997116089
1619375771.02386,13.39952,25.019109964370728
1619375771.03949,5.008041,25.03473997116089
1619375771.05511,-3.407715,25.050359964370728
1619375771.07074,-11.21011,25.06598997116089
1619375771.08636,-18.23695,25.081609964370728
1619375771.10199,-24.70631,25.09723997116089
1619375771.11762,-31.17578,25.11286997795105
1619375771.13324,-38.33563,25.12848997116089
1619375771.14887,-46.77765,25.14411997795105
1619375771.16449,-56.67419,25.15973997116089
1619375771.18012,-67.37825,25.17536997795105
1619375771.19574,-77.17807,25.19098997116089
1619375771.21137,-83.50316,25.20661997795105
1619375771.227,-83.5743,25.22224998474121
1619375771.24262,-75.39175,25.23786997795105
1619375771.25825,-58.61755,25.25349998474121
1619375771.27387,-34.99962,25.26911997795105
1619375771.2895,-7.957413,25.28474998474121
1619375771.30512,18.45805,25.30036997795105
1619375771.32075,40.79263,25.31599998474121
1619375771.33638,57.03381,25.331629991531372
1619375771.352,66.85211,25.34724998474121
1619375771.36763,71.16656,25.362879991531372
1619375771.38325,71.46957,25.37849998474121
1619375771.39888,69.07056,25.394129991531372
1619375771.4145,64.86679,25.40974998474121
1619375771.43013,59.3353,25.425379991531372
1619375771.44576,52.78171,25.441009998321533
1619375771.46138,45.57852,25.456629991531372
1619375771.47701,38.30103,25.472259998321533
1619375771.49263,31.69019,25.487879991531372
1619375771.50826,26.49844,25.503509998321533
1619375771.52388,23.30673,25.519129991531372
1619375771.53951,22.26337,25.534759998321533
1619375771.55514,23.07526,25.550390005111694
1619375771.57076,25.07126,25.566009998321533
1619375771.58639,27.39194,25.581640005111694
1619375771.60201,29.27087,25.597259998321533
1619375771.61764,30.28058,25.612890005111694
1619375771.63326,30.39636,25.628509998321533
1619375771.64889,29.86453,25.644140005111694
1619375771.66452,28.95572,25.659770011901855
1619375771.68014,27.63306,25.675390005111694
1619375771.69577,25.50266,25.691020011901855
1619375771.71139,21.95343,25.706640005111694
1619375771.72702,16.44601,25.722270011901855
1619375771.74264,8.934204,25.737890005111694
1619375771.75827,-0.02133179,25.753520011901855
1619375771.7739,-9.421295,25.769150018692017
1619375771.78952,-18.20346,25.784770011901855
1619375771.80515,-25.70425,25.800400018692017
1619375771.82077,-31.84183,25.816020011901855
1619375771.8364,-37.07568,25.831650018692017
1619375771.85202,-42.13553,25.847270011901855
1619375771.86765,-47.80792,25.862900018692017
1619375771.88328,-54.6893,25.878530025482178
1619375771.8989,-63.14584,25.894150018692017
1619375771.91453,-73.07178,25.909780025482178
1619375771.93015,-83.65564,25.925400018692017
1619375771.94578,-93.08527,25.941030025482178
1619375771.9614,-98.70557,25.956650018692017
1619375771.97703,-97.6684,25.972280025482178
1619375771.99266,-87.91452,25.98791003227234
1619375772.00828,-69.22717,26.003530025482178
1619375772.02391,-43.55811,26.01916003227234
1619375772.03953,-14.5368,26.034780025482178
1619375772.05516,13.65933,26.05041003227234
1619375772.07078,37.56018,26.066030025482178
1619375772.08641,55.30136,26.08166003227234
1619375772.10204,66.63354,26.0972900390625
1619375772.11766,72.42447,26.11291003227234
1619375772.13329,73.94778,26.1285400390625
1619375772.14891,72.29453,26.14416003227234
1619375772.16454,68.25546,26.1597900390625
1619375772.18016,62.4769,26.17541003227234
1619375772.19579,55.67041,26.1910400390625
1619375772.21142,48.71057,26.20667004585266
1619375772.22704,42.47119,26.2222900390625
1619375772.24267,37.66245,26.23792004585266
1619375772.25829,34.65231,26.2535400390625
1619375772.27392,33.45419,26.26917004585266
1619375772.28954,33.82944,26.2847900390625
1619375772.30517,35.41711,26.30042004585266
1619375772.3208,37.8483,26.316050052642822
1619375772.33642,40.71176,26.33167004585266
1619375772.35205,43.62927,26.347300052642822
1619375772.36767,46.09479,26.36292004585266
1619375772.3833,47.582,26.378550052642822
1619375772.39892,47.59253,26.39417004585266
1619375772.41455,45.93149,26.409800052642822
1619375772.43018,42.67285,26.425430059432983
1619375772.4458,38.17371,26.441050052642822
1619375772.46143,32.87228,26.456680059432983
1619375772.47705,27.12823,26.472300052642822
1619375772.49268,21.17062,26.487930059432983
1619375772.5083,14.9967,26.503550052642822
1619375772.52393,8.513031,26.519180059432983
1619375772.53956,1.58316,26.534810066223145
1619375772.55518,-5.773376,26.550430059432983
1619375772.57081,-13.4183,26.566060066223145
1619375772.58643,-21.03421,26.581680059432983
1619375772.60206,-28.26779,26.597310066223145
1619375772.61768,-34.8132,26.612930059432983
1619375772.63331,-40.54568,26.628560066223145
1619375772.64894,-45.63464,26.644190073013306
1619375772.66456,-50.53079,26.659810066223145
1619375772.68019,-55.96408,26.675440073013306
1619375772.69581,-62.6525,26.691060066223145
1619375772.71144,-70.85535,26.706690073013306
1619375772.72707,-79.8869,26.722320079803467
1619375772.74269,-87.875,26.737940073013306
1619375772.75832,-92.03036,26.753570079803467
1619375772.77394,-89.50638,26.769190073013306
1619375772.78957,-78.50317,26.784820079803467
1619375772.80519,-59.19016,26.800440073013306
1619375772.82082,-33.89218,26.816070079803467
1619375772.83645,-6.438751,26.831700086593628
1619375772.85207,19.2171,26.847320079803467
1619375772.8677,40.19656,26.862950086593628
1619375772.88332,55.3959,26.878570079803467
1619375772.89895,65.23386,26.894200086593628
1619375772.91457,70.88589,26.909820079803467
1619375772.9302,73.40143,26.925450086593628
1619375772.94583,73.32144,26.94108009338379
1619375772.96145,70.82855,26.956700086593628
1619375772.97708,66.09076,26.97233009338379
1619375772.9927,59.69952,26.987950086593628
1619375773.00833,52.60559,27.00358009338379
1619375773.02395,45.90952,27.019200086593628
1619375773.03958,40.4313,27.03483009338379
1619375773.05521,36.52798,27.05046010017395
1619375773.07083,34.1109,27.06608009338379
1619375773.08646,32.83383,27.08171010017395
1619375773.10208,32.35553,27.09733009338379
1619375773.11771,32.46762,27.11296010017395
1619375773.13333,33.09079,27.12858009338379
1619375773.14896,34.13333,27.14421010017395
1619375773.16459,35.45306,27.159839868545532
1619375773.18021,36.74719,27.17546010017395
1619375773.19584,37.65607,27.191089868545532
1619375773.21146,37.79318,27.20671010017395
1619375773.22709,36.75757,27.222339868545532
1619375773.24271,34.31927,27.23796010017395
1619375773.25834,30.35229,27.253589868545532
1619375773.27397,24.95721,27.269219875335693
1619375773.28959,18.3782,27.284839868545532
1619375773.30522,11.05731,27.300469875335693
1619375773.32084,3.409485,27.316089868545532
1619375773.33647,-4.176239,27.331719875335693
1619375773.35209,-11.44562,27.347339868545532
1619375773.36772,-18.32599,27.362969875335693
1619375773.38335,-24.84317,27.378599882125854
1619375773.39897,-31.16516,27.394219875335693
1619375773.4146,-37.52438,27.409849882125854
1619375773.43022,-44.3175,27.425469875335693
1619375773.44585,-52.00174,27.441099882125854
1619375773.46147,-60.92151,27.456719875335693
1619375773.4771,-70.8782,27.472349882125854
1619375773.49273,-80.74329,27.487979888916016
1619375773.50835,-88.4248,27.503599882125854
1619375773.52398,-91.24796,27.519229888916016
1619375773.5396,-86.82727,27.534849882125854
1619375773.55523,-74.1171,27.550479888916016
1619375773.57085,-53.96875,27.566099882125854
1619375773.58648,-29.11047,27.581729888916016
1619375773.60211,-3.282776,27.597359895706177
1619375773.61773,19.9805,27.612979888916016
1619375773.63336,38.2991,27.628609895706177
1619375773.64898,50.87604,27.644229888916016
1619375773.66461,58.19275,27.659859895706177
1619375773.68023,61.24008,27.675479888916016
1619375773.69586,60.93704,27.691109895706177
1619375773.71149,57.86945,27.706739902496338
1619375773.72711,52.37939,27.722359895706177
1619375773.74274,44.98569,27.737989902496338
1619375773.75836,36.54071,27.753609895706177
1619375773.77399,28.17258,27.769239902496338
1619375773.78961,20.88974,27.784859895706177
1619375773.80524,15.32349,27.800489902496338
1619375773.82087,11.54468,27.8161199092865
1619375773.83649,9.234924,27.831739902496338
1619375773.85212,7.988129,27.8473699092865
1619375773.86774,7.531555,27.862989902496338
1619375773.88337,7.774292,27.8786199092865
1619375773.89899,8.691284,27.894239902496338
1619375773.91462,10.16632,27.9098699092865
1619375773.93025,11.91055,27.92549991607666
1619375773.94587,13.56082,27.9411199092865
1619375773.9615,14.81088,27.95674991607666
1619375773.97712,15.47797,27.9723699092865
1619375773.99275,15.47729,27.98799991607666
1619375774.00837,14.65106,28.0036199092865
1619375774.024,12.76575,28.01924991607666
1619375774.03963,9.48819,28.03487992286682
1619375774.05525,4.66568,28.05049991607666
1619375774.07088,-1.442627,28.06612992286682
1619375774.0865,-8.21582,28.08174991607666
1619375774.10213,-14.87518,28.09737992286682
1619375774.11775,-20.80853,28.11299991607666
1619375774.13338,-25.78961,28.12862992286682
1619375774.14901,-30.09131,28.144259929656982
1619375774.16463,-34.17908,28.15987992286682
1619375774.18026,-38.61441,28.175509929656982
1619375774.19588,-43.83282,28.19112992286682
1619375774.21151,-50.12805,28.206759929656982
1619375774.22713,-57.74127,28.22237992286682
1619375774.24276,-66.65701,28.238009929656982
1619375774.25839,-76.30228,28.253639936447144
1619375774.27401,-85.14664,28.269259929656982
1619375774.28964,-90.78326,28.284889936447144
1619375774.30526,-90.45477,28.300509929656982
1619375774.32089,-82.0787,28.316139936447144
1619375774.33651,-65.13956,28.331759929656982
1619375774.35214,-41.22726,28.347389936447144
1619375774.36777,-13.61435,28.363019943237305
1619375774.38339,13.72617,28.378639936447144
1619375774.39902,37.35242,28.394269943237305
1619375774.41464,55.24496,28.409889936447144
1619375774.43027,66.96933,28.425519943237305
1619375774.44589,73.32864,28.441139936447144
1619375774.46152,75.60214,28.456769943237305
1619375774.47715,75.01447,28.472399950027466
1619375774.49277,72.34457,28.488019943237305
1619375774.5084,67.99432,28.503649950027466
1619375774.52402,62.24286,28.519269943237305
1619375774.53965,55.44476,28.534899950027466
1619375774.55527,48.1893,28.550519943237305
1619375774.5709,41.21307,28.566149950027466
1619375774.58653,35.24695,28.581779956817627
1619375774.60215,30.71152,28.597399950027466
1619375774.61778,27.6539,28.613029956817627
1619375774.6334,25.77966,28.628649950027466
1619375774.64903,24.66019,28.644279956817627
1619375774.66465,24.03278,28.659899950027466
1619375774.68028,23.84698,28.675529956817627
1619375774.69591,24.18222,28.691159963607788
1619375774.71153,25.01181,28.706779956817627
1619375774.72716,26.0885,28.722409963607788
1619375774.74278,26.95395,28.738029956817627
1619375774.75841,27.03564,28.753659963607788
1619375774.77403,25.90024,28.769279956817627
1619375774.78966,23.31546,28.784909963607788
1619375774.80529,19.26523,28.80053997039795
1619375774.82091,13.87634,28.816159963607788
1619375774.83654,7.40213,28.83178997039795
1619375774.85216,0.1902771,28.847409963607788
1619375774.86779,-7.335388,28.86303997039795
1619375774.88341,-14.72906,28.878659963607788
1619375774.89904,-21.63492,28.89428997039795
1619375774.91467,-27.91373,28.90991997718811
1619375774.93029,-33.64087,28.92553997039795
1619375774.94592,-38.99341,28.94116997718811
1619375774.96154,-44.22809,28.95678997039795
1619375774.97717,-49.60513,28.97241997718811
1619375774.99279,-55.50671,28.98803997039795
1619375775.00842,-62.34634,29.00366997718811
1619375775.02405,-70.18649,29.01929998397827
1619375775.03967,-78.36221,29.03491997718811
1619375775.0553,-85.12305,29.05054998397827
1619375775.07092,-87.91486,29.06616997718811
1619375775.08655,-84.11493,29.08179998397827
1619375775.10218,-72.17059,29.097429990768433
1619375775.1178,-52.39041,29.11304998397827
1619375775.13343,-27.07678,29.128679990768433
1619375775.14905,0.1212769,29.14429998397827
1619375775.16468,25.43881,29.159929990768433
1619375775.1803,46.05862,29.17554998397827
1619375775.19593,60.77048,29.191179990768433
1619375775.21156,69.77533,29.206809997558594
1619375775.22718,74.14267,29.222429990768433
1619375775.24281,75.11154,29.238059997558594
1619375775.25843,73.59183,29.253679990768433
1619375775.27406,70.12589,29.269309997558594
1619375775.28968,65.02856,29.284929990768433
1619375775.30531,58.66727,29.300559997558594
1619375775.32094,51.54202,29.316190004348755
1619375775.33656,44.2933,29.331809997558594
1619375775.35219,37.57043,29.347440004348755
1619375775.36781,31.86307,29.363059997558594
1619375775.38344,27.44083,29.378690004348755
1619375775.39906,24.37076,29.394309997558594
1619375775.41469,22.58408,29.409940004348755
1619375775.43032,21.9639,29.425570011138916
1619375775.44594,22.36267,29.441190004348755
1619375775.46157,23.4827,29.456820011138916
1619375775.47719,24.87976,29.472440004348755
1619375775.49282,25.99792,29.488070011138916
1619375775.50844,26.25754,29.503690004348755
1619375775.52407,25.2507,29.519320011138916
1619375775.5397,22.76376,29.534950017929077
1619375775.55532,18.79272,29.550570011138916
1619375775.57095,13.39584,29.566200017929077
1619375775.58657,6.687683,29.581820011138916
1619375775.6022,-1.131287,29.597450017929077
1619375775.61782,-9.66095,29.613070011138916
1619375775.63345,-18.23981,29.628700017929077
1619375775.64908,-26.13461,29.64433002471924
1619375775.6647,-32.73248,29.659950017929077
1619375775.68033,-37.79254,29.67558002471924
1619375775.69595,-41.54788,29.691200017929077
1619375775.71158,-44.64081,29.70683002471924
1619375775.7272,-47.93784,29.722450017929077
1619375775.74283,-52.29276,29.73808002471924
1619375775.75846,-58.34186,29.7537100315094
1619375775.77408,-66.2731,29.76933002471924
1619375775.78971,-75.61389,29.7849600315094
1619375775.80533,-84.95123,29.80058002471924
1619375775.82096,-92.03384,29.8162100315094
1619375775.83658,-94.19919,29.83183002471924
1619375775.85221,-89.20285,29.8474600315094
1619375775.86784,-76.0668,29.86309003829956
1619375775.88346,-55.64096,29.8787100315094
1619375775.89909,-30.41733,29.89434003829956
1619375775.91471,-3.744751,29.9099600315094
1619375775.93034,21.16226,29.92559003829956
1619375775.94596,42.0563,29.9412100315094
1619375775.96159,57.88074,29.95684003829956
1619375775.97722,68.5177,29.97247004508972
1619375775.99284,74.35782,29.98809003829956
1619375776.00847,75.90674,30.00372004508972
1619375776.02409,73.65436,30.01934003829956
1619375776.03972,68.16827,30.03497004508972
1619375776.05534,60.29437,30.05059003829956
1619375776.07097,51.07703,30.06622004508972
1619375776.0866,41.67578,30.081850051879883
1619375776.10222,33.0668,30.09747004508972
1619375776.11785,25.83154,30.113100051879883
1619375776.13347,20.11722,30.12872004508972
1619375776.1491,15.7088,30.144350051879883
1619375776.16472,12.27405,30.15997004508972
1619375776.18035,9.607178,30.175600051879883
1619375776.19598,7.776703,30.191230058670044
1619375776.2116,6.943756,30.206850051879883
1619375776.22723,7.269287,30.222480058670044
1619375776.24285,8.672272,30.238100051879883
1619375776.25848,10.70837,30.253730058670044
1619375776.2741,12.67554,30.269350051879883
1619375776.28973,13.7681,30.284980058670044
1619375776.30536,13.27878,30.300610065460205
1619375776.32098,10.77118,30.316230058670044
1619375776.33661,6.222046,30.331860065460205
1619375776.35223,-0.0664978,30.347480058670044
1619375776.36786,-7.421173,30.363110065460205
1619375776.38348,-14.99231,30.378730058670044
1619375776.39911,-22.08011,30.394360065460205
1619375776.41474,-28.27719,30.409990072250366
1619375776.43036,-33.63541,30.425610065460205
1619375776.44599,-38.62512,30.441240072250366
1619375776.46161,-43.92731,30.456860065460205
1619375776.47724,-50.19382,30.472490072250366
1619375776.49286,-57.74432,30.488110065460205
1619375776.50849,-66.30417,30.503740072250366
1619375776.52412,-74.78909,30.519370079040527
1619375776.53974,-81.42438,30.534990072250366
1619375776.55537,-83.88809,30.550620079040527
1619375776.57099,-80.05301,30.566240072250366
1619375776.58662,-68.77139,30.581870079040527
1619375776.60224,-50.51508,30.597490072250366
1619375776.61787,-27.4537,30.613120079040527
1619375776.6335,-2.885986,30.62875008583069
1619375776.64912,19.81485,30.644370079040527
1619375776.66475,38.29742,30.66000008583069
1619375776.68037,51.5733,30.675620079040527
1619375776.696,60.00363,30.69125008583069
1619375776.71162,64.47318,30.706870079040527
1619375776.72725,65.74329,30.72250008583069
1619375776.74288,64.15848,30.73813009262085
1619375776.7585,59.85733,30.75375008583069
1619375776.77413,53.15323,30.76938009262085
1619375776.78975,44.84238,30.78500008583069
1619375776.80538,36.14621,30.80063009262085
1619375776.821,28.28784,30.81625008583069
1619375776.83663,22.1022,30.83188009262085
1619375776.85226,17.72058,30.84751009941101
1619375776.86788,14.73676,30.86313009262085
1619375776.88351,12.55539,30.87876009941101
1619375776.89913,10.75778,30.89438009262085
1619375776.91476,9.354828,30.91001009941101
1619375776.93038,8.674957,30.92563009262085
1619375776.94601,9.153473,30.94126009941101
1619375776.96164,10.93091,30.956889867782593
1619375776.97726,13.69882,30.97251009941101
1619375776.99289,16.66226,30.988139867782593
1619375777.00851,18.7713,31.00376009941101
1619375777.02414,19.06006,31.019389867782593
1619375777.03976,16.93243,31.03501009941101
1619375777.05539,12.33112,31.050639867782593
1619375777.07102,5.727661,31.066269874572754
1619375777.08664,-2.064667,31.081889867782593
1619375777.10227,-10.18094,31.097519874572754
1619375777.11789,-17.95767,31.113139867782593
1619375777.13352,-25.11917,31.128769874572754
1619375777.14914,-31.81503,31.144389867782593
1619375777.16477,-38.52615,31.160019874572754
1619375777.1804,-45.93668,31.175649881362915
1619375777.19602,-54.7124,31.191269874572754
1619375777.21165,-65.18762,31.206899881362915
1619375777.22727,-77.0011,31.222519874572754
1619375777.2429,-88.85385,31.238149881362915
1619375777.25852,-98.46329,31.253769874572754
1619375777.27415,-103.0417,31.269399881362915
1619375777.28978,-100.1089,31.285029888153076
1619375777.3054,-88.39978,31.300649881362915
1619375777.32103,-68.46399,31.316279888153076
1619375777.33665,-42.70175,31.331899881362915
1619375777.35228,-14.71481,31.347529888153076
1619375777.3679,11.77969,31.363149881362915
1619375777.38353,33.99646,31.378779888153076
1619375777.39916,50.62903,31.394409894943237
1619375777.41478,61.76535,31.410029888153076
1619375777.43041,68.36414,31.425659894943237
1619375777.44603,71.54391,31.441279888153076
1619375777.46166,72.04813,31.456909894943237
1619375777.47728,70.19003,31.472529888153076
1619375777.49291,66.00555,31.488159894943237
1619375777.50854,59.62524,31.5037899017334
1619375777.52416,51.56873,31.519409894943237
1619375777.53979,42.71768,31.5350399017334
1619375777.55541,34.0661,31.550659894943237
1619375777.57104,26.4729,31.5662899017334
1619375777.58667,20.33932,31.58191990852356
1619375777.60229,15.62036,31.5975399017334
1619375777.61792,12.02872,31.61316990852356
1619375777.63354,9.313721,31.6287899017334
1619375777.64917,7.39978,31.64441990852356
1619375777.66479,6.347778,31.6600399017334
1619375777.68042,6.216187,31.67566990852356
1619375777.69605,6.780426,31.69129991531372
1619375777.71167,7.499695,31.70691990852356
1619375777.7273,7.634674,31.72254991531372
1619375777.74292,6.457855,31.73816990852356
1619375777.75855,3.56723,31.75379991531372
1619375777.77417,-1.029633,31.76941990852356
1619375777.7898,-6.885193,31.78504991531372
1619375777.80543,-13.24838,31.800679922103882
1619375777.82105,-19.24188,31.81629991531372
1619375777.83668,-24.17761,31.831929922103882
1619375777.8523,-27.72131,31.84754991531372
1619375777.86793,-30.02194,31.863179922103882
1619375777.88355,-31.68661,31.87879991531372
1619375777.89918,-33.60638,31.894429922103882
1619375777.91481,-36.77496,31.910059928894043
1619375777.93043,-41.9447,31.925679922103882
1619375777.94606,-49.36374,31.941309928894043
1619375777.96168,-58.49417,31.956929922103882
1619375777.97731,-67.94452,31.972559928894043
1619375777.99293,-75.50034,31.988179922103882
1619375778.00856,-78.58832,32.00380992889404
1619375778.02419,-75.0162,32.019439935684204
1619375778.03981,-63.71844,32.03505992889404
1619375778.05544,-45.42056,32.050689935684204
1619375778.07106,-22.47485,32.06630992889404
1619375778.08669,1.803955,32.081939935684204
1619375778.10231,24.19205,32.09755992889404
1619375778.11794,42.50098,32.113189935684204
1619375778.13357,55.88489,32.128819942474365
1619375778.14919,64.62094,32.144439935684204
1619375778.16482,69.33517,32.160069942474365
1619375778.18044,70.5033,32.175689935684204
1619375778.19607,68.2998,32.191319942474365
1619375778.21169,62.87735,32.206939935684204
1619375778.22732,54.80042,32.222569942474365
1619375778.24295,45.19086,32.238199949264526
1619375778.25857,35.49005,32.253819942474365
1619375778.2742,26.98523,32.269449949264526
1619375778.28982,20.3389,32.285069942474365
1619375778.30545,15.48318,32.300699949264526
1619375778.32107,11.85791,32.316319942474365
1619375778.3367,8.863525,32.331949949264526
1619375778.35233,6.212463,32.34757995605469
1619375778.36795,4.087402,32.363199949264526
1619375778.38358,2.954163,32.37882995605469
1619375778.3992,3.15921,32.394449949264526
1619375778.41483,4.662628,32.41007995605469
1619375778.43045,6.796936,32.425699949264526
1619375778.44608,8.476471,32.44132995605469
1619375778.46171,8.561768,32.45695996284485
1619375778.47733,6.263763,32.47257995605469
1619375778.49296,1.431458,32.48820996284485
1619375778.50858,-5.362427,32.50382995605469
1619375778.52421,-13.08493,32.51945996284485
1619375778.53983,-20.60074,32.53507995605469
1619375778.55546,-27.00262,32.55070996284485
1619375778.57109,-31.93008,32.56633996963501
1619375778.58671,-35.58908,32.58195996284485
1619375778.60234,-38.56976,32.59758996963501
1619375778.61796,-41.6701,32.61320996284485
1619375778.63359,-45.70609,32.62883996963501
1619375778.64921,-51.33151,32.64445996284485
1619375778.66484,-58.75516,32.66008996963501
1619375778.68047,-67.45728,32.67571997642517
1619375778.69609,-75.89618,32.69133996963501
1619375778.71172,-81.71237,32.70696997642517
1619375778.72734,-82.25992,32.72258996963501
1619375778.74297,-75.53281,32.73821997642517
1619375778.75859,-61.08722,32.75383996963501
1619375778.77422,-40.37283,32.76946997642517
1619375778.78985,-16.44431,32.78509998321533
1619375778.80547,7.069244,32.80071997642517
1619375778.8211,27.18024,32.81634998321533
1619375778.83672,42.25439,32.83196997642517
1619375778.85235,52.07458,32.84759998321533
1619375778.86797,57.26984,32.86321997642517
1619375778.8836,58.63721,32.87884998321533
1619375778.89923,56.66721,32.89447999000549
1619375778.91485,51.72134,32.91009998321533
1619375778.93048,44.27859,32.92572999000549
1619375778.9461,35.31845,32.94134998321533
1619375778.96173,26.21399,32.95697999000549
1619375778.97735,18.32986,32.97259998321533
1619375778.99298,12.5466,32.98822999000549
1619375779.00861,9.031616,33.003859996795654
1619375779.02423,7.328674,33.01947999000549
1619375779.03986,6.681671,33.035109996795654
1619375779.05548,6.567688,33.05072999000549
1619375779.07111,6.833496,33.066359996795654
1619375779.08673,7.695526,33.08197999000549
1619375779.10236,9.381378,33.097609996795654
1619375779.11799,11.85938,33.113240003585815
1619375779.13361,14.64203,33.128859996795654
1619375779.14924,16.86737,33.144490003585815
1619375779.16486,17.6713,33.160109996795654
1619375779.18049,16.45486,33.175740003585815
1619375779.19611,13.24051,33.191359996795654
1619375779.21174,8.561554,33.206990003585815
1619375779.22737,3.280579,33.22262001037598
1619375779.24299,-1.854309,33.238240003585815
1619375779.25862,-6.436737,33.25387001037598
1619375779.27424,-10.57083,33.269490003585815
1619375779.28987,-14.85767,33.28512001037598
1619375779.30549,-20.14264,33.300740003585815
1619375779.32112,-27.20621,33.31637001037598
1619375779.33675,-36.28067,33.33200001716614
1619375779.35237,-46.75107,33.34762001037598
1619375779.368,-56.8609,33.36325001716614
1619375779.38362,-64.02023,33.37887001037598
1619375779.39925,-65.35614,33.39450001716614
1619375779.41487,-58.67801,33.41012001037598
1619375779.4305,-43.36533,33.42575001716614
1619375779.44613,-20.7439,33.4413800239563
1619375779.46175,6.205444,33.45700001716614
1619375779.47738,33.81927,33.4726300239563
1619375779.493,58.77167,33.48825001716614
1619375779.50863,79.01154,33.5038800239563
1619375779.52425,93.93631,33.51950001716614
1619375779.53988,104.0985,33.5351300239563
1619375779.55551,110.576,33.55076003074646
1619375779.57113,114.3632,33.5663800239563
1619375779.58676,116.1624,33.58201003074646
1619375779.60238,116.3802,33.5976300239563
1619375779.61801,115.4235,33.61326003074646
1619375779.63363,113.8315,33.6288800239563
1619375779.64926,112.3024,33.64451003074646
1619375779.66489,111.4848,33.66014003753662
1619375779.68051,111.8347,33.67576003074646
1619375779.69614,113.5403,33.69139003753662
1619375779.71176,116.6016,33.70701003074646
1619375779.72739,121.0702,33.72264003753662
1619375779.74302,127.0453,33.73827004432678
1619375779.75864,134.6571,33.75389003753662
1619375779.77427,143.8979,33.76952004432678
1619375779.78989,154.3444,33.78514003753662
1619375779.80552,165.1376,33.80077004432678
1619375779.82114,175.1573,33.81639003753662
1619375779.83677,183.3821,33.83202004432678
1619375779.8524,189.2636,33.84765005111694
1619375779.86802,192.9973,33.86327004432678
1619375779.88365,195.3738,33.87890005111694
1619375779.89927,197.558,33.89452004432678
1619375779.9149,200.7256,33.91015005111694
1619375779.93052,205.6848,33.92577004432678
1619375779.94615,212.5429,33.94140005111694
1619375779.96178,220.5716,33.957030057907104
1619375779.9774,228.2092,33.97265005111694
1619375779.99303,233.2883,33.988280057907104
1619375780.00865,233.4886,34.00390005111694
1619375780.02428,226.8174,34.019530057907104
1619375780.0399,212.239,34.03515005111694
1619375780.05553,189.9439,34.050780057907104
1619375780.07116,161.3068,34.066410064697266
1619375780.08678,128.4129,34.082030057907104
1619375780.10241,93.5407,34.097660064697266
1619375780.11803,58.61882,34.113280057907104
1619375780.13366,25.0549,34.128910064697266
1619375780.14928,-6.174896,34.144530057907104
1619375780.16491,-34.32677,34.160160064697266
1619375780.18054,-58.63873,34.17579007148743
1619375780.19616,-78.44687,34.191410064697266
1619375780.21179,-93.44781,34.20704007148743
1619375780.22741,-103.9544,34.222660064697266
1619375780.24304,-110.9733,34.23829007148743
1619375780.25866,-115.8606,34.253910064697266
1619375780.27429,-119.7502,34.26954007148743
1619375780.28992,-123.0589,34.28517007827759
1619375780.30554,-125.2896,34.30079007148743
1619375780.32117,-125.3874,34.31642007827759
1619375780.33679,-122.4515,34.33204007148743
1619375780.35242,-116.4926,34.34767007827759
1619375780.36804,-108.8568,34.36329007148743
1619375780.38367,-101.9615,34.37892007827759
1619375780.3993,-98.51404,34.39455008506775
1619375780.41492,-100.3732,34.41017007827759
1619375780.43055,-107.7936,34.42580008506775
1619375780.44617,-119.2956,34.44142007827759
1619375780.4618,-132.3922,34.45705008506775
1619375780.47742,-144.6976,34.47267007827759
1619375780.49305,-154.9874,34.48830008506775
1619375780.50868,-163.7189,34.50393009185791
1619375780.5243,-172.8091,34.51955008506775
1619375780.53993,-185.0652,34.53518009185791
1619375780.55555,-203.4306,34.55080008506775
1619375780.57118,-230.4354,34.56643009185791
1619375780.5868,-267.4696,34.58205008506775
1619375780.60243,-313.8256,34.59768009185791
1619375780.61806,-365.7436,34.61331009864807
1619375780.63368,-416.2293,34.62893009185791
1619375780.64931,-456.3664,34.64456009864807
1619375780.66493,-478.2188,34.66018009185791
1619375780.68056,-478.1348,34.67581009864807
1619375780.69618,-458.7592,34.69143009185791
1619375780.71181,-428.2469,34.70706009864807
1619375780.72744,-396.918,34.72269010543823
1619375780.74306,-372.7493,34.73831009864807
1619375780.75869,-358.2245,34.75394010543823
1619375780.77431,-350.1276,34.76956009864807
1619375780.78994,-342.2085,34.78519010543823
1619375780.80556,-328.9373,34.80081009864807
1619375780.82119,-308.2232,34.81644010543823
1619375780.83682,-281.6159,34.832069873809814
1619375780.85244,-252.3731,34.84769010543823
1619375780.86807,-223.09,34.863319873809814
1619375780.88369,-194.2107,34.87894010543823
1619375780.89932,-164.4559,34.894569873809814
1619375780.91494,-132.2837,34.91019010543823
1619375780.93057,-97.20471,34.925819873809814
1619375780.9462,-60.15564,34.941449880599976
1619375780.96182,-22.86005,34.957069873809814
1619375780.97745,13.29315,34.972699880599976
1619375780.99307,47.70935,34.988319873809814
1619375781.0087,80.22742,35.003949880599976
1619375781.02432,110.5134,35.019569873809814
1619375781.03995,137.3338,35.035199880599976
1619375781.05558,158.781,35.05082988739014
1619375781.0712,173.0856,35.066449880599976
1619375781.08683,179.5004,35.08207988739014
1619375781.10245,178.8153,35.097699880599976
1619375781.11808,173.176,35.11332988739014
1619375781.1337,165.2795,35.128949880599976
1619375781.14933,157.3582,35.14457988739014
1619375781.16496,150.683,35.1602098941803
1619375781.18058,145.3496,35.17582988739014
1619375781.19621,140.6399,35.1914598941803
1619375781.21183,135.5487,35.20707988739014
1619375781.22746,129.1682,35.2227098941803
1619375781.24308,120.9589,35.23832988739014
1619375781.25871,110.8112,35.2539598941803
1619375781.27434,99.09967,35.26958990097046
1619375781.28996,86.52118,35.2852098941803
1619375781.30559,73.97855,35.30083990097046
1619375781.32121,62.24945,35.3164598941803
1619375781.33684,51.79187,35.33208990097046
1619375781.35246,42.52362,35.3477098941803
1619375781.36809,33.69183,35.36333990097046
1619375781.38372,24.05893,35.37896990776062
1619375781.39934,12.48151,35.39458990097046
1619375781.41497,-1.356598,35.41021990776062
1619375781.43059,-16.26804,35.42583990097046
1619375781.44622,-29.49342,35.44146990776062
1619375781.46184,-37.47704,35.45708990097046
1619375781.47747,-37.09636,35.47271990776062
1619375781.4931,-26.95551,35.48834991455078
1619375781.50872,-8.145187,35.50396990776062
1619375781.52435,16.12584,35.51959991455078
1619375781.53997,41.59183,35.53521990776062
1619375781.5556,64.32527,35.55084991455078
1619375781.57122,81.78157,35.56646990776062
1619375781.58685,93.12834,35.58209991455078
1619375781.60248,98.871,35.59772992134094
1619375781.6181,100.1164,35.61334991455078
1619375781.63373,97.94574,35.62897992134094
1619375781.64935,93.14288,35.64459991455078
1619375781.66498,86.31651,35.66022992134094
1619375781.6806,78.16313,35.67584991455078
1619375781.69623,69.51023,35.69147992134094
1619375781.71186,61.27133,35.7071099281311
1619375781.72748,54.20237,35.72272992134094
1619375781.74311,48.66193,35.7383599281311
1619375781.75873,44.59499,35.75397992134094
1619375781.77436,41.69815,35.7696099281311
1619375781.78998,39.62793,35.78522992134094
1619375781.80561,38.19736,35.8008599281311
1619375781.82124,37.34248,35.816489934921265
1619375781.83686,36.89874,35.8321099281311
1619375781.85249,36.46439,35.847739934921265
1619375781.86811,35.35064,35.8633599281311
1619375781.88374,32.78331,35.878989934921265
1619375781.89936,28.26611,35.8946099281311
1619375781.91499,21.80149,35.910239934921265
1619375781.93062,13.93825,35.925869941711426
1619375781.94624,5.548515,35.941489934921265
1619375781.96187,-2.515064,35.957119941711426
1619375781.97749,-9.663129,35.972739934921265
1619375781.99312,-15.65536,35.988369941711426
1619375782.00874,-20.60548,36.003989934921265
1619375782.02437,-24.94572,36.019619941711426
1619375782.04,-29.34415,36.03524994850159
1619375782.05562,-34.6272,36.050869941711426
1619375782.07125,-41.53101,36.06649994850159
1619375782.08687,-50.23908,36.082119941711426
1619375782.1025,-59.88987,36.09774994850159
1619375782.11812,-68.37251,36.113369941711426
1619375782.13375,-72.65913,36.12899994850159
1619375782.14938,-69.7068,36.14462995529175
1619375782.165,-57.71847,36.16024994850159
1619375782.18063,-36.97297,36.17587995529175
1619375782.19625,-9.940502,36.19149994850159
1619375782.21188,19.46267,36.20712995529175
1619375782.2275,47.14319,36.22274994850159
1619375782.24313,69.96576,36.23837995529175
1619375782.25876,86.41367,36.25400996208191
1619375782.27438,96.51712,36.26962995529175
1619375782.29001,101.403,36.28525996208191
1619375782.30563,102.5568,36.30087995529175
1619375782.32126,101.4113,36.31650996208191
1619375782.33688,99.02218,36.33212995529175
1619375782.35251,96.08402,36.34775996208191
1619375782.36814,93.04944,36.36338996887207
1619375782.38376,90.17506,36.37900996208191
1619375782.39939,87.64854,36.39463996887207
1619375782.41501,85.74108,36.41025996208191
1619375782.43064,84.81874,36.42588996887207
1619375782.44627,85.27333,36.44151997566223
1619375782.46189,87.48698,36.45713996887207
1619375782.47752,91.63894,36.47276997566223
1619375782.49314,97.75476,36.48838996887207
1619375782.50877,105.7277,36.50401997566223
1619375782.52439,115.3084,36.51963996887207
1619375782.54002,126.0373,36.53526997566223
1619375782.55565,137.179,36.55089998245239
1619375782.57127,147.6644,36.56651997566223
1619375782.5869,156.2234,36.58214998245239
1619375782.60252,161.8515,36.59776997566223
1619375782.61815,164.1713,36.61339998245239
1619375782.63377,163.6453,36.62901997566223
1619375782.6494,161.3221,36.64464998245239
1619375782.66503,158.059,36.660279989242554
1619375782.68065,153.7023,36.67589998245239
1619375782.69628,146.7352,36.691529989242554
1619375782.7119,134.7235,36.70714998245239
1619375782.72753,115.4432,36.722779989242554
1619375782.74315,88.22632,36.73839998245239
1619375782.75878,54.71016,36.754029989242554
1619375782.77441,18.5477,36.769659996032715
1619375782.79003,-15.62917,36.785279989242554
1619375782.80566,-43.80768,36.800909996032715
1619375782.82128,-63.69188,36.816529989242554
1619375782.83691,-75.14909,36.832159996032715
1619375782.85253,-79.77232,36.847779989242554
1619375782.86816,-80.11929,36.863409996032715
1619375782.88379,-78.82965,36.879040002822876
1619375782.89941,-78.19363,36.894659996032715
1619375782.91504,-79.96181,36.910290002822876
1619375782.93066,-85.26724,36.925909996032715
1619375782.94629,-94.676,36.941540002822876
1619375782.96191,-108.1,36.957159996032715
1619375782.97754,-124.9423,36.972790002822876
1619375782.99317,-144.1649,36.98842000961304
1619375783.00879,-164.5482,37.004040002822876
1619375783.02442,-184.9315,37.01967000961304
1619375783.04004,-204.365,37.035290002822876
1619375783.05567,-222.2592,37.05092000961304
1619375783.07129,-238.3302,37.066540002822876
1619375783.08692,-252.6759,37.08217000961304
1619375783.10255,-265.6341,37.0978000164032
1619375783.11817,-277.6998,37.11342000961304
1619375783.1338,-289.117,37.1290500164032
1619375783.14942,-299.5063,37.14467000961304
1619375783.16505,-307.5641,37.1603000164032
1619375783.18067,-311.0605,37.17592000961304
1619375783.1963,-307.401,37.1915500164032
1619375783.21193,-294.3759,37.20718002319336
1619375783.22755,-271.1757,37.2228000164032
1619375783.24318,-238.7877,37.23843002319336
1619375783.2588,-200.073,37.2540500164032
1619375783.27443,-159.0191,37.26968002319336
1619375783.29005,-119.7127,37.2853000164032
1619375783.30568,-85.35484,37.30093002319336
1619375783.32131,-57.67298,37.31656002998352
1619375783.33693,-36.87415,37.33218002319336
1619375783.35256,-22.00192,37.34781002998352
1619375783.36818,-11.70054,37.36343002319336
1619375783.38381,-4.647572,37.37906002998352
1619375783.39943,0.01964569,37.39468002319336
1619375783.41506,2.676493,37.41031002998352
1619375783.43069,3.322867,37.42594003677368
1619375783.44631,1.810479,37.44156002998352
1619375783.46194,-1.623937,37.45719003677368
1619375783.47756,-6.054573,37.47281002998352
1619375783.49319,-9.58638,37.48844003677368
1619375783.50881,-9.72065,37.50406002998352
1619375783.52444,-3.842072,37.51969003677368
1619375783.54007,9.669624,37.53532004356384
1619375783.55569,30.76673,37.55094003677368
1619375783.57132,57.49527,37.56657004356384
1619375783.58694,86.49948,37.58219003677368
1619375783.60257,114.1245,37.59782004356384
1619375783.61819,137.4617,37.61344003677368
1619375783.63382,155.0484,37.62907004356384
1619375783.64945,166.6947,37.644700050354004
1619375783.66507,173.0988,37.66032004356384
1619375783.6807,175.0813,37.675950050354004
1619375783.69632,173.2587,37.69157004356384
1619375783.71195,168.0977,37.707200050354004
1619375783.72757,160.0995,37.72282004356384
1619375783.7432,150.1077,37.738450050354004
1619375783.75883,139.2569,37.754080057144165
1619375783.77445,128.8148,37.769700050354004
1619375783.79008,119.7394,37.785330057144165
1619375783.8057,112.5267,37.800950050354004
1619375783.82133,107.0238,37.816580057144165
1619375783.83695,102.5549,37.832200050354004
1619375783.85258,98.36407,37.847830057144165
1619375783.86821,93.79791,37.863460063934326
1619375783.88383,88.71405,37.879080057144165
1619375783.89946,83.422,37.894710063934326
1619375783.91508,78.63208,37.910330057144165
1619375783.93071,75.04166,37.925960063934326
1619375783.94633,73.05338,37.941580057144165
1619375783.96196,72.4339,37.957210063934326
1619375783.97759,72.34052,37.97284007072449
1619375783.99321,71.66272,37.988460063934326
1619375784.00884,69.32535,38.00409007072449
1619375784.02446,64.79053,38.019710063934326
1619375784.04009,58.16037,38.03534007072449
1619375784.05571,50.14587,38.050960063934326
1619375784.07134,41.69809,38.06659007072449
1619375784.08697,33.71182,38.08222007751465
1619375784.10259,26.66476,38.09784007072449
1619375784.11822,20.52292,38.11347007751465
1619375784.13384,14.89209,38.12909007072449
1619375784.14947,9.073059,38.14472007751465
1619375784.16509,2.291168,38.16034007072449
1619375784.18072,-6.232849,38.17597007751465
1619375784.19635,-17.12231,38.19160008430481
1619375784.21197,-30.52228,38.20722007751465
1619375784.2276,-45.65735,38.22285008430481
1619375784.24322,-60.505,38.23847007751465
1619375784.25885,-71.98141,38.25410008430481
1619375784.27447,-76.68051,38.26972007751465
1619375784.2901,-72.11264,38.28535008430481
1619375784.30573,-57.80893,38.30098009109497
1619375784.32135,-35.79349,38.31660008430481
1619375784.33698,-9.979034,38.33223009109497
1619375784.3526,15.16391,38.34785008430481
1619375784.36823,36.11789,38.36348009109497
1619375784.38385,51.25296,38.37910008430481
1619375784.39948,60.76804,38.39473009109497
1619375784.41511,65.8671,38.41036009788513
1619375784.43073,67.70563,38.42598009109497
1619375784.44636,66.92657,38.44161009788513
1619375784.46198,63.686,38.45723009109497
1619375784.47761,58.15967,38.47286009788513
1619375784.49323,50.9202,38.48848009109497
1619375784.50886,42.96368,38.50411009788513
1619375784.52449,35.401,38.51974010467529
1619375784.54011,28.99255,38.53536009788513
1619375784.55574,23.94495,38.55099010467529
1619375784.57136,19.94397,38.56661009788513
1619375784.58699,16.55219,38.58224010467529
1619375784.60262,13.54691,38.597869873046875
1619375784.61824,11.11154,38.61349010467529
1619375784.63387,9.729156,38.629119873046875
1619375784.64949,9.922882,38.64474010467529
1619375784.66512,11.86301,38.660369873046875
1619375784.68074,15.15326,38.67599010467529
1619375784.69637,18.81573,38.691619873046875
1619375784.712,21.49933,38.707249879837036
1619375784.72762,21.91696,38.722869873046875
1619375784.74325,19.27905,38.738499879837036
1619375784.75887,13.58981,38.754119873046875
1619375784.7745,5.69281,38.769749879837036
1619375784.79012,-3.050568,38.785369873046875
1619375784.80575,-11.16113,38.800999879837036
1619375784.82138,-17.58401,38.8166298866272
1619375784.837,-21.89957,38.832249879837036
1619375784.85263,-24.46118,38.8478798866272
1619375784.86825,-26.18942,38.863499879837036
1619375784.88388,-28.29755,38.8791298866272
1619375784.8995,-31.97308,38.894749879837036
1619375784.91513,-38.01801,38.9103798866272
1619375784.93076,-46.62946,38.92600989341736
1619375784.94638,-57.06039,38.9416298866272
1619375784.96201,-67.50247,38.95725989341736
1619375784.97763,-75.26917,38.9728798866272
1619375784.99326,-77.39572,38.98850989341736
1619375785.00888,-71.5186,39.0041298866272
1619375785.02451,-56.78983,39.01975989341736
1619375785.04014,-34.37021,39.03538990020752
1619375785.05576,-7.226898,39.05100989341736
1619375785.07139,20.7047,39.06663990020752
1619375785.08701,45.74731,39.08225989341736
1619375785.10264,65.3797,39.09788990020752
1619375785.11826,78.69122,39.11350989341736
1619375785.13389,86.06174,39.12913990020752
1619375785.14952,88.60614,39.14476990699768
1619375785.16514,87.54161,39.16038990020752
1619375785.18077,83.90384,39.17601990699768
1619375785.19639,78.5542,39.19163990020752
1619375785.21202,72.35182,39.20726990699768
1619375785.22764,66.25807,39.22288990020752
1619375785.24327,61.21486,39.23851990699768
1619375785.2589,57.85634,39.25414991378784
1619375785.27452,56.39365,39.26976990699768
1619375785.29015,56.58377,39.28539991378784
1619375785.30577,58.0023,39.30101990699768
1619375785.3214,60.28528,39.31664991378784
1619375785.33702,63.36038,39.33226990699768
1619375785.35265,67.4079,39.34789991378784
1619375785.36828,72.71848,39.363529920578
1619375785.3839,79.46469,39.37914991378784
1619375785.39953,87.42366,39.394779920578
1619375785.41515,96.04937,39.41039991378784
1619375785.43078,104.432,39.426029920578
1619375785.4464,111.6001,39.44164991378784
1619375785.46203,116.8366,39.457279920578
1619375785.47766,119.9968,39.472909927368164
1619375785.49328,121.6552,39.488529920578
1619375785.50891,122.9281,39.504159927368164
1619375785.52453,125.0781,39.519779920578
1619375785.54016,128.9378,39.535409927368164
1619375785.55578,134.5899,39.551029920578
1619375785.57141,141.2509,39.566659927368164
1619375785.58704,147.6926,39.582289934158325
1619375785.60266,152.7487,39.597909927368164
1619375785.61829,155.6723,39.613539934158325
1619375785.63391,156.2904,39.629159927368164
1619375785.64954,154.9731,39.644789934158325
1619375785.66516,152.6219,39.660409927368164
1619375785.68079,150.6398,39.676039934158325
1619375785.69642,150.6909,39.691669940948486
1619375785.71204,153.9971,39.707289934158325
1619375785.72767,160.5957,39.722919940948486
1619375785.74329,168.7774,39.738539934158325
1619375785.75892,175.3032,39.754169940948486
1619375785.77454,176.5338,39.769789934158325
1619375785.79017,169.9639,39.785419940948486
1619375785.8058,155.4269,39.80104994773865
1619375785.82142,135.1692,39.816669940948486
1619375785.83705,112.8466,39.83229994773865
1619375785.85267,91.88385,39.847919940948486
1619375785.8683,74.31308,39.86354994773865
1619375785.88392,60.42764,39.879169940948486
1619375785.89955,49.44229,39.89479994773865
1619375785.91518,40.50928,39.91042995452881
1619375785.9308,33.40057,39.92604994773865
1619375785.94643,28.51578,39.94167995452881
1619375785.96205,26.35083,39.95729994773865
1619375785.97768,26.93518,39.97292995452881
1619375785.9933,29.55945,39.98854994773865
1619375786.00893,32.97626,40.00417995452881
1619375786.02456,35.90326,40.01980996131897
1619375786.04018,37.42542,40.03542995452881
1619375786.05581,37.25732,40.05105996131897
1619375786.07143,35.74493,40.06667995452881
1619375786.08706,33.54572,40.08230996131897
1619375786.10268,31.28473,40.09792995452881
1619375786.11831,29.24835,40.11355996131897
1619375786.13394,27.16443,40.12918996810913
1619375786.14956,24.29382,40.14480996131897
1619375786.16519,19.66107,40.16043996810913
1619375786.18081,12.41156,40.17605996131897
1619375786.19644,2.126282,40.19168996810913
1619375786.21206,-11.01941,40.20730996131897
1619375786.22769,-26.29742,40.22293996810913
1619375786.24332,-42.73517,40.23856997489929
1619375786.25894,-59.49805,40.25418996810913
1619375786.27457,-76.26489,40.26981997489929
1619375786.29019,-93.35376,40.28543996810913
1619375786.30582,-111.5953,40.30106997489929
1619375786.32144,-131.8975,40.31668996810913
1619375786.33707,-154.6772,40.33231997489929
1619375786.3527,-179.5094,40.34794998168945
1619375786.36832,-205.0115,40.36356997489929
1619375786.38395,-229.363,40.37919998168945
1619375786.39957,-250.7738,40.39481997489929
1619375786.4152,-268.1755,40.41044998168945
1619375786.43082,-281.5115,40.42606997489929
1619375786.44645,-291.6702,40.44169998168945
1619375786.46208,-300.2966,40.457329988479614
1619375786.4777,-309.6495,40.47294998168945
1619375786.49333,-322.5385,40.488579988479614
1619375786.50895,-341.8442,40.50419998168945
1619375786.52458,-369.3087,40.519829988479614
1619375786.5402,-404.0778,40.53544998168945
1619375786.55583,-441.6732,40.551079988479614
1619375786.57146,-474.4807,40.566709995269775
1619375786.58708,-493.9346,40.582329988479614
1619375786.60271,-493.6208,40.597959995269775
1619375786.61833,-471.8163,40.613579988479614
1619375786.63396,-432.1459,40.629209995269775
1619375786.64958,-381.9303,40.644829988479614
1619375786.66521,-329.3147,40.660459995269775
1619375786.68084,-280.6448,40.67609000205994
1619375786.69646,-239.3804,40.691709995269775
1619375786.71209,-206.5791,40.70734000205994
1619375786.72771,-181.9954,40.722959995269775
1619375786.74334,-164.7861,40.73859000205994
1619375786.75896,-153.4227,40.754209995269775
1619375786.77459,-145.2615,40.76984000205994
1619375786.79022,-136.4943,40.7854700088501
1619375786.80584,-123.0577,40.80109000205994
1619375786.82147,-102.079,40.8167200088501
1619375786.83709,-73.07227,40.83234000205994
1619375786.85272,-38.1001,40.8479700088501
1619375786.86835,-0.8209229,40.86360001564026
1619375786.88397,34.77869,40.8792200088501
1619375786.8996,65.79749,40.89485001564026
1619375786.91522,91.03235,40.9104700088501
1619375786.93085,110.9351,40.92610001564026
1619375786.94647,127.0579,40.9417200088501
1619375786.9621,141.2949,40.95735001564026
1619375786.97773,155.1331,40.97298002243042
1619375786.99335,169.0446,40.98860001564026
1619375787.00898,182.1771,41.00423002243042
1619375787.0246,192.5862,41.01985001564026
1619375787.04023,197.7559,41.03548002243042
1619375787.05585,195.614,41.05110001564026
1619375787.07148,185.3741,41.06673002243042
1619375787.08711,168.1328,41.08236002922058
1619375787.10273,146.7845,41.09798002243042
1619375787.11836,125.4125,41.11361002922058
1619375787.13398,108.1302,41.12923002243042
1619375787.14961,97.94409,41.14486002922058
1619375787.16523,95.93079,41.16048002243042
1619375787.18086,101.0338,41.17611002922058
1619375787.19649,110.5636,41.19174003601074
1619375787.21211,121.0464,41.20736002922058
1619375787.22774,129.2356,41.22299003601074
1619375787.24336,132.7743,41.23861002922058
1619375787.25899,130.5109,41.25424003601074
1619375787.27461,122.3022,41.26986002922058
1619375787.29024,108.665,41.28549003601074
1619375787.30587,90.48621,41.3011200428009
1619375787.32149,68.97571,41.31674003601074
1619375787.33712,45.67834,41.3323700428009
1619375787.35274,22.46655,41.34799003601074
1619375787.36837,1.206055,41.3636200428009
1619375787.38399,-16.72681,41.37924003601074
1619375787.39962,-30.91626,41.3948700428009
1619375787.41525,-42.02466,41.410500049591064
1619375787.43087,-51.47961,41.4261200428009
1619375787.4465,-60.79321,41.441750049591064
1619375787.46212,-70.75769,41.4573700428009
1619375787.47775,-81.14258,41.473000049591064
1619375787.49337,-90.83679,41.4886200428009
1619375787.509,-98.52893,41.504250049591064
1619375787.52463,-103.4326,41.519880056381226
1619375787.54025,-105.8221,41.535500049591064
1619375787.55588,-106.9692,41.551130056381226
1619375787.5715,-108.6244,41.566750049591064
1619375787.58713,-112.2377,41.582380056381226
1619375787.60275,-118.3556,41.598000049591064
1619375787.61838,-126.4355,41.613630056381226
1619375787.63401,-135.1676,41.62926006317139
1619375787.64963,-143.1154,41.644880056381226
1619375787.66526,-149.2563,41.66051006317139
1619375787.68088,-153.396,41.676130056381226
1619375787.69651,-156.0977,41.69176006317139
1619375787.71213,-158.4744,41.707380056381226
1619375787.72776,-161.7192,41.72301006317139
1619375787.74339,-166.6815,41.73864006996155
1619375787.75901,-173.3392,41.75426006317139
1619375787.77464,-180.5297,41.76989006996155
1619375787.79026,-185.9041,41.78551006317139
1619375787.80589,-186.3658,41.80114006996155
1619375787.82151,-178.9086,41.81676006317139
1619375787.83714,-161.6107,41.83239006996155
1619375787.85277,-134.4281,41.84802007675171
1619375787.86839,-99.39197,41.86364006996155
1619375787.88402,-60.17725,41.87927007675171
1619375787.89964,-21.04138,41.89489006996155
1619375787.91527,14.2124,41.91052007675171
1619375787.93089,43.04114,41.92614006996155
1619375787.94652,64.44409,41.94177007675171
1619375787.96215,78.77759,41.95740008354187
1619375787.97777,87.30396,41.97302007675171
1619375787.9934,91.60889,41.98865008354187
1619375788.00902,93.0979,42.00427007675171
1619375788.02465,92.62036,42.01990008354187
1619375788.04027,90.42957,42.03552007675171
1619375788.0559,86.31934,42.05115008354187
1619375788.07153,80.07825,42.06678009033203
1619375788.08715,72.00366,42.08240008354187
1619375788.10278,63.11108,42.09803009033203
1619375788.1184,54.93835,42.11365008354187
1619375788.13403,49.00122,42.12928009033203
1619375788.14965,46.12732,42.14490008354187
1619375788.16528,46.1001,42.16053009033203
1619375788.18091,47.7962,42.17616009712219
1619375788.19653,49.67059,42.19178009033203
1619375788.21216,50.4126,42.20741009712219
1619375788.22778,49.32526,42.22303009033203
1619375788.24341,46.28015,42.23866009712219
1619375788.25903,41.46918,42.25428009033203
1619375788.27466,35.12,42.26991009712219
1619375788.29029,27.35699,42.28554010391235
1619375788.30591,18.25873,42.30116009712219
1619375788.32154,8.015686,42.31679010391235
1619375788.33716,-2.96759,42.33241009712219
1619375788.35279,-14.31824,42.34804010391235
1619375788.36841,-25.92487,42.36366009712219
1619375788.38404,-38.06335,42.37929010391235
1619375788.39967,-51.04047,42.394919872283936
1619375788.41529,-64.52429,42.41054010391235
1619375788.43092,-76.94843,42.426169872283936
