,index,PPG_Raw,PPG_Clean,PPG_Rate,PPG_Peaks,EDA_Raw,EDA_Clean,EDA_Tonic,EDA_Phasic,SCR_Onsets,SCR_Peaks,SCR_Height,SCR_Amplitude,SCR_RiseTime,SCR_Recovery,SCR_RecoveryTime,Index,Label,Condition,id
0,0.0,26.7887,0.0,78.43241448023912,0,2.8943100000000004,2.8942927573893407,2.896160523091305,-0.001867765732421301,0,0,0,0,0,0,1,0,1,neutral,0
1,0.015873015873015872,28.67464,0.0,78.43241448023912,0,2.8946611036231005,2.896084068073004,2.8962401513334517,-0.00015608329101731225,0,0,0,0,0,0,1,1,1,neutral,0
2,0.031746031746031744,29.5116,0.0,78.43241448023912,0,2.8956660412165873,2.89791560824626,2.8963197807918153,0.0015958274237618322,0,0,0,0,0,0,1,2,1,neutral,0
3,0.047619047619047616,29.74765,0.0,78.43241448023912,0,2.8972522528667444,2.8998447752542034,2.8963994096280463,0.0034453655953612765,0,0,0,0,0,0,1,3,1,neutral,0
4,0.06349206349206349,29.87506,0.0,78.43241448023912,0,2.899347178659852,2.901921105659542,2.896479036004749,0.005442069623883508,0,0,0,0,0,0,1,4,1,neutral,0
5,0.07936507936507936,30.29344,0.0,78.43241448023912,0,2.9018782586821916,2.904181912768442,2.8965586580865708,0.007623254650847806,0,0,0,0,0,0,0,5,1,neutral,0
6,0.09523809523809523,31.20581,0.0,78.43241448023912,0,2.9047729330200447,2.9066490709136987,2.8966382740413708,0.010010796841189398,0,0,0,0,0,0,0,6,1,neutral,0
7,0.1111111111111111,32.63681,0.0,78.43241448023912,0,2.9079586417596937,2.90932715648235,2.896717882041494,0.012609274409601794,0,0,0,0,0,0,0,7,1,neutral,0
8,0.12698412698412698,34.44807,0.0,78.43241448023912,0,2.9113628249874197,2.912203016662682,2.896797480265158,0.015405536366152703,0,0,0,0,0,0,0,8,1,neutral,0
9,0.14285714285714285,36.39877,0.0,78.43241448023912,0,2.914912922789504,2.9152467084668117,2.89687706689796,0.018369641537362858,0,0,0,0,0,0,0,9,1,neutral,0
10,0.15873015873015872,38.24896,0.0,78.43241448023912,0,2.918536375252229,2.918413643201879,2.896956640134488,0.021457003035783868,0,0,0,0,0,0,0,10,1,neutral,0
11,0.1746031746031746,39.85403,0.0,78.43241448023912,0,2.9221606224618752,2.921647691056002,2.8970361981800323,0.024611492844243632,0,0,0,0,0,0,0,11,1,neutral,0
12,0.19047619047619047,41.20198,0.0,78.43241448023912,0,2.925713104504725,2.924884949057327,2.89711573925236,0.027769209773122187,0,0,0,0,0,0,0,12,1,neutral,0
13,0.20634920634920634,42.42885,0.0,78.43241448023912,0,2.92912126146706,2.92805785289809,2.897195261583529,0.030862591282597995,0,0,0,0,0,0,0,13,1,neutral,0
14,0.2222222222222222,43.76579,0.0,78.43241448023912,0,2.9323125334351605,2.9310993166745125,2.8972747634217004,0.03382455322073079,0,0,0,0,0,0,0,14,1,neutral,0
15,0.23809523809523808,45.45142,0.0,78.43241448023912,0,2.9352143604953103,2.933946610956701,2.8973542430329173,0.03659236789158422,0,0,0,0,0,0,0,15,1,neutral,0
16,0.25396825396825395,47.61247,0.0,78.43241448023912,0,2.9377541827337885,2.936544734490287,2.8974336987028058,0.039111035755163705,0,0,0,0,0,0,0,16,1,neutral,0
17,0.2698412698412698,50.20686,0.0,78.43241448023912,0,2.9398750837235976,2.93884909342512,2.8975131287381646,0.041335964654519886,0,0,0,0,0,0,0,17,1,neutral,0
18,0.2857142857142857,53.04103,0.0,78.43241448023912,0,2.941590595185655,2.9408273689414064,2.8975925314684168,0.04323483744043654,0,0,0,0,0,0,0,18,1,neutral,0
19,0.30158730158730157,55.86896,0.0,78.43241448023912,0,2.942934071006882,2.9424605236766594,2.8976719052468907,0.04478861839709822,0,0,0,0,0,0,0,19,1,neutral,0
20,0.31746031746031744,58.49501,0.0,78.43241448023912,0,2.9439388661599453,2.943742963406161,2.8977512484519177,0.04599171492145479,0,0,0,0,0,0,0,20,1,neutral,0
21,0.3333333333333333,60.89784,0.0,78.43241448023912,0,2.9446383356175136,2.9446819274700053,2.897830559487733,0.0468513679493662,0,0,0,0,0,0,0,21,1,neutral,0
22,0.3492063492063492,63.22398,0.0,78.43241448023912,0,2.945065834352255,2.9452962253973576,2.8979098367851748,0.04738638857915874,0,0,0,0,0,0,0,22,1,neutral,0
23,0.36507936507936506,65.73915,3.0147256817058876,78.43241448023912,0,2.9452547173368386,2.945614466035826,2.89798907880219,0.04762538720049359,0,1,0,-2147483648,-2147483648,0,0,23,1,neutral,0
24,0.38095238095238093,68.63925,6.856521411914347,78.43241448023912,0,2.9452383395439314,2.9456729392805343,2.8980682840241525,0.04760465522312055,0,0,0,0,0,0,0,24,1,neutral,0
25,0.3968253968253968,71.8588,10.937350730301603,78.43241448023912,0,2.9450500559462007,2.945513310824541,2.8981474509640135,0.04736585982714693,0,0,0,0,0,0,0,25,1,neutral,0
26,0.4126984126984127,75.01099,14.906174657329085,78.43241448023912,0,2.9447232215163166,2.9451802798016917,2.8982265781622996,0.046953701605891775,0,0,0,0,0,0,0,26,1,neutral,0
27,0.42857142857142855,77.45709,18.248737593972375,78.43241448023912,0,2.944291191226946,2.9447193307550723,2.8983056641869887,0.04641366653446291,0,0,0,0,0,0,0,27,1,neutral,0
28,0.4444444444444444,78.5177,20.43077754173362,78.43241448023912,0,2.9437873200507574,2.944174687988098,2.8983847076332836,0.045789980321071934,0,0,0,0,0,0,0,28,1,neutral,0
29,0.4603174603174603,77.77893,21.07119070844411,78.43241448023912,0,2.943244962960418,2.9435875546290835,2.89846370712331,0.045123847471909104,0,0,0,0,0,0,0,29,1,neutral,0
30,0.47619047619047616,75.2417,20.08710431684132,78.43241448023912,0,2.9426974749285977,2.942994692703581,2.8985426613057688,0.04445203136382563,0,0,0,0,0,0,0,30,1,neutral,0
31,0.49206349206349204,71.34015,17.770496703328263,78.43241448023912,0,2.942178210927963,2.9424273755948014,2.898621568855557,0.04380580670513594,0,0,0,0,0,0,0,31,1,neutral,0
32,0.5079365079365079,66.83109,14.784932818917827,78.43241448023912,0,2.9417205259311823,2.9419107213659497,2.8987004284733886,0.04321029285833076,0,0,0,0,0,0,0,32,1,neutral,0
33,0.5238095238095237,62.62775,12.091556196745938,78.43241448023912,0,2.9413522944036035,2.941463395016587,2.898779238885425,0.0426841560968104,0,0,0,0,0,0,0,33,1,neutral,0
34,0.5396825396825397,59.67529,10.816168631138067,78.43241448023912,0,2.9410735866470543,2.941097650185545,2.898857998842937,0.04223965130813501,0,0,0,0,0,0,0,34,1,neutral,0
35,0.5555555555555556,58.87885,12.062039740712287,78.43241448023912,0,2.940875676924876,2.9408196664897353,2.8989367071220014,0.04188295933314032,0,0,0,0,0,0,0,35,1,neutral,0
36,0.5714285714285714,61.07758,16.675332142835586,78.43241448023912,0,2.940749836049123,2.9406301281293703,2.899015362523244,0.04161476557141277,0,0,0,0,0,0,0,36,1,neutral,0
37,0.5873015873015872,66.82883,24.995149417213007,78.43241448023912,0,2.9406873348318543,2.9405249831116778,2.8990939638716355,0.04143101920520899,0,0,0,0,0,0,0,37,1,neutral,0
38,0.6031746031746031,76.11127,36.65969187846734,78.43241448023912,0,2.9406794440851267,2.9404963206750088,2.89917251001633,0.041323810623725934,0,0,0,0,0,0,0,38,1,neutral,0
39,0.6190476190476191,88.03781,50.56318863729953,78.43241448023912,0,2.9407174346209985,2.940533306977673,2.8992509998305613,0.041282307112038834,0,0,0,0,0,0,0,39,1,neutral,0
40,0.6349206349206349,100.8347,65.03270829389561,78.43241448023912,0,2.9407925772515258,2.9406231251225314,2.899329432211574,0.041293692875765224,0,0,0,0,0,0,0,40,1,neutral,0
41,0.6507936507936507,112.2754,78.21329877245351,78.43241448023912,0,2.940896142788766,2.9407518740840937,2.899407806080597,0.041344067968183754,0,0,0,0,0,0,0,41,1,neutral,0
42,0.6666666666666666,120.3398,88.54755105378078,78.43241448023912,0,2.941019402044777,2.94090539095238,2.899486120382847,0.041419270534099335,0,0,0,0,0,0,0,42,1,neutral,0
43,0.6825396825396826,123.9649,95.170213020056,78.43241448023912,0,2.9411536258316153,2.9410699710407893,2.8995643740875523,0.041505596917682006,0,0,0,0,0,0,0,43,1,neutral,0
44,0.6984126984126984,123.3078,98.05733556958147,78.43241448023912,1,2.941290084961339,2.9412329699494553,2.8996425661879917,0.041590403725787345,0,0,0,0,0,0,0,44,1,neutral,0
45,0.7142857142857142,119.5218,97.8743389461704,81.18601816446636,0,2.9414200502460055,2.9413832800185795,2.899720695701542,0.04166258428123913,0,0,0,0,0,0,0,45,1,neutral,0
46,0.7301587301587301,114.0562,95.60695989723966,84.13847940566089,0,2.941534792497672,2.941511680418511,2.899798761669726,0.041712918712864575,0,0,0,0,0,0,0,46,1,neutral,0
47,0.746031746031746,107.9854,92.15688024594112,87.29866821431366,0,2.941625582528395,2.9416110653382668,2.899876763158249,0.04173430214397614,0,0,0,0,0,0,0,47,1,neutral,0
48,0.7619047619047619,101.6525,88.0852293730432,90.67465491005763,0,2.9416836911502324,2.941676558491314,2.899954699257026,0.041721859198123906,0,0,0,0,0,0,0,48,1,neutral,0
49,0.7777777777777777,94.78989,83.59335271444999,94.27317381155943,0,2.9417019897074597,2.941705524718416,2.9000325690801954,0.04167295560193538,0,0,0,0,0,0,0,49,1,neutral,0
50,0.7936507936507936,87.01624,78.69761796888363,98.09893414575772,0,2.9416825087960907,2.941697491114969,2.900110371766106,0.0415871193124558,0,0,0,0,0,0,0,50,1,neutral,0
51,0.8095238095238095,78.28815,73.45999774637596,102.15374944571307,0,2.941630531605365,2.941653991056731,2.900188106477294,0.04146588454290603,0,0,0,0,0,0,0,51,1,neutral,0
52,0.8253968253968254,69.09314,68.1287247013044,106.43545765294155,0,2.9415513452039486,2.9415783448444297,2.900265772400431,0.041312572407344775,0,0,0,0,0,0,0,52,1,neutral,0
53,0.8412698412698412,60.25067,63.11878005727689,110.93660940917849,0,2.941450236660509,2.9414753904634265,2.9003433687462543,0.04113202168039474,0,0,0,0,0,0,0,53,1,neutral,0
54,0.8571428571428571,52.5163,58.867748581845866,115.64291408202457,0,2.941332493043713,2.9413511772051177,2.9004208947494807,0.040930282418735975,0,0,0,0,0,0,0,54,1,neutral,0
55,0.873015873015873,46.23273,55.67351097891626,120.53145503896154,0,2.941203401422226,2.9412126337520155,2.900498349668701,0.04071428404628946,0,0,0,0,0,0,0,55,1,neutral,0
56,0.8888888888888888,41.27606,53.61863837669801,125.56872108694621,0,2.941068248864716,2.941067221004285,2.9005757327862662,0.040491488180869,0,0,0,0,0,0,0,56,1,neutral,0
57,0.9047619047619047,37.2594,52.621582034119434,130.70855307728883,0,2.9409323224398487,2.9409225786738102,2.9006530434081657,0.040269535228369596,0,0,0,0,0,0,0,57,1,neutral,0
58,0.9206349206349206,33.89093,52.57238411385566,135.89017507808848,0,2.9408009092162906,2.940786173717658,2.9007302808638977,0.040055892816358546,0,0,0,0,0,0,0,58,1,neutral,0
59,0.9365079365079365,31.16248,53.46082788245849,141.03656610417667,0,2.94067929626271,2.9406649581732736,2.9008074445063445,0.0398575136293982,0,0,0,0,0,0,0,59,1,neutral,0
60,0.9523809523809523,29.32745,55.412348548954526,146.05352230315853,0,2.940572770647771,2.9405650439305973,2.90088453371165,0.03968051018128726,0,0,0,0,0,0,0,60,1,neutral,0
61,0.9682539682539681,28.73218,58.600960728353755,150.8298419850351,0,2.940486619440142,2.940491402349049,2.9009615478791053,0.039529854432154385,0,0,0,0,0,0,0,61,1,neutral,0
62,0.9841269841269841,29.54138,63.07565489994759,155.23910648160123,0,2.940426129708489,2.940447597206991,2.9010384864310477,0.03940911073802445,0,0,0,0,0,0,0,62,1,neutral,0
63,1.0,31.54999,68.583396846939,159.14348829594738,0,2.940396588521479,2.9404355599843424,2.9011153488127746,0.03932021113351934,0,0,0,0,0,0,0,63,1,neutral,0
0,0.0,11.5509,6.386350792688537,52.980920141077775,0,2.767243898349418,2.767131624497469,2.815786044047931,-0.04865441817470577,0,0,0,0,0,0,0,1221,3,neutral,2
1,0.015873015873015872,10.84857,6.165593669504287,52.5237747787686,0,2.7675620695409973,2.7675128876316784,2.8156378838454876,-0.048124994837109636,0,0,0,0,0,0,0,1222,3,neutral,2
2,0.031746031746031744,9.424133,5.47151485093973,52.08465872869012,0,2.767785912873555,2.7677922601219938,2.81548995913548,-0.04769769763587031,0,0,0,0,0,0,0,1223,3,neutral,2
3,0.047619047619047616,7.72879,4.5219604831219575,51.66345104305711,0,2.767931071444388,2.767979154278559,2.8153422691513925,-0.04736311349432813,0,0,0,0,0,0,0,1224,3,neutral,2
4,0.06349206349206349,6.141663,3.6379588656185633,51.260037347237784,0,2.768013188350795,2.7680871504807567,2.8151948130989894,-0.047107661238864396,0,0,0,0,0,0,0,1225,3,neutral,2
5,0.07936507936507936,4.941101,3.1140775057448966,50.8743113264601,0,2.768047906690072,2.768133088959354,2.8150475901565115,-0.04691449981695418,0,0,0,0,0,0,0,1226,3,neutral,2
6,0.09523809523809523,4.248352,3.100166083869706,50.50617614434855,0,2.7680508695595187,2.768136097047981,2.814900599474831,-0.04676450104583872,0,0,0,0,0,0,0,1227,3,neutral,2
7,0.1111111111111111,4.127625,3.5462920940509393,50.155545806733905,0,2.7680377200564323,2.7681165938097667,2.8147538401775685,-0.04663724498601077,0,0,0,0,0,0,0,1228,3,neutral,2
8,0.12698412698412698,4.52948,4.239897839723063,49.822346483887465,0,2.768024101278111,2.768095310334861,2.8146073113611862,-0.04651199964378333,0,0,0,0,0,0,0,1229,3,neutral,2
9,0.14285714285714285,4.920319,4.92853491414623,49.50651780412369,0,2.768025656321852,2.7680923595344122,2.8144610120950686,-0.04636865117739185,0,0,0,0,0,0,0,1230,3,neutral,2
10,0.15873015873015872,4.878571,5.479239197600518,49.20801413159617,0,2.768058028284954,2.7681263845189665,2.8143149414216,-0.04618855551867459,0,0,0,0,0,0,0,1231,3,neutral,2
11,0.1746031746031746,4.414917,5.996714978298235,48.92680584109342,0,2.768136860264713,2.76821381000847,2.814169098356253,-0.04595528696315877,0,0,0,0,0,0,0,1232,3,neutral,2
12,0.19047619047619047,4.284058,6.832106830613036,48.66288060273093,0,2.7682777953584283,2.7683682167910244,2.814023481887698,-0.045655263711412056,0,0,0,0,0,0,0,1233,3,neutral,2
13,0.20634920634920634,4.900574,8.463892359472624,48.416244689645715,0,2.7684964766633984,2.7685998549246884,2.813878090977942,-0.04527823466738479,0,0,0,0,0,0,0,1234,3,neutral,2
14,0.2222222222222222,6.592255,11.293534791437596,48.18692432214055,0,2.7688085472769193,2.768915306921637,2.813732924562507,-0.044817616254424264,0,0,0,0,0,0,0,1235,3,neutral,2
15,0.23809523809523808,9.581329,15.440962359579979,47.97496706221079,0,2.7692252420806054,2.7693173073170065,2.813587981550651,-0.04427067284664974,0,0,0,0,0,0,0,1236,3,neutral,2
16,0.25396825396825395,14.0712,20.638535044047167,47.78044327303301,0,2.7697379442033228,2.769804719694486,2.813443260825635,-0.043638539743635116,0,0,0,0,0,0,0,1237,3,neutral,2
17,0.2698412698412698,19.97961,26.300904817009627,47.60344765881898,0,2.7703324510381786,2.770372666568258,2.81329876124504,-0.042926093288778444,0,0,0,0,0,0,0,1238,3,neutral,2
18,0.2857142857142857,25.75586,31.777408323949206,47.44410090146349,0,2.7709945596723298,2.771012801931836,2.8131544816411336,-0.04214167832083503,0,0,0,0,0,0,0,1239,3,neutral,2
19,0.30158730158730157,30.02231,36.68183519604745,47.302551411663536,0,2.7717100671929327,2.7717137113305537,2.8130104208212807,-0.0412967081018355,0,0,0,0,0,0,0,1240,3,neutral,2
20,0.31746031746031744,32.58545,41.10959951177809,47.17897721369258,0,2.7724647706871415,2.772461420440826,2.812866577568396,-0.040405155738280234,0,0,0,0,0,0,0,1241,3,neutral,2
21,0.3333333333333333,35.32825,45.58138317194702,47.073587984807396,0,2.773244467242113,2.773239990518107,2.8127229506414304,-0.039482958733667584,0,0,0,0,0,0,0,1242,3,neutral,2
22,0.3492063492063492,38.95105,50.70093807092705,46.98662727239497,0,2.774034953945002,2.774032177595494,2.8125795387758847,-0.038547359790399166,0,0,0,0,0,0,0,1243,3,neutral,2
23,0.36507936507936506,43.58145,56.682960457185196,46.91837491447828,0,2.774822027882964,2.774820131683928,2.8124363406843393,-0.03761620761011585,0,0,0,0,0,0,0,1244,3,neutral,2
24,0.38095238095238093,48.71143,62.989269466824204,46.8691496921559,0,2.775591486143155,2.7755861121030834,2.8122933550569917,-0.03670724156334036,0,0,0,0,0,0,0,1245,3,neutral,2
25,0.3968253968253968,53.68451,68.28392733303455,46.83931224602135,0,2.776329125812731,2.7763131951846214,2.8121505805621942,-0.0358373839867641,0,0,0,0,0,0,0,1246,3,neutral,2
26,0.4126984126984127,57.53848,70.8056152979835,46.829268292682926,1,2.777020743978846,2.7769859508028656,2.8120080158469745,-0.03502206365309062,0,0,0,0,0,0,0,1247,3,neutral,2
27,0.42857142857142855,56.87646,69.07427346499732,46.876924308524856,0,2.7776521377286567,2.7775910645450135,2.811865659537536,-0.034274593601326994,0,0,0,0,0,0,0,1248,3,neutral,2
28,0.4444444444444444,49.4147,62.64011850935335,47.017137412631726,0,2.7782091041493193,2.778117883046846,2.81172351023973,-0.03360562580154349,0,0,0,0,0,0,0,1249,3,neutral,2
29,0.4603174603174603,35.86438,52.47529525378659,47.246518035651285,0,2.778677440327988,2.7785588614269825,2.8115815665394837,-0.03302270372104774,0,0,0,0,0,0,0,1250,3,neutral,2
30,0.47619047619047616,21.56494,40.73963727585228,47.56255264486551,0,2.779042943351818,2.778909894226206,2.811439827003188,-0.03252993138544877,0,0,0,0,0,0,0,1251,3,neutral,2
31,0.49206349206349204,9.347687,29.986160599353845,47.963483018900504,0,2.779295468947664,2.7791705150868298,2.811298290178035,-0.03212777369962505,0,0,0,0,0,0,0,1252,3,neutral,2
32,0.5079365079365079,0.7250977,22.177068772192715,48.448206553573684,0,2.7794454634693384,2.7793439556530206,2.811156954592303,-0.0318129975476888,0,0,0,0,0,0,0,1253,3,neutral,2
33,0.5238095238095237,-4.219757,17.956695118521488,49.01619212000851,0,2.77950988725721,2.7794370605600367,2.8110158187555925,-0.03157875680398195,0,0,0,0,0,0,0,1254,3,neutral,2
34,0.5396825396825397,-5.622955,16.48359438053182,49.667407002651,0,2.7795057032075245,2.7794600622952146,2.8108748811590085,-0.03141481747227351,0,0,0,0,0,0,0,1255,3,neutral,2
35,0.5555555555555556,-4.181122,15.886309013540568,50.40225112466618,0,2.779449874216527,2.779426226375627,2.810734140275302,-0.031307912508241546,0,0,0,0,0,0,0,1256,3,neutral,2
36,0.5714285714285714,-4.6828,14.152074092390283,51.221495199747785,0,2.779359363180464,2.7793513830119485,2.8105935945589673,-0.031242210155707113,0,0,0,0,0,0,0,1257,3,neutral,2
37,0.5873015873015872,-10.67722,10.032507766925141,52.12621968647601,0,2.779251132995581,2.779253365821724,2.810453242446308,-0.03119987523342825,0,0,0,0,0,0,0,1258,3,neutral,2
38,0.6031746031746031,-21.96881,3.488832679859886,53.117751501643305,0,2.7791421465581236,2.779151381148308,2.8103130823554823,-0.03116169981621096,0,0,0,0,0,0,0,1259,3,neutral,2
39,0.6190476190476191,-32.29776,0.0,54.19759539989545,0,2.779049366764338,2.779065333295569,2.8101731126865337,-0.03110777800022914,0,0,0,0,0,0,0,1260,3,neutral,2
40,0.6349206349206349,-40.57074,0.0,55.36735677064977,0,2.7789897565104695,2.7790151317639347,2.8100333318214163,-0.031018198667009295,0,0,0,0,0,0,0,1261,3,neutral,2
41,0.6507936507936507,-47.98788,0.0,56.62865236039979,0,2.778980278692764,2.7790200066164292,2.8098937381240328,-0.030873730117430054,0,0,0,0,0,0,0,1262,3,neutral,2
42,0.6666666666666666,-56.99448,0.0,57.98300512310366,0,2.779037896207468,2.7790978575652336,2.809754329940293,-0.03065647098522105,0,0,0,0,0,0,0,1263,3,neutral,2
43,0.6825396825396826,-68.4574,0.0,59.43171906509142,0,2.779179571950826,2.7792646612657173,2.8096151055982035,-0.030350442943017204,0,0,0,0,0,0,0,1264,3,neutral,2
44,0.6984126984126984,-82.1163,0.0,60.97572962893364,0,2.7794222688190846,2.779533959515202,2.809476063407995,-0.029942102503729733,0,0,0,0,0,0,0,1265,3,neutral,2
45,0.7142857142857142,-102.0298,0.0,62.615424918241345,0,2.779782949708489,2.779916448359783,2.809337201662306,-0.029420751913901682,0,0,0,0,0,0,0,1266,3,neutral,2
46,0.7301587301587301,-130.7419,0.0,64.35043299570196,0,2.7802785775152863,2.78041968427504,2.809198518636424,-0.02877883297324223,0,0,0,0,0,0,0,1267,3,neutral,2
47,0.746031746031746,-166.7125,0.0,66.17937071988328,0,2.7809227296057273,2.781047918454803,2.8090600125885885,-0.02801209274616174,0,0,0,0,0,0,0,1268,3,neutral,2
48,0.7619047619047619,-201.0375,0.0,68.09955029803741,0,2.7817096092146887,2.7818020638834895,2.808921681760368,-0.027119616489808977,0,0,0,0,0,0,0,1269,3,neutral,2
49,0.7777777777777777,-231.2484,0.0,70.1066411500218,0,2.7826265395206486,2.782679792670829,2.8087835243771018,-0.026103730319795848,0,0,0,0,0,0,0,1270,3,neutral,2
50,0.7936507936507936,-257.0717,0.0,72.19428708346882,0,2.78366083549612,2.7836757537998085,2.8086455386484195,-0.024969783462763306,0,0,0,0,0,0,0,1271,3,neutral,2
51,0.8095238095238095,-279.4876,0.0,74.35368249664685,0,2.784799812113615,2.7847818948396816,2.8085077227688284,-0.023725826543966905,0,0,0,0,0,0,0,1272,3,neutral,2
52,0.8253968253968254,-298.2252,0.0,76.57311669128508,0,2.7860307843456464,2.7859878660595183,2.8083700749183707,-0.022382207474379013,0,0,0,0,0,0,0,1273,3,neutral,2
53,0.8412698412698412,-282.356,0.0,78.8375026866397,0,2.7873410671647267,2.7872814821889986,2.8082325932633405,-0.020951109690613742,0,0,0,0,0,0,0,1274,3,neutral,2
54,0.8571428571428571,-217.5508,0.0,81.12791632801776,0,2.788717975543366,2.7886492158993845,2.808095275957063,-0.019446058674735332,0,0,0,0,0,0,0,1275,3,neutral,2
55,0.873015873015873,-117.6707,0.0,83.4211828351964,0,2.7901488244540795,2.7900766977238467,2.8079581211407216,-0.017881422034755894,0,0,0,0,0,0,0,1276,3,neutral,2
56,0.8888888888888888,-40.55649,0.0,85.68956060698397,0,2.791620928869377,2.7915491992418304,2.807821126944226,-0.016271926321138747,0,0,0,0,0,0,0,1277,3,neutral,2
57,0.9047619047619047,6.986725,25.012421026527925,87.90058474341791,0,2.7931216037617728,2.793052079497162,2.807684291487116,-0.014632210609598748,0,0,0,0,0,0,0,1278,3,neutral,2
58,0.9206349206349206,31.0563,65.70626387493273,90.0171431145775,0,2.7946381641037776,2.794571178405481,2.8075476128794916,-0.01297643309459712,0,0,0,0,0,0,0,1279,3,neutral,2
59,0.9365079365079365,48.28497,92.72793395546846,91.99786266534355,0,2.796157924867905,2.796093145007127,2.8074110892229633,-0.01131794283740421,0,0,0,0,0,0,0,1280,3,neutral,2
60,0.9523809523809523,65.80154,112.15834033884214,93.79787899027615,0,2.7976682010266662,2.7976056926069157,2.8072747186116085,-0.009669024627283251,0,0,0,0,0,0,0,1281,3,neutral,2
61,0.9682539682539681,87.48798,129.6138694285758,95.37004387395419,0,2.7991563075525745,2.799097776976336,2.80713849913293,-0.008040720780247337,0,0,0,0,0,0,0,1282,3,neutral,2
62,0.9841269841269841,113.84,147.39588935995715,96.66659027889179,0,2.800609559418141,2.800559697809728,2.80700242886881,-0.006442729683838886,0,0,0,0,0,0,0,1283,3,neutral,2
63,1.0,137.4707,164.14296245444706,97.64122154747119,0,2.802016374878055,2.8019831274819684,2.8068665058964553,-0.004883377040387951,0,0,0,0,0,0,0,1284,3,neutral,2
0,0.0,5.476223,0.0,67.91963334376587,0,2.377119224151644,2.3768778620054913,2.4088753169190857,-0.03164257638416944,0,0,0,0,0,0,0,4961,5,neutral,4
1,0.015873015873015872,11.01033,0.0,67.04922910123011,0,2.372977861722765,2.3727802584667548,2.408761525994409,-0.035627529274869,0,0,0,0,0,0,0,4962,5,neutral,4
2,0.031746031746031744,15.83822,0.0,66.19507975519109,0,2.368832100311212,2.3686655798018466,2.4086477989812183,-0.039629637699818185,0,0,0,0,0,0,0,4963,5,neutral,4
3,0.047619047619047616,19.67382,0.0,65.35749430565816,0,2.3647557270541926,2.3646169874200953,2.4085341366013746,-0.043565741058497684,0,0,0,0,0,0,0,4964,5,neutral,4
4,0.06349206349206349,22.49137,0.0,64.53672309404516,0,2.3608225290889138,2.36072038407274,2.408420539553545,-0.04734993738548672,0,0,0,0,0,0,0,4965,5,neutral,4
5,0.07936507936507936,24.54954,0.0,63.73296299562529,0,2.357106293552581,2.3570616044059416,2.408307008510941,-0.050896392795192834,0,0,0,0,0,0,0,4966,5,neutral,4
6,0.09523809523809523,26.23391,0.0,62.94636232793068,0,2.353680807582402,2.3537235128933274,2.4081935441191487,-0.05412224354713371,0,0,0,0,0,0,0,4967,5,neutral,4
7,0.1111111111111111,27.88422,0.0,62.17702547506536,0,2.3506198583155835,2.350783122206803,2.4080801469940925,-0.05695047767309115,0,0,0,0,0,0,0,4968,5,neutral,4
8,0.12698412698412698,29.61584,0.0,61.42501723100186,0,2.347997232889332,2.3483088500288307,2.4079668177201876,-0.0593126781629818,0,0,0,0,0,0,0,4969,5,neutral,4
9,0.14285714285714285,31.30273,0.0,60.690366867457335,0,2.345886718440854,2.3463580333256915,2.4078535568487167,-0.06115150868997207,0,0,0,0,0,0,0,4970,5,neutral,4
10,0.15873015873015872,32.62634,0.0,59.97307193397024,0,2.344362102107356,2.344974814740917,2.4077403648964757,-0.0624228272156923,0,0,0,0,0,0,0,4971,5,neutral,4
11,0.1746031746031746,33.24908,0.0,59.273101799380846,0,2.3434971710260464,2.344188504550879,2.4076272423447196,-0.06309732403359218,0,0,0,0,0,0,0,4972,5,neutral,4
12,0.19047619047619047,32.9976,0.0,58.59040094512088,0,2.3433549713459167,2.3440125025367466,2.4075141896384338,-0.06316159989625184,0,0,0,0,0,0,0,4973,5,neutral,4
13,0.20634920634920634,31.93924,0.0,57.924892021591525,0,2.343909056248164,2.344443837222803,2.407401207185948,-0.06261862677668106,0,0,0,0,0,0,0,4974,5,neutral,4
14,0.2222222222222222,30.39119,0.0,57.27647867950481,0,2.3450885391707588,2.3454633468476622,2.4072882953588977,-0.061487566897061315,0,0,0,0,0,0,0,4975,5,neutral,4
15,0.23809523809523808,28.68745,0.0,56.64504818842455,0,2.3468222124979006,2.3470364904377035,2.4071754544925343,-0.05980296165562253,0,0,0,0,0,0,0,4976,5,neutral,4
16,0.25396825396825395,26.97887,0.0,56.03047385490957,0,2.349038868613789,2.349114742609888,2.407062684886374,-0.05761333682447186,0,0,0,0,0,0,0,4977,5,neutral,4
17,0.2698412698412698,25.13946,0.0,55.43261725266843,0,2.3516672999026236,2.3516374960661013,2.4069499868051625,-0.054979300056216894,0,0,0,0,0,0,0,4978,5,neutral,4
18,0.2857142857142857,22.87453,0.0,54.85133027701125,0,2.3546362987486043,2.3545343735844204,2.4068373604801283,-0.05197122889395205,0,0,0,0,0,0,0,4979,5,neutral,4
19,0.30158730158730157,19.98313,0.0,54.28645703565841,0,2.357874657535931,2.3577278373967685,2.4067248061104936,-0.048666661395111735,0,0,0,0,0,0,0,4980,5,neutral,4
20,0.31746031746031744,16.58739,0.0,53.73783558765966,0,2.361311168648802,2.3611359775442184,2.4066123238651986,-0.04514750777789103,0,0,0,0,0,0,0,4981,5,neutral,4
21,0.3333333333333333,13.22058,0.0,53.20529954181145,0,2.3648746244714185,2.3646753607365096,2.4064999138847982,-0.041497201563625824,0,0,0,0,0,0,0,4982,5,neutral,4
22,0.3492063492063492,10.6125,0.0,52.68867952555049,0,2.368493817387979,2.3682638258230333,2.406387576283482,-0.037797904107824465,0,0,0,0,0,0,0,4983,5,neutral,4
23,0.36507936507936506,9.340965,0.0,52.18780453486433,0,2.372097539782684,2.3718231198358954,2.406275311151169,-0.03412786855920193,0,0,0,0,0,0,0,4984,5,neutral,4
24,0.38095238095238093,9.454803,0.0,51.70250317530489,0,2.3756145840397327,2.375281278792643,2.4061631185556367,-0.030559059059077884,0,0,0,0,0,0,0,4985,5,neutral,4
25,0.3968253968253968,10.45738,0.0,51.232604803729565,0,2.378973742543322,2.378574669716111,2.4060509985446283,-0.027155108723639767,0,0,0,0,0,0,0,4986,5,neutral,4
26,0.4126984126984127,11.47608,0.0,50.77794057993554,0,2.382103807677658,2.3816496248121726,2.40593895114791,-0.023969685468247143,0,0,0,0,0,0,0,4987,5,neutral,4
27,0.42857142857142855,11.6359,0.0,50.33834443690255,0,2.3849335718269358,2.3844636158952723,2.4058269763792333,-0.02104531758385828,0,0,0,0,0,0,0,4988,5,neutral,4
28,0.4444444444444444,10.39299,0.0,49.91365397792302,0,2.387398248203367,2.386985937344712,2.4057150742381705,-0.018412710782581894,0,0,0,0,0,0,0,4989,5,neutral,4
29,0.4603174603174603,7.69696,0.0,49.50371130848197,0,2.3894941261701557,2.389197888966389,2.405603244711806,-0.016090565337626955,0,0,0,0,0,0,0,4990,5,neutral,4
30,0.47619047619047616,4.007164,0.0,49.10836381035502,0,2.3912512878070182,2.391092475049828,2.4054914877762603,-0.014085877027796366,0,0,0,0,0,0,0,4991,5,neutral,4
31,0.49206349206349204,0.07867432,0.0,48.72746486502464,0,2.392700172598861,2.392673660552985,2.4053798033980374,-0.012394680954025971,0,0,0,0,0,0,0,4992,5,neutral,4
32,0.5079365079365079,-3.221001,0.0,48.360874533174695,0,2.3938712200305896,2.3939552470502825,2.40526819153519,-0.011003175592516866,0,0,0,0,0,0,0,4993,5,neutral,4
33,0.5238095238095237,-5.108192,0.0,48.00846019671476,0,2.39479486958711,2.394959447444832,2.4051566521383068,-0.009889148083499203,0,0,0,0,0,0,0,4994,5,neutral,4
34,0.5396825396825397,-5.047722,0.0,47.67009716950724,0,2.3955015607533277,2.3957152480720882,2.405045185151328,-0.009023612128389338,0,0,0,0,0,0,0,4995,5,neutral,4
35,0.5555555555555556,-2.792755,0.0,47.34566928272686,0,2.3960217330141473,2.3962566495305926,2.4049337905122017,-0.008372567159703293,0,0,0,0,0,0,0,4996,5,neutral,4
36,0.5714285714285714,1.51796,0.0,47.03506945057273,0,2.3963858258544772,2.3966208741807136,2.4048224681533954,-0.007898790842830005,0,0,0,0,0,0,0,4997,5,neutral,4
37,0.5873015873015872,7.448227,0.0,46.738200221879715,0,2.3966242787592202,2.396846620150284,2.4047112180022885,-0.007563585070780596,0,0,0,0,0,0,0,4998,5,neutral,4
38,0.6031746031746031,14.3732,0.0,46.45497432303957,0,2.396767531213283,2.396972430463361,2.4046000399814584,-0.007328406835716103,0,0,0,0,0,0,0,4999,5,neutral,4
39,0.6190476190476191,21.67667,0.0,46.18531519754476,0,2.3968460227015718,2.3970352330437565,2.4044889340088864,-0.007156328225621766,0,0,0,0,0,0,0,5000,5,neutral,4
40,0.6349206349206349,28.90787,1.083439539675869,45.929157547410156,0,2.3968901927089914,2.3970690940133923,2.404377899998107,-0.007013283126099521,0,0,0,0,0,0,0,5001,5,neutral,4
41,0.6507936507936507,35.89323,9.607134962899488,45.68644788171162,0,2.3969304807204477,2.397104213682876,2.404266937858318,-0.00686907122990185,0,0,0,0,0,0,0,5002,5,neutral,4
42,0.6666666666666666,42.60605,17.866901748049617,45.457145077508784,0,2.396997326220847,2.397166182294305,2.404156047494475,-0.00669810229422052,0,0,0,0,0,0,0,5003,5,neutral,4
43,0.6825396825396826,49.08459,25.793592137019804,45.2412209584929,0,2.3971211686950946,2.397275500985262,2.4040452288073815,-0.00647987517677945,0,0,0,0,0,0,0,5004,5,neutral,4
44,0.6984126984126984,55.27983,33.36208496047261,45.03866089682412,0,2.397330310837444,2.397447362501161,2.4039344816937973,-0.006199197123598082,0,0,0,0,0,0,0,5005,5,neutral,4
45,0.7142857142857142,61.11319,40.60262941384133,44.8494644437982,0,2.397629732520199,2.397691675842232,2.4038238060465678,-0.00584615912213435,0,0,0,0,0,0,0,5006,5,neutral,4
46,0.7301587301587301,66.62036,47.65405016806397,44.67364599521528,0,2.3980100571446528,2.3980133094920597,2.403713201754793,-0.005415892672912152,0,0,0,0,0,0,0,5007,5,neutral,4
47,0.746031746031746,72.04297,54.824076136285036,44.511235497616774,0,2.398461698031633,2.3984125196678954,2.4036026687040364,-0.004908141539419356,0,0,0,0,0,0,0,5008,5,neutral,4
48,0.7619047619047619,77.96001,62.61046890807516,44.36227920191861,0,2.3989750685019695,2.3988855238891693,2.4034922067765736,-0.00432668817983951,0,0,0,0,0,0,0,5009,5,neutral,4
49,0.7777777777777777,85.07283,71.64867344482097,44.22684047140359,0,2.3995405818764906,2.3994251767124406,2.4033818158516875,-0.0036786780124008524,0,0,0,0,0,0,0,5010,5,neutral,4
50,0.7936507936507936,94.00414,82.57796222442077,44.10500065155394,0,2.400148651476025,2.400021703996727,2.4032714958060057,-0.002973885150379246,0,0,0,0,0,0,0,5011,5,neutral,4
51,0.8095238095238095,105.0882,95.8450749395454,43.996860009813815,0,2.4007896906214006,2.4006634543657177,2.4031612465138763,-0.00222396094025955,0,0,0,0,0,0,0,5012,5,neutral,4
52,0.8253968253968254,118.3109,111.48621486996774,43.902538754083984,0,2.401454112633446,2.4013376310954277,2.403051067847772,-0.0014417020744889818,0,0,0,0,0,0,0,5013,5,neutral,4
53,0.8412698412698412,133.2603,128.94721993902425,43.82217813957804,0,2.4021323308329907,2.4020309737642225,2.4029409596787255,-0.0006403689418808946,0,0,0,0,0,0,0,5014,5,neutral,4
54,0.8571428571428571,149.0209,147.01678200767307,43.75594167462903,0,2.4028147585408632,2.4027303659107178,2.40283092187678,0.0001669220298323379,0,0,0,0,0,0,0,5015,5,neutral,4
55,0.873015873015873,164.1048,163.9445483993755,43.70401643714309,0,2.4034918090778916,2.403423351988322,2.4027209543114516,0.0009677153280825863,0,0,0,0,0,0,0,5016,5,neutral,4
56,0.8888888888888888,176.4684,177.7741362497507,43.6666145146752,0,2.4041538957649045,2.404098553569921,2.402611056852197,0.0017506325596835272,0,0,0,0,0,0,0,5017,5,neutral,4
57,0.9047619047619047,184.0652,186.8359093371226,43.64397458257691,0,2.404791431922731,2.4047459807135745,2.402501229368875,0.002505683816065242,0,0,0,0,0,0,0,5018,5,neutral,4
58,0.9206349206349206,185.4371,190.24611336816466,43.63636363636363,1,2.4053948308721997,2.4053572395022726,2.4023914717322,0.0032244752125795825,0,0,0,0,0,0,0,5019,5,neutral,4
59,0.9365079365079365,180.4814,188.2061583081652,43.63925451550458,0,2.405954505934138,2.405925641017182,2.40228178381418,0.0039003178613118503,0,0,0,0,0,0,0,5020,5,neutral,4
60,0.9523809523809523,170.629,181.9400758955205,43.64786744013872,0,2.406461402245179,2.406446220482872,2.402172165488532,0.004528247015889119,0,0,0,0,0,0,0,5021,5,neutral,4
61,0.9682539682539681,158.3513,173.2521668604043,43.66211611006757,0,2.4069131665063463,2.406915678137376,2.4020626166310755,0.005104962941152929,0,0,0,0,0,0,0,5022,5,neutral,4
62,0.9841269841269841,146.0914,163.86770296446036,43.68191840203809,0,2.4073120290408343,2.407332255573889,2.4019531371200955,0.005628707254489507,0,0,0,0,0,0,0,5023,5,neutral,4
63,1.0,135.1801,154.83719792699287,43.70719615194908,0,2.4076603091460766,2.4076955628227323,2.4018437268366792,0.006099090007466613,0,0,0,0,0,0,0,5024,5,neutral,4
