timestamp,value,norm_ts
1618935791.76095,21.64454,0.5819501876831055
1618935791.77658,21.03431,0.5975801944732666
1618935791.79221,20.07866,0.6132102012634277
1618935791.80783,18.95232,0.6288301944732666
1618935791.82346,17.79736,0.6444602012634277
1618935791.83908,16.62129,0.6600801944732666
1618935791.85471,15.29255,0.6757102012634277
1618935791.87033,13.64289,0.6913301944732666
1618935791.88596,11.58771,0.7069602012634277
1618935791.90159,9.211154,0.7225902080535889
1618935791.91721,6.762023,0.7382102012634277
1618935791.93284,4.528273,0.7538402080535889
1618935791.94846,2.745708,0.7694602012634277
1618935791.96409,1.476408,0.7850902080535889
1618935791.97971,0.5721912,0.8007102012634277
1618935791.99534,-0.2814598,0.8163402080535889
1618935792.01097,-1.384243,0.83197021484375
1618935792.02659,-2.806936,0.8475902080535889
1618935792.04222,-4.199976,0.86322021484375
1618935792.05784,-4.743975,0.8788402080535889
1618935792.07347,-3.320448,0.89447021484375
1618935792.08909,1.199747,0.9100902080535889
1618935792.10472,9.497021,0.92572021484375
1618935792.12035,21.52573,0.941349983215332
1618935792.13597,36.4397,0.95697021484375
1618935792.1516,52.81197,0.972599983215332
1618935792.16722,69.00178,0.98822021484375
1618935792.18285,83.58034,1.003849983215332
1618935792.19847,95.65111,1.01947021484375
1618935792.2141,105.0044,1.035099983215332
1618935792.22973,112.199,1.0507299900054932
1618935792.24535,118.4579,1.066349983215332
1618935792.26098,125.4592,1.0819799900054932
1618935792.2766,134.8441,1.097599983215332
1618935792.29223,147.6261,1.1132299900054932
1618935792.30785,163.5593,1.128849983215332
1618935792.32348,180.9209,1.1444799900054932
1618935792.33911,196.7852,1.1601099967956543
1618935792.35473,207.8123,1.1757299900054932
1618935792.37036,211.3857,1.1913599967956543
1618935792.38598,206.4698,1.2069799900054932
1618935792.40161,193.9822,1.2226099967956543
1618935792.41723,176.4936,1.2382299900054932
1618935792.43286,157.3107,1.2538599967956543
1618935792.44849,139.487,1.2694900035858154
1618935792.46411,125.0285,1.2851099967956543
1618935792.47974,114.6214,1.3007400035858154
1618935792.49536,107.7849,1.3163599967956543
1618935792.51099,103.5031,1.3319900035858154
1618935792.52661,100.6981,1.3476099967956543
1618935792.54224,98.61734,1.3632400035858154
1618935792.55787,96.84657,1.3788700103759766
1618935792.57349,94.9615,1.3944900035858154
1618935792.58912,92.21268,1.4101200103759766
1618935792.60474,87.47217,1.4257400035858154
1618935792.62037,79.54803,1.4413700103759766
1618935792.63599,67.75986,1.4569900035858154
1618935792.65162,52.47476,1.4726200103759766
1618935792.66725,35.20694,1.4882500171661377
1618935792.68287,17.98267,1.5038700103759766
1618935792.6985,2.69696,1.5195000171661377
1618935792.71412,-9.369781,1.5351200103759766
1618935792.72975,-17.52136,1.5507500171661377
1618935792.74537,-21.44125,1.5663700103759766
1618935792.761,-21.24377,1.5820000171661377
1618935792.77663,-17.88068,1.5976300239562988
1618935792.79225,-13.54877,1.6132500171661377
1618935792.80788,-11.64893,1.6288800239562988
1618935792.8235,-15.84766,1.6445000171661377
1618935792.83913,-28.47559,1.6601300239562988
1618935792.85475,-49.25519,1.6757500171661377
1618935792.87038,-75.06006,1.6913800239562988
1618935792.88601,-101.1318,1.70701003074646
1618935792.90163,-122.9939,1.7226300239562988
1618935792.91726,-138.1478,1.73826003074646
1618935792.93288,-146.5118,1.7538800239562988
1618935792.94851,-149.7044,1.76951003074646
1618935792.96413,-149.6714,1.7851300239562988
1618935792.97976,-147.7028,1.80076003074646
1618935792.99539,-144.2869,1.816390037536621
1618935793.01101,-139.5837,1.83201003074646
1618935793.02664,-134.0425,1.847640037536621
1618935793.04226,-128.4979,1.86326003074646
1618935793.05789,-123.8165,1.878890037536621
1618935793.07351,-120.4261,1.89451003074646
1618935793.08914,-118.1309,1.910140037536621
1618935793.10477,-116.2107,1.9257700443267822
1618935793.12039,-113.8411,1.941390037536621
1618935793.13602,-110.5685,1.9570200443267822
1618935793.15164,-106.4794,1.972640037536621
1618935793.16727,-102.1506,1.9882700443267822
1618935793.18289,-98.31805,2.003890037536621
1618935793.19852,-95.56708,2.0195200443267822
1618935793.21415,-94.1449,2.0351500511169434
1618935793.22977,-93.88794,2.0507700443267822
1618935793.2454,-94.23425,2.0664000511169434
1618935793.26102,-94.34064,2.0820200443267822
1618935793.27665,-93.32446,2.0976500511169434
1618935793.29227,-90.53735,2.1132700443267822
1618935793.3079,-85.85626,2.1289000511169434
1618935793.32353,-79.80469,2.1445300579071045
1618935793.33915,-73.36243,2.1601500511169434
1618935793.35478,-67.58838,2.1757800579071045
1618935793.3704,-63.15112,2.1914000511169434
1618935793.38603,-60.06433,2.2070300579071045
1618935793.40165,-57.74597,2.2226500511169434
1618935793.41728,-55.43738,2.2382800579071045
1618935793.43291,-52.56018,2.2539100646972656
1618935793.44853,-49.05994,2.2695300579071045
1618935793.46416,-45.36572,2.2851600646972656
1618935793.47978,-42.12268,2.3007800579071045
1618935793.49541,-39.79785,2.3164100646972656
1618935793.51103,-38.41455,2.3320300579071045
1618935793.52666,-37.55627,2.3476600646972656
1618935793.54229,-36.62646,2.3632900714874268
1618935793.55791,-35.18457,2.3789100646972656
1618935793.57354,-33.16638,2.3945400714874268
1618935793.58916,-30.82751,2.4101600646972656
1618935793.60479,-28.59436,2.4257900714874268
1618935793.62041,-26.75049,2.4414100646972656
1618935793.63604,-25.3988,2.4570400714874268
1618935793.65167,-24.40649,2.472670078277588
1618935793.66729,-23.63879,2.4882900714874268
1618935793.68292,-23.099,2.503920078277588
1618935793.69854,-22.85449,2.5195400714874268
1618935793.71417,-22.98718,2.535170078277588
1618935793.72979,-23.35291,2.5507900714874268
1618935793.74542,-23.58606,2.566420078277588
1618935793.76105,-23.26331,2.582050085067749
1618935793.77667,-22.16638,2.597670078277588
1618935793.7923,-20.43262,2.613300085067749
1618935793.80792,-18.51868,2.628920078277588
1618935793.82355,-16.93652,2.644550085067749
1618935793.83917,-16.0321,2.660170078277588
1618935793.8548,-15.88721,2.675800085067749
1618935793.87043,-16.31848,2.69143009185791
1618935793.88605,-17.14063,2.707050085067749
1618935793.90168,-18.12756,2.72268009185791
1618935793.9173,-19.13611,2.738300085067749
1618935793.93293,-19.95105,2.75393009185791
1618935793.94855,-20.26575,2.769550085067749
1618935793.96418,-19.74268,2.78518009185791
1618935793.97981,-18.14868,2.8008100986480713
1618935793.99543,-15.51208,2.81643009185791
1618935794.01106,-12.17029,2.8320600986480713
1618935794.02668,-8.695923,2.84768009185791
1618935794.04231,-5.730347,2.8633100986480713
1618935794.05794,-3.781494,2.8789401054382324
1618935794.07356,-3.109375,2.8945600986480713
1618935794.08919,-3.70752,2.9101901054382324
1618935794.10481,-5.396729,2.9258100986480713
1618935794.12044,-7.833862,2.9414401054382324
1618935794.13606,-10.62244,2.9570600986480713
1618935794.15169,-13.21826,2.9726901054382324
1618935794.16732,-15.02246,2.9883201122283936
1618935794.18294,-15.54004,3.0039401054382324
1618935794.19857,-14.53943,3.0195701122283936
1618935794.21419,-12.27075,3.0351901054382324
1618935794.22982,-9.446289,3.0508201122283936
1618935794.24544,-7.018311,3.0664401054382324
1618935794.26107,-5.727051,3.0820701122283936
1618935794.2767,-5.830688,3.0977001190185547
1618935794.29232,-6.950562,3.1133201122283936
1618935794.30795,-8.376831,3.1289501190185547
1618935794.32357,-9.402466,3.1445701122283936
1618935794.3392,-9.715088,3.1602001190185547
1618935794.35482,-9.481689,3.1758201122283936
1618935794.37045,-9.064087,3.1914501190185547
1618935794.38608,-8.846436,3.207080125808716
1618935794.4017,-8.81189,3.2227001190185547
1618935794.41733,-8.7948,3.238330125808716
1618935794.43295,-8.516479,3.2539501190185547
1618935794.44858,-7.902222,3.269580125808716
1618935794.4642,-7.105713,3.2852001190185547
1618935794.47983,-6.431763,3.300830125808716
1618935794.49546,-6.17749,3.316460132598877
1618935794.51108,-6.46582,3.332080125808716
1618935794.52671,-7.192749,3.347710132598877
1618935794.54233,-8.071045,3.363330125808716
1618935794.55796,-8.775513,3.378960132598877
1618935794.57358,-9.078125,3.394580125808716
1618935794.58921,-8.887451,3.410210132598877
1618935794.60484,-8.252075,3.425840139389038
1618935794.62046,-7.312256,3.441460132598877
1618935794.63609,-6.250977,3.457090139389038
1618935794.65171,-5.134766,3.472710132598877
1618935794.66734,-3.975952,3.488340139389038
1618935794.68296,-2.717896,3.503960132598877
1618935794.69859,-1.341553,3.519590139389038
1618935794.71422,0.08435059,3.535220146179199
1618935794.72984,1.436035,3.550840139389038
1618935794.74547,2.594238,3.566470146179199
1618935794.76109,3.602783,3.582090139389038
1618935794.77672,4.610718,3.597720146179199
1618935794.79234,5.843628,3.613340139389038
1618935794.80797,7.324829,3.628970146179199
1618935794.8236,8.897949,3.6446001529693604
1618935794.83922,10.16077,3.660220146179199
1618935794.85485,10.72675,3.6758501529693604
1618935794.87047,10.41779,3.691470146179199
1618935794.8861,9.2547,3.7071001529693604
1618935794.90172,7.576355,3.722720146179199
1618935794.91735,5.724548,3.7383501529693604
1618935794.93298,4.007446,3.7539801597595215
1618935794.9486,2.657715,3.7696001529693604
1618935794.96423,1.800659,3.7852301597595215
1618935794.97985,1.534119,3.8008501529693604
1618935794.99548,1.832458,3.8164801597595215
1618935795.0111,2.473206,3.8321001529693604
1618935795.02673,3.00238,3.8477301597595215
1618935795.04236,2.901428,3.8633601665496826
1618935795.05798,1.787659,3.8789801597595215
1618935795.07361,-0.3759766,3.8946101665496826
1618935795.08923,-3.242371,3.9102301597595215
1618935795.10486,-6.260437,3.9258601665496826
1618935795.12048,-8.887207,3.9414801597595215
1618935795.13611,-10.80933,3.9571101665496826
1618935795.15174,-11.93738,3.9727401733398438
1618935795.16736,-12.32043,3.9883601665496826
1618935795.18299,-11.95898,4.003990173339844
1618935795.19861,-10.76453,4.019610166549683
1618935795.21424,-8.654602,4.035240173339844
1618935795.22986,-5.692078,4.050860166549683
1618935795.24549,-2.210022,4.066490173339844
1618935795.26112,1.233032,4.082120180130005
1618935795.27674,4.037903,4.097740173339844
1618935795.29237,5.836853,4.113370180130005
1618935795.30799,6.59967,4.128990173339844
1618935795.32362,6.670166,4.144620180130005
1618935795.33924,6.515442,4.160240173339844
1618935795.35487,6.478638,4.175870180130005
1618935795.3705,6.660461,4.191500186920166
1618935795.38612,6.901917,4.207120180130005
1618935795.40175,6.995911,4.222750186920166
1618935795.41737,6.873901,4.238370180130005
1618935795.433,6.679626,4.254000186920166
1618935795.44862,6.680481,4.269620180130005
1618935795.46425,7.072205,4.285250186920166
1618935795.47988,7.884155,4.300880193710327
1618935795.4955,8.882019,4.316500186920166
1618935795.51113,9.700378,4.332130193710327
1618935795.52675,9.997742,4.347750186920166
1618935795.54238,9.517395,4.363380193710327
1618935795.558,8.236206,4.379000186920166
1618935795.57363,6.359131,4.394630193710327
1618935795.58926,4.308594,4.410260200500488
1618935795.60488,2.682373,4.425880193710327
1618935795.62051,1.995728,4.441510200500488
1618935795.63613,2.418396,4.457130193710327
1618935795.65176,3.637146,4.472760200500488
1618935795.66738,4.87384,4.488380193710327
1618935795.68301,5.216492,4.504010200500488
1618935795.69864,4.044983,4.519640207290649
1618935795.71426,1.321289,4.535260200500488
1618935795.72989,-2.3927,4.550890207290649
1618935795.74551,-6.210144,4.566510200500488
1618935795.76114,-9.29126,4.582140207290649
1618935795.77676,-11.1145,4.597760200500488
1618935795.79239,-11.52246,4.613390207290649
1618935795.80802,-10.57214,4.6290202140808105
1618935795.82364,-8.447998,4.644640207290649
1618935795.83927,-5.424561,4.6602702140808105
1618935795.85489,-1.923401,4.675890207290649
1618935795.87052,1.472412,4.6915202140808105
1618935795.88614,4.192017,4.707140207290649
1618935795.90177,5.833435,4.7227702140808105
1618935795.9174,6.4021,4.738399982452393
1618935795.93302,6.202209,4.7540202140808105
1618935795.94865,5.663574,4.769649982452393
1618935795.96427,4.977234,4.7852702140808105
1618935795.9799,4.109558,4.800899982452393
1618935795.99552,2.808899,4.8165202140808105
1618935796.01115,0.928894,4.832149982452393
1618935796.02678,-1.275757,4.847779989242554
1618935796.0424,-3.250244,4.863399982452393
1618935796.05803,-4.261597,4.879029989242554
1618935796.07365,-3.825867,4.894649982452393
1618935796.08928,-1.956726,4.910279989242554
1618935796.1049,0.7803345,4.925899982452393
1618935796.12053,3.519897,4.941529989242554
1618935796.13616,5.464355,4.957159996032715
1618935796.15178,6.21283,4.972779989242554
1618935796.16741,5.86438,4.988409996032715
1618935796.18303,4.901184,5.004029989242554
1618935796.19866,3.896057,5.019659996032715
1618935796.21428,3.208801,5.035279989242554
1618935796.22991,2.902893,5.050909996032715
1618935796.24554,2.69519,5.066540002822876
1618935796.26116,2.258606,5.082159996032715
1618935796.27679,1.399658,5.097790002822876
1618935796.29241,0.1806641,5.113409996032715
1618935796.30804,-1.105835,5.129040002822876
1618935796.32366,-2.143982,5.144659996032715
1618935796.33929,-2.761902,5.160290002822876
1618935796.35492,-3.161987,5.175920009613037
1618935796.37054,-3.58429,5.191540002822876
1618935796.38617,-4.253723,5.207170009613037
1618935796.40179,-5.246338,5.222790002822876
1618935796.41742,-6.288452,5.238420009613037
1618935796.43305,-7.121887,5.254050016403198
1618935796.44867,-7.72876,5.269670009613037
1618935796.4643,-8.340759,5.285300016403198
1618935796.47992,-9.136292,5.300920009613037
1618935796.49555,-9.869812,5.316550016403198
1618935796.51117,-9.810608,5.332170009613037
1618935796.5268,-8.170349,5.347800016403198
1618935796.54243,-4.694946,5.363430023193359
1618935796.55805,-0.0579834,5.379050016403198
1618935796.57368,4.207642,5.394680023193359
1618935796.5893,6.402405,5.410300016403198
1618935796.60493,5.452271,5.425930023193359
1618935796.62055,1.385071,5.441550016403198
1618935796.63618,-4.798523,5.457180023193359
1618935796.65181,-11.71295,5.4728100299835205
1618935796.66743,-18.25342,5.488430023193359
1618935796.68306,-23.85413,5.5040600299835205
1618935796.69868,-28.40112,5.519680023193359
1618935796.71431,-31.89417,5.5353100299835205
1618935796.72993,-34.20972,5.550930023193359
1618935796.74556,-35.23285,5.5665600299835205
1618935796.76119,-35.07141,5.582190036773682
1618935796.77681,-34.17419,5.5978100299835205
1618935796.79244,-33.30585,5.613440036773682
1618935796.80806,-33.28851,5.6290600299835205
1618935796.82369,-34.71533,5.644690036773682
1618935796.83931,-37.78619,5.6603100299835205
1618935796.85494,-42.39459,5.675940036773682
1618935796.87057,-47.84808,5.691570043563843
1618935796.88619,-53.02917,5.707190036773682
1618935796.90182,-56.7981,5.722820043563843
1618935796.91744,-58.17438,5.738440036773682
1618935796.93307,-56.79443,5.754070043563843
1618935796.94869,-53.04663,5.769690036773682
1618935796.96432,-47.88123,5.785320043563843
1618935796.97995,-42.38342,5.800950050354004
1618935796.99557,-37.27313,5.816570043563843
1618935797.0112,-32.50726,5.832200050354004
1618935797.02682,-27.41583,5.847820043563843
1618935797.04245,-21.06476,5.863450050354004
1618935797.05807,-12.80829,5.879070043563843
1618935797.0737,-2.664856,5.894700050354004
1618935797.08933,8.547363,5.910330057144165
1618935797.10495,19.75507,5.925950050354004
1618935797.12058,30.02222,5.941580057144165
1618935797.1362,38.90732,5.957200050354004
1618935797.15183,46.63696,5.972830057144165
1618935797.16745,53.65973,5.988450050354004
1618935797.18308,60.25537,6.004080057144165
1618935797.19871,66.28079,6.019710063934326
1618935797.21433,71.43875,6.035330057144165
1618935797.22996,75.69189,6.050960063934326
1618935797.24558,79.47348,6.066580057144165
1618935797.26121,83.27905,6.082210063934326
1618935797.27683,87.09811,6.097830057144165
1618935797.29246,90.07025,6.113460063934326
1618935797.30809,90.75662,6.129090070724487
1618935797.32371,88.03864,6.144710063934326
1618935797.33934,82.01425,6.160340070724487
1618935797.35496,74.19559,6.175960063934326
1618935797.37059,66.73804,6.191590070724487
1618935797.38621,61.22211,6.207210063934326
1618935797.40184,57.65823,6.222840070724487
1618935797.41747,54.54251,6.238470077514648
1618935797.43309,49.87054,6.254090070724487
1618935797.44872,42.45306,6.269720077514648
1618935797.46434,32.67874,6.285340070724487
1618935797.47997,22.22949,6.300970077514648
1618935797.49559,13.01807,6.316590070724487
1618935797.51122,6.080109,6.332220077514648
1618935797.52685,1.071838,6.34785008430481
1618935797.54247,-3.263336,6.363470077514648
1618935797.5581,-8.213379,6.37910008430481
1618935797.57372,-14.30539,6.394720077514648
1618935797.58935,-21.27518,6.41035008430481
1618935797.60497,-28.20065,6.425970077514648
1618935797.6206,-34.17508,6.44160008430481
1618935797.63623,-38.86057,6.457230091094971
1618935797.65185,-42.53076,6.47285008430481
1618935797.66748,-45.95126,6.488480091094971
1618935797.6831,-49.83218,6.50410008430481
1618935797.69873,-54.42587,6.519730091094971
1618935797.71435,-59.36929,6.53535008430481
1618935797.72998,-63.87943,6.550980091094971
1618935797.74561,-67.12692,6.566610097885132
1618935797.76123,-68.6655,6.582230091094971
1618935797.77686,-68.66779,6.597860097885132
1618935797.79248,-67.81827,6.613480091094971
1618935797.80811,-67.02859,6.629110097885132
1618935797.82373,-67.04272,6.644730091094971
1618935797.83936,-68.22147,6.660360097885132
1618935797.85499,-70.46741,6.675990104675293
1618935797.87061,-73.37805,6.691610097885132
1618935797.88624,-76.42615,6.707240104675293
1618935797.90186,-79.14624,6.722860097885132
1618935797.91749,-81.16663,6.738490104675293
1618935797.93311,-82.17841,6.754110097885132
1618935797.94874,-81.97031,6.769740104675293
1618935797.96437,-80.45905,6.785370111465454
1618935797.97999,-77.75229,6.800990104675293
1618935797.99562,-74.11136,6.816620111465454
1618935798.01124,-69.80499,6.832240104675293
1618935798.02687,-64.85187,6.847870111465454
1618935798.04249,-58.97778,6.863490104675293
1618935798.05812,-51.64914,6.879120111465454
1618935798.07375,-42.35922,6.894750118255615
1618935798.08937,-30.98112,6.910370111465454
1618935798.105,-17.90938,6.926000118255615
1618935798.12062,-4.029358,6.941620111465454
1618935798.13625,9.523483,6.957250118255615
1618935798.15187,21.67688,6.972870111465454
1618935798.1675,31.6114,6.988500118255615
1618935798.18313,38.76782,7.004130125045776
1618935798.19875,42.7984,7.019750118255615
1618935798.21438,43.56976,7.035380125045776
1618935798.23,41.18637,7.051000118255615
1618935798.24563,36.06839,7.066630125045776
1618935798.26125,28.98427,7.082250118255615
1618935798.27688,20.98553,7.097880125045776
1618935798.29251,13.18114,7.1135101318359375
1618935798.30813,6.50164,7.129130125045776
1618935798.32376,1.475609,7.1447601318359375
1618935798.33938,-1.946815,7.160380125045776
1618935798.35501,-4.332886,7.1760101318359375
1618935798.37063,-6.575386,7.191630125045776
1618935798.38626,-9.620686,7.2072601318359375
1618935798.40189,-14.09928,7.222890138626099
1618935798.41751,-20.09055,7.2385101318359375
1618935798.43314,-27.084,7.254140138626099
1618935798.44876,-34.14774,7.2697601318359375
1618935798.46439,-40.3134,7.285390138626099
1618935798.48001,-44.94521,7.3010101318359375
1618935798.49564,-47.93583,7.316640138626099
1618935798.51127,-49.62466,7.33227014541626
1618935798.52689,-50.52631,7.347890138626099
1618935798.54252,-51.01055,7.36352014541626
1618935798.55814,-51.07843,7.379140138626099
1618935798.57377,-50.37588,7.39477014541626
1618935798.58939,-48.4099,7.410390138626099
1618935798.60502,-44.80767,7.42602014541626
1618935798.62065,-39.60218,7.441650152206421
1618935798.63627,-33.26727,7.45727014541626
1618935798.6519,-26.65038,7.472900152206421
1618935798.66752,-20.60445,7.48852014541626
1618935798.68315,-15.85124,7.504150152206421
1618935798.69878,-12.74626,7.519780158996582
1618935798.7144,-11.31505,7.535400152206421
1618935798.73003,-11.50067,7.551030158996582
1618935798.74565,-13.3038,7.566650152206421
1618935798.76128,-16.90565,7.582280158996582
1618935798.7769,-22.40521,7.597900152206421
1618935798.79253,-29.40892,7.613530158996582
1618935798.80816,-36.95708,7.629160165786743
1618935798.82378,-43.74304,7.644780158996582
1618935798.83941,-48.79816,7.660410165786743
1618935798.85503,-51.99298,7.676030158996582
1618935798.87066,-54.08264,7.691660165786743
1618935798.88628,-56.11005,7.707280158996582
1618935798.90191,-58.54575,7.722910165786743
1618935798.91754,-60.70868,7.738540172576904
1618935798.93316,-60.85281,7.754160165786743
1618935798.94879,-56.98383,7.769790172576904
1618935798.96441,-47.82639,7.785410165786743
1618935798.98004,-33.39874,7.801040172576904
1618935798.99566,-14.83801,7.816660165786743
1618935799.01129,6.309479,7.832290172576904
1618935799.02692,28.84561,7.847920179367065
1618935799.04254,52.19202,7.863540172576904
1618935799.05817,76.1322,7.879170179367065
1618935799.07379,100.2839,7.894790172576904
1618935799.08942,123.7092,7.910420179367065
1618935799.10504,145.0966,7.926040172576904
1618935799.12067,163.1666,7.941670179367065
1618935799.1363,177.2048,7.957300186157227
1618935799.15192,187.1397,7.972920179367065
1618935799.16755,193.6428,7.988550186157227
1618935799.18317,197.5753,8.004170179367065
1618935799.1988,199.7514,8.019800186157227
1618935799.21442,200.7546,8.035420179367065
1618935799.23005,200.834,8.051050186157227
1618935799.24568,200.1318,8.066680192947388
1618935799.2613,198.7028,8.082300186157227
1618935799.27693,196.5593,8.097930192947388
1618935799.29255,193.6129,8.113550186157227
1618935799.30818,189.6873,8.129180192947388
1618935799.3238,184.5374,8.144800186157227
1618935799.33943,177.9771,8.160430192947388
1618935799.35506,169.9454,8.176060199737549
1618935799.37068,160.5376,8.191680192947388
1618935799.38631,149.9952,8.207310199737549
1618935799.40193,138.5941,8.222930192947388
1618935799.41756,126.5587,8.238560199737549
1618935799.43318,113.9968,8.254180192947388
1618935799.44881,100.9671,8.269810199737549
1618935799.46444,87.3877,8.28544020652771
1618935799.48006,73.09613,8.301060199737549
1618935799.49569,57.9259,8.31669020652771
1618935799.51131,41.84656,8.332310199737549
1618935799.52694,25.14917,8.34794020652771
1618935799.54256,8.552551,8.363560199737549
1618935799.55819,-6.834595,8.37919020652771
1618935799.57382,-19.73767,8.394820213317871
1618935799.58944,-29.03076,8.41044020652771
1618935799.60507,-34.0769,8.426070213317871
1618935799.62069,-34.93005,8.44169020652771
1618935799.63632,-32.38916,8.457320213317871
1618935799.65194,-27.77313,8.47294020652771
1618935799.66757,-22.54785,8.488570213317871
1618935799.6832,-17.97931,8.504199981689453
1618935799.69882,-14.83118,8.519820213317871
1618935799.71445,-13.23505,8.535449981689453
1618935799.73007,-12.81476,8.551070213317871
1618935799.7457,-12.89459,8.566699981689453
1618935799.76132,-12.74182,8.582320213317871
1618935799.77695,-11.78583,8.597949981689453
1618935799.79258,-9.709167,8.613579988479614
1618935799.8082,-6.422424,8.629199981689453
1618935799.82383,-1.990845,8.644829988479614
1618935799.83945,3.479675,8.660449981689453
1618935799.85508,9.821533,8.676079988479614
1618935799.8707,16.85992,8.691699981689453
1618935799.88633,24.30042,8.707329988479614
1618935799.90196,31.78888,8.722959995269775
1618935799.91758,38.92444,8.738579988479614
1618935799.93321,45.41077,8.754209995269775
1618935799.94883,51.23578,8.769829988479614
1618935799.96446,56.68121,8.785459995269775
1618935799.98008,62.17657,8.801079988479614
1618935799.99571,68.02643,8.816709995269775
1618935800.01134,74.12231,8.832340002059937
1618935800.02696,79.78186,8.847959995269775
1618935800.04259,83.93768,8.863590002059937
1618935800.05821,85.49182,8.879209995269775
1618935800.07384,83.73602,8.894840002059937
1618935800.08946,78.59717,8.910459995269775
1618935800.10509,70.53455,8.926090002059937
1618935800.12072,60.30023,8.941720008850098
1618935800.13634,48.61761,8.957340002059937
1618935800.15197,36.14355,8.972970008850098
1618935800.16759,23.60785,8.988590002059937
1618935800.18322,12.02313,9.004220008850098
1618935800.19884,2.634338,9.019840002059937
1618935800.21447,-3.358978,9.035470008850098
1618935800.2301,-5.301453,9.051100015640259
1618935800.24572,-3.483307,9.066720008850098
1618935800.26135,0.9306946,9.082350015640259
1618935800.27697,6.304413,9.097970008850098
1618935800.2926,11.15674,9.113600015640259
1618935800.30822,14.58292,9.129220008850098
1618935800.32385,16.29208,9.144850015640259
1618935800.33948,16.29181,9.16048002243042
1618935800.3551,14.52332,9.176100015640259
1618935800.37073,10.72464,9.19173002243042
1618935800.38635,4.54715,9.207350015640259
1618935800.40198,-3.984131,9.22298002243042
1618935800.4176,-14.29391,9.238600015640259
1618935800.43323,-25.24811,9.25423002243042
1618935800.44886,-35.58032,9.269860029220581
1618935800.46448,-44.32446,9.28548002243042
1618935800.48011,-51.22656,9.301110029220581
1618935800.49573,-56.75314,9.31673002243042
1618935800.51136,-61.77518,9.332360029220581
1618935800.52698,-67.26578,9.34798002243042
1618935800.54261,-73.87552,9.363610029220581
1618935800.55824,-81.78876,9.379240036010742
1618935800.57386,-90.69504,9.394860029220581
1618935800.58949,-99.9061,9.410490036010742
1618935800.60511,-108.5461,9.426110029220581
1618935800.62074,-115.7901,9.441740036010742
1618935800.63636,-121.1581,9.457360029220581
1618935800.65199,-124.6576,9.472990036010742
1618935800.66762,-126.8298,9.488620042800903
1618935800.68324,-128.5222,9.504240036010742
1618935800.69887,-130.6582,9.519870042800903
1618935800.71449,-133.889,9.535490036010742
1618935800.73012,-138.3371,9.551120042800903
1618935800.74574,-143.4626,9.566740036010742
1618935800.76137,-148.0005,9.582370042800903
1618935800.777,-150.1491,9.598000049591064
1618935800.79262,-147.9507,9.613620042800903
1618935800.80825,-139.8394,9.629250049591064
1618935800.82387,-125.2193,9.644870042800903
1618935800.8395,-104.7563,9.660500049591064
1618935800.85512,-80.22363,9.676120042800903
1618935800.87075,-53.89221,9.691750049591064
1618935800.88638,-27.75381,9.707380056381226
1618935800.902,-2.99472,9.723000049591064
1618935800.91763,20.03174,9.738630056381226
1618935800.93325,41.46686,9.754250049591064
1618935800.94888,61.35806,9.769880056381226
1618935800.9645,79.43362,9.785500049591064
1618935800.98013,95.10352,9.801130056381226
1618935800.99576,107.8634,9.816760063171387
1618935801.01138,117.64,9.832380056381226
1618935801.02701,124.7924,9.848010063171387
1618935801.04263,129.882,9.863630056381226
1618935801.05826,133.3271,9.879260063171387
1618935801.07388,135.1728,9.894880056381226
1618935801.08951,135.1268,9.910510063171387
1618935801.10514,132.8654,9.926140069961548
1618935801.12076,128.2919,9.941760063171387
1618935801.13639,121.7537,9.957390069961548
1618935801.15201,113.9889,9.973010063171387
1618935801.16764,105.9005,9.988640069961548
1618935801.18326,98.28961,10.004260063171387
1618935801.19889,91.59753,10.019890069961548
1618935801.21452,85.82346,10.035520076751709
1618935801.23014,80.52707,10.051140069961548
1618935801.24577,75.05556,10.066770076751709
1618935801.26139,68.70572,10.082390069961548
1618935801.27702,60.993,10.098020076751709
1618935801.29265,51.74966,10.11365008354187
1618935801.30827,41.27345,10.129270076751709
1618935801.3239,30.30344,10.14490008354187
1618935801.33952,19.88768,10.160520076751709
1618935801.35515,11.15071,10.17615008354187
1618935801.37077,4.898804,10.191770076751709
1618935801.3864,1.452927,10.20740008354187
1618935801.40203,0.5206909,10.223030090332031
1618935801.41765,1.36348,10.23865008354187
1618935801.43328,3.104782,10.254280090332031
1618935801.4489,5.005463,10.26990008354187
1618935801.46453,6.61554,10.285530090332031
1618935801.48015,7.666275,10.30115008354187
1618935801.49578,7.926956,10.316780090332031
1618935801.51141,7.075958,10.332410097122192
1618935801.52703,4.775177,10.348030090332031
1618935801.54266,0.847702,10.363660097122192
1618935801.55828,-4.468033,10.379280090332031
1618935801.57391,-10.53575,10.394910097122192
1618935801.58953,-16.49109,10.410530090332031
1618935801.60516,-21.59572,10.426160097122192
1618935801.62079,-25.55804,10.441790103912354
1618935801.63641,-28.66354,10.457410097122192
1618935801.65204,-31.58557,10.473040103912354
1618935801.66766,-35.07199,10.488660097122192
1618935801.68329,-39.5564,10.504290103912354
1618935801.69891,-44.97746,10.519910097122192
1618935801.71454,-50.7794,10.535540103912354
1618935801.73017,-56.28878,10.551170110702515
1618935801.74579,-60.96284,10.566790103912354
1618935801.76142,-64.72587,10.582420110702515
1618935801.77704,-67.94771,10.598040103912354
1618935801.79267,-71.21407,10.613670110702515
1618935801.80829,-75.15282,10.629290103912354
1618935801.82392,-80.17684,10.644920110702515
1618935801.83955,-86.46878,10.660550117492676
1618935801.85517,-93.93935,10.676170110702515
1618935801.8708,-102.261,10.691800117492676
1618935801.88642,-110.8296,10.707420110702515
1618935801.90205,-118.8016,10.723050117492676
1618935801.91767,-125.2154,10.738670110702515
1618935801.9333,-129.2079,10.754300117492676
1618935801.94893,-130.3004,10.769930124282837
1618935801.96455,-128.5406,10.785550117492676
1618935801.98018,-124.4586,10.801180124282837
1618935801.9958,-118.8378,10.816800117492676
1618935802.01143,-112.4056,10.832430124282837
1618935802.02705,-105.6159,10.848050117492676
1618935802.04268,-98.67995,10.863680124282837
1618935802.05831,-91.66299,10.879310131072998
1618935802.07393,-84.59975,10.894930124282837
1618935802.08956,-77.5196,10.910560131072998
1618935802.10518,-70.35077,10.926180124282837
1618935802.12081,-62.82219,10.941810131072998
1618935802.13643,-54.53341,10.957430124282837
1618935802.15206,-45.10486,10.973060131072998
1618935802.16769,-34.45227,10.98869013786316
1618935802.18331,-22.91566,11.004310131072998
1618935802.19894,-11.27161,11.01994013786316
1618935802.21456,-0.4617996,11.035560131072998
1618935802.23019,8.671188,11.05119013786316
1618935802.24581,15.82647,11.066810131072998
1618935802.26144,21.35399,11.08244013786316
1618935802.27707,26.08012,11.09807014465332
1618935802.29269,31.05428,11.11369013786316
1618935802.30832,37.04692,11.12932014465332
1618935802.32394,44.30381,11.14494013786316
1618935802.33957,52.50066,11.16057014465332
1618935802.35519,60.90724,11.17619013786316
1618935802.37082,68.6349,11.19182014465332
1618935802.38645,74.89413,11.207450151443481
1618935802.40207,79.04309,11.22307014465332
1618935802.4177,80.64408,11.238700151443481
1618935802.43332,79.45688,11.25432014465332
1618935802.44895,75.57822,11.269950151443481
1618935802.46457,69.58358,11.28557014465332
1618935802.4802,62.59797,11.301200151443481
1618935802.49583,56.17498,11.316830158233643
1618935802.51145,51.84458,11.332450151443481
1618935802.52708,50.69373,11.348080158233643
1618935802.5427,52.95979,11.363700151443481
1618935802.55833,57.95435,11.379330158233643
1618935802.57395,64.33563,11.394950151443481
1618935802.58958,70.54179,11.410580158233643
1618935802.60521,75.27022,11.426210165023804
1618935802.62083,77.73627,11.441830158233643
1618935802.63646,77.71367,11.457460165023804
1618935802.65208,75.27812,11.473080158233643
1618935802.66771,70.53214,11.488710165023804
1618935802.68333,63.45723,11.504330158233643
1618935802.69896,54.05017,11.519960165023804
1618935802.71459,42.62436,11.535590171813965
1618935802.73021,30.02496,11.551210165023804
1618935802.74584,17.52397,11.566840171813965
1618935802.76146,6.402695,11.582460165023804
1618935802.77709,-2.6259,11.598090171813965
1618935802.79271,-9.772812,11.613710165023804
1618935802.80834,-16.03642,11.629340171813965
1618935802.82397,-22.60176,11.644970178604126
1618935802.83959,-30.11937,11.660590171813965
1618935802.85522,-38.21172,11.676220178604126
1618935802.87084,-45.68886,11.691840171813965
1618935802.88647,-51.16614,11.707470178604126
1618935802.90209,-53.88062,11.723090171813965
1618935802.91772,-54.03947,11.738720178604126
1618935802.93335,-52.71832,11.754350185394287
1618935802.94897,-51.24483,11.769970178604126
1618935802.9646,-50.64931,11.785600185394287
1618935802.98022,-51.4427,11.801220178604126
1618935802.99585,-53.73676,11.816850185394287
1618935803.01147,-57.51346,11.832470178604126
1618935803.0271,-62.74338,11.848100185394287
1618935803.04273,-69.20522,11.863730192184448
1618935803.05835,-76.1875,11.879350185394287
1618935803.07398,-82.30772,11.894980192184448
1618935803.0896,-85.75514,11.910600185394287
1618935803.10523,-84.80797,11.926230192184448
1618935803.12085,-78.54411,11.941850185394287
1618935803.13648,-67.21959,11.957480192184448
1618935803.15211,-52.18141,11.97311019897461
1618935803.16773,-35.42853,11.988730192184448
1618935803.18336,-18.91307,12.00436019897461
1618935803.19898,-4.046631,12.019980192184448
1618935803.21461,8.39061,12.03561019897461
1618935803.23023,18.12927,12.051230192184448
1618935803.24586,25.13733,12.06686019897461
1618935803.26149,29.41272,12.08249020576477
1618935803.27711,31.01344,12.09811019897461
1618935803.29274,30.14246,12.11374020576477
1618935803.30836,27.25848,12.12936019897461
1618935803.32399,23.04445,12.14499020576477
1618935803.33961,18.22708,12.16061019897461
1618935803.35524,13.41005,12.17624020576477
1618935803.37087,8.900558,12.191870212554932
1618935803.38649,4.7883,12.20749020576477
1618935803.40212,1.020111,12.223120212554932
1618935803.41774,-2.488861,12.23874020576477
1618935803.43337,-5.801544,12.254370212554932
1618935803.44899,-9.070175,12.26999020576477
1618935803.46462,-12.62016,12.285620212554932
1618935803.48025,-16.90123,12.301249980926514
1618935803.49587,-22.28897,12.316870212554932
1618935803.5115,-28.82529,12.332499980926514
1618935803.52712,-35.98218,12.348120212554932
1618935803.54275,-42.77911,12.363749980926514
1618935803.55838,-48.07477,12.379379987716675
1618935803.574,-51.04263,12.394999980926514
1618935803.58963,-51.52826,12.410629987716675
1618935803.60525,-50.0938,12.426249980926514
1618935803.62088,-47.80705,12.441879987716675
1618935803.6365,-45.84474,12.457499980926514
1618935803.65213,-45.1178,12.473129987716675
1618935803.66776,-46.0524,12.488759994506836
1618935803.68338,-48.52206,12.504379987716675
1618935803.69901,-51.87521,12.520009994506836
1618935803.71463,-55.04156,12.535629987716675
1618935803.73026,-56.72626,12.551259994506836
1618935803.74588,-55.63025,12.566879987716675
1618935803.76151,-50.83084,12.582509994506836
1618935803.77714,-42.03662,12.598140001296997
1618935803.79276,-29.79407,12.613759994506836
1618935803.80839,-15.37418,12.629390001296997
1618935803.82401,-0.4530334,12.645009994506836
1618935803.83964,13.34348,12.660640001296997
1618935803.85526,24.86102,12.676259994506836
1618935803.87089,33.5574,12.691890001296997
1618935803.88652,39.54147,12.707520008087158
1618935803.90214,43.30725,12.723140001296997
1618935803.91777,45.4747,12.738770008087158
1618935803.93339,46.64407,12.754390001296997
1618935803.94902,47.32401,12.770020008087158
1618935803.96464,47.88321,12.785640001296997
1618935803.98027,48.52286,12.801270008087158
1618935803.9959,49.28531,12.81690001487732
1618935804.01152,50.00333,12.832520008087158
1618935804.02715,50.42648,12.84815001487732
1618935804.04277,50.36227,12.863770008087158
1618935804.0584,49.86603,12.87940001487732
1618935804.07402,49.30362,12.895020008087158
1618935804.08965,49.20966,12.91065001487732
1618935804.10528,50.02423,12.92628002166748
1618935804.1209,51.83139,12.94190001487732
1618935804.13653,54.25443,12.95753002166748
1618935804.15215,56.59296,12.97315001487732
1618935804.16778,58.19855,12.98878002166748
1618935804.1834,58.74945,13.00440001487732
1618935804.19903,58.42935,13.02003002166748
1618935804.21466,57.77609,13.035660028457642
1618935804.23028,57.39166,13.05128002166748
1618935804.24591,57.61444,13.066910028457642
1618935804.26153,58.28333,13.08253002166748
1618935804.27716,58.84634,13.098160028457642
1618935804.29278,58.5661,13.11378002166748
1618935804.30841,56.95905,13.129410028457642
1618935804.32404,54.09036,13.145040035247803
1618935804.33966,50.69183,13.160660028457642
1618935804.35529,47.98181,13.176290035247803
1618935804.37091,47.28378,13.191910028457642
1618935804.38654,49.58246,13.207540035247803
1618935804.40216,55.2981,13.223160028457642
1618935804.41779,64.25949,13.238790035247803
1618935804.43342,75.73547,13.254420042037964
1618935804.44904,88.4599,13.270040035247803
1618935804.46467,100.4963,13.285670042037964
1618935804.48029,109.3171,13.301290035247803
1618935804.49592,112.1971,13.316920042037964
1618935804.51154,106.953,13.332540035247803
1618935804.52717,92.74298,13.348170042037964
1618935804.5428,70.35031,13.363800048828125
1618935804.55842,41.7673,13.379420042037964
1618935804.57405,9.224121,13.395050048828125
1618935804.58967,-25.68204,13.410670042037964
1618935804.6053,-62.14435,13.426300048828125
1618935804.62092,-99.45096,13.441920042037964
1618935804.63655,-136.0302,13.457550048828125
1618935804.65218,-168.9722,13.473180055618286
1618935804.6678,-194.8261,13.488800048828125
1618935804.68343,-211.1292,13.504430055618286
1618935804.69905,-217.8713,13.520050048828125
1618935804.71468,-217.7795,13.535680055618286
1618935804.7303,-215.0749,13.551300048828125
1618935804.74593,-213.4476,13.566930055618286
1618935804.76156,-214.3428,13.582560062408447
1618935804.77718,-216.5621,13.598180055618286
1618935804.79281,-217.2976,13.613810062408447
1618935804.80843,-213.8208,13.629430055618286
1618935804.82406,-204.89,13.645060062408447
1618935804.83968,-191.0444,13.660680055618286
1618935804.85531,-173.8646,13.676310062408447
1618935804.87094,-154.7917,13.691940069198608
1618935804.88656,-134.3611,13.707560062408447
1618935804.90219,-112.2686,13.723190069198608
1618935804.91781,-88.1488,13.738810062408447
1618935804.93344,-62.46201,13.754440069198608
1618935804.94906,-36.8609,13.770060062408447
1618935804.96469,-13.83972,13.785690069198608
1618935804.98032,4.114746,13.80132007598877
1618935804.99594,15.3924,13.816940069198608
1618935805.01157,19.71613,13.83257007598877
1618935805.02719,18.08728,13.848190069198608
1618935805.04282,12.36389,13.86382007598877
1618935805.05844,4.77771,13.879440069198608
1618935805.07407,-2.419739,13.89507007598877
1618935805.0897,-7.184265,13.91070008277893
1618935805.10532,-7.814697,13.92632007598877
1618935805.12095,-3.266418,13.94195008277893
1618935805.13657,6.550964,13.95757007598877
1618935805.1522,20.65906,13.97320008277893
1618935805.16782,37.23621,13.98882007598877
1618935805.18345,54.15216,14.00445008277893
1618935805.19908,69.57391,14.020080089569092
1618935805.2147,82.3089,14.03570008277893
1618935805.23033,91.88995,14.051330089569092
1618935805.24595,98.31415,14.06695008277893
1618935805.26158,101.816,14.082580089569092
1618935805.2772,102.7355,14.09820008277893
1618935805.29283,101.5306,14.113830089569092
1618935805.30846,98.80487,14.129460096359253
1618935805.32408,95.24164,14.145080089569092
1618935805.33971,91.40393,14.160710096359253
1618935805.35533,87.5321,14.176330089569092
1618935805.37096,83.46851,14.191960096359253
1618935805.38658,78.78717,14.207580089569092
1618935805.40221,73.02673,14.223210096359253
1618935805.41784,65.95416,14.238840103149414
1618935805.43346,57.68164,14.254460096359253
1618935805.44909,48.64539,14.270090103149414
1618935805.46471,39.44818,14.285710096359253
1618935805.48034,30.70764,14.301340103149414
1618935805.49596,22.90027,14.316960096359253
1618935805.51159,16.29224,14.332590103149414
1618935805.52722,10.85345,14.348220109939575
1618935805.54284,6.254944,14.363840103149414
1618935805.55847,1.991333,14.379470109939575
1618935805.57409,-2.457764,14.395090103149414
1618935805.58972,-7.383667,14.410720109939575
1618935805.60534,-12.70215,14.426340103149414
1618935805.62097,-18.03137,14.441970109939575
1618935805.6366,-22.91156,14.457600116729736
1618935805.65222,-27.09241,14.473220109939575
1618935805.66785,-30.6665,14.488850116729736
1618935805.68347,-33.93231,14.504470109939575
1618935805.6991,-37.04211,14.520100116729736
1618935805.71473,-39.73077,14.535730123519897
1618935805.73035,-41.26093,14.551350116729736
1618935805.74598,-40.70874,14.566980123519897
1618935805.7616,-37.39398,14.582600116729736
1618935805.77723,-31.19745,14.598230123519897
1618935805.79285,-22.65393,14.613850116729736
1618935805.80848,-12.75159,14.629480123519897
1618935805.82411,-2.673218,14.645110130310059
1618935805.83973,6.457764,14.660730123519897
1618935805.85536,13.6123,14.676360130310059
1618935805.87098,17.88269,14.691980123519897
1618935805.88661,18.53027,14.707610130310059
1618935805.90223,15.10999,14.723230123519897
1618935805.91786,7.66748,14.738860130310059
1618935805.93349,-3.142578,14.75449013710022
1618935805.94911,-16.05005,14.770110130310059
1618935805.96474,-29.34546,14.78574013710022
1618935805.98036,-41.15857,14.801360130310059
1618935805.99599,-49.74756,14.81699013710022
1618935806.01161,-53.79065,14.832610130310059
1618935806.02724,-52.62341,14.84824013710022
1618935806.04287,-46.39246,14.86387014389038
1618935806.05849,-36.00208,14.87949013710022
1618935806.07412,-22.89355,14.89512014389038
1618935806.08974,-8.659058,14.91074013710022
1618935806.10537,5.371094,14.92637014389038
1618935806.12099,18.37561,14.94199013710022
1618935806.13662,29.98157,14.95762014389038
1618935806.15225,39.98145,14.973250150680542
1618935806.16787,47.99036,14.98887014389038
1618935806.1835,53.26453,15.004500150680542
1618935806.19912,54.82947,15.02012014389038
1618935806.21475,51.85388,15.035750150680542
1618935806.23037,44.1228,15.05137014389038
1618935806.246,32.29395,15.067000150680542
1618935806.26163,17.83655,15.082630157470703
1618935806.27725,2.62085,15.098250150680542
1618935806.29288,-11.67407,15.113880157470703
1618935806.3085,-23.99048,15.129500150680542
1618935806.32413,-34.06787,15.145130157470703
1618935806.33975,-42.25989,15.160750150680542
1618935806.35538,-49.11389,15.176380157470703
1618935806.37101,-54.97302,15.192010164260864
1618935806.38663,-59.71558,15.207630157470703
1618935806.40226,-62.7738,15.223260164260864
1618935806.41788,-63.36401,15.238880157470703
1618935806.43351,-60.8385,15.254510164260864
1618935806.44913,-54.94507,15.270130157470703
1618935806.46476,-45.93994,15.285760164260864
1618935806.48039,-34.55249,15.301390171051025
1618935806.49601,-21.86121,15.317010164260864
1618935806.51164,-9.169678,15.332640171051025
1618935806.52726,2.159302,15.348260164260864
1618935806.54289,11.07971,15.363890171051025
1618935806.55851,17.33728,15.379510164260864
1618935806.57414,21.97058,15.395140171051025
1618935806.58977,27.52637,15.410770177841187
1618935806.60539,37.66565,15.426390171051025
1618935806.62102,56.11926,15.442020177841187
1618935806.63664,85.16345,15.457640171051025
1618935806.65227,124.3016,15.473270177841187
1618935806.66789,169.8346,15.488890171051025
1618935806.68352,215.7242,15.504520177841187
1618935806.69915,255.4067,15.520150184631348
1618935806.71477,283.8735,15.535770177841187
1618935806.7304,299.016,15.551400184631348
1618935806.74602,301.611,15.567020177841187
1618935806.76165,294.2188,15.582650184631348
1618935806.77727,279.6429,15.598270177841187
1618935806.7929,259.8615,15.613900184631348
1618935806.80853,235.8434,15.629530191421509
1618935806.82415,208.1836,15.645150184631348
1618935806.83978,177.7943,15.660780191421509
1618935806.8554,146.1858,15.676400184631348
1618935806.87103,115.0808,15.692030191421509
1618935806.88665,85.69421,15.707650184631348
1618935806.90228,58.35681,15.723280191421509
1618935806.91791,32.72839,15.73891019821167
1618935806.93353,8.500977,15.754530191421509
1618935806.94916,-13.89954,15.77016019821167
1618935806.96478,-33.15405,15.785780191421509
1618935806.98041,-47.55322,15.80141019821167
1618935806.99603,-55.78271,15.817030191421509
1618935807.01166,-57.56934,15.83266019821167
1618935807.02729,-53.82458,15.848290205001831
1618935807.04291,-46.13965,15.86391019821167
1618935807.05854,-36.11121,15.879540205001831
1618935807.07416,-24.80786,15.89516019821167
1618935807.08979,-12.72168,15.910790205001831
1618935807.10541,-0.1345215,15.92641019821167
1618935807.12104,12.41663,15.942040205001831
1618935807.13667,23.94275,15.957670211791992
1618935807.15229,33.15137,15.973290205001831
1618935807.16792,38.86865,15.988920211791992
1618935807.18354,40.55505,16.00454020500183
1618935807.19917,38.44153,16.020170211791992
1618935807.21479,33.38696,16.03579020500183
1618935807.23042,26.50049,16.051420211791992
1618935807.24605,18.73413,16.067049980163574
1618935807.26167,10.65588,16.082670211791992
1618935807.2773,2.507813,16.098299980163574
1618935807.29292,-5.538696,16.113920211791992
1618935807.30855,-13.1925,16.129549980163574
1618935807.32417,-19.92651,16.145170211791992
1618935807.3398,-25.09497,16.160799980163574
1618935807.35543,-28.18738,16.176429986953735
1618935807.37105,-29.06323,16.192049980163574
1618935807.38668,-28.05042,16.207679986953735
1618935807.4023,-25.83313,16.223299980163574
1618935807.41793,-23.16443,16.238929986953735
1618935807.43355,-20.6311,16.254549980163574
1618935807.44918,-18.47217,16.270179986953735
1618935807.46481,-16.69019,16.285809993743896
1618935807.48043,-15.21228,16.301429986953735
1618935807.49606,-14.10803,16.317059993743896
1618935807.51168,-13.60388,16.332679986953735
1618935807.52731,-13.83618,16.348309993743896
1618935807.54293,-14.52161,16.363929986953735
1618935807.55856,-14.67554,16.379559993743896
1618935807.57419,-12.69128,16.395190000534058
1618935807.58981,-6.840942,16.410809993743896
1618935807.60544,4.039917,16.426440000534058
1618935807.62106,20.01746,16.442059993743896
1618935807.63669,39.95056,16.457690000534058
1618935807.65231,61.90613,16.473309993743896
1618935807.66794,83.78564,16.488940000534058
1618935807.68357,103.9153,16.50457000732422
1618935807.69919,121.2853,16.520190000534058
1618935807.71482,135.4817,16.53582000732422
1618935807.73044,146.4186,16.551440000534058
1618935807.74607,154.1102,16.56707000732422
1618935807.76169,158.6104,16.582690000534058
1618935807.77732,160.0245,16.59832000732422
1618935807.79295,158.5974,16.61395001411438
1618935807.80857,154.6782,16.62957000732422
1618935807.8242,148.6099,16.64520001411438
1618935807.83982,140.6576,16.66082000732422
1618935807.85545,131.0852,16.67645001411438
1618935807.87107,120.2729,16.69207000732422
1618935807.8867,108.8325,16.70770001411438
1618935807.90233,97.57825,16.72333002090454
1618935807.91795,87.29974,16.73895001411438
1618935807.93358,78.46222,16.75458002090454
1618935807.9492,71.07263,16.77020001411438
1618935807.96483,64.71387,16.78583002090454
1618935807.98045,58.78833,16.80145001411438
1618935807.99608,52.87073,16.81708002090454
1618935808.01171,46.8537,16.832710027694702
1618935808.02733,40.9823,16.84833002090454
1618935808.04296,35.62451,16.863960027694702
1618935808.05858,30.98438,16.87958002090454
1618935808.07421,26.97107,16.895210027694702
1618935808.08983,23.2533,16.91083002090454
1618935808.10546,19.48871,16.926460027694702
1618935808.12109,15.57361,16.942090034484863
1618935808.13671,11.77142,16.957710027694702
1618935808.15234,8.605347,16.973340034484863
1618935808.16796,6.667358,16.988960027694702
1618935808.18359,6.303955,17.004590034484863
1618935808.19921,7.408447,17.020210027694702
1618935808.21484,9.447998,17.035840034484863
1618935808.23047,11.58813,17.051470041275024
1618935808.24609,13.01343,17.067090034484863
1618935808.26172,13.17834,17.082720041275024
1618935808.27734,11.94171,17.098340034484863
1618935808.29297,9.545654,17.113970041275024
1618935808.30859,6.432495,17.129590034484863
1618935808.32422,3.013977,17.145220041275024
1618935808.33985,-0.5046387,17.160850048065186
1618935808.35547,-4.124176,17.176470041275024
1618935808.3711,-7.918243,17.192100048065186
1618935808.38672,-11.90207,17.207720041275024
1618935808.40235,-15.98517,17.223350048065186
1618935808.41798,-20.00769,17.238980054855347
1618935808.4336,-23.90952,17.254600048065186
1618935808.44923,-27.73645,17.270230054855347
1618935808.46485,-31.58612,17.285850048065186
1618935808.48048,-35.50928,17.301480054855347
1618935808.4961,-39.40466,17.317100048065186
1618935808.51173,-43.07101,17.332730054855347
1618935808.52736,-46.37958,17.348360061645508
1618935808.54298,-49.4429,17.363980054855347
1618935808.55861,-52.63852,17.379610061645508
1618935808.57423,-56.49313,17.395230054855347
1618935808.58986,-61.43661,17.410860061645508
1618935808.60548,-67.63496,17.426480054855347
1618935808.62111,-74.95554,17.442110061645508
1618935808.63674,-83.09395,17.45774006843567
1618935808.65236,-91.87749,17.473360061645508
1618935808.66799,-101.3906,17.48899006843567
1618935808.68361,-111.956,17.504610061645508
1618935808.69924,-123.965,17.52024006843567
1618935808.71486,-137.5772,17.535860061645508
1618935808.73049,-152.5609,17.55149006843567
1618935808.74612,-168.2526,17.56712007522583
1618935808.76174,-183.7099,17.58274006843567
1618935808.77737,-197.9867,17.59837007522583
1618935808.79299,-210.4137,17.61399006843567
1618935808.80862,-220.8021,17.62962007522583
1618935808.82424,-229.4891,17.64524006843567
1618935808.83987,-237.1497,17.66087007522583
1618935808.8555,-244.45,17.67650008201599
1618935808.87112,-251.6164,17.69212007522583
1618935808.88675,-258.1345,17.70775008201599
1618935808.90237,-262.7161,17.72337007522583
1618935808.918,-263.6847,17.73900008201599
1618935808.93362,-259.6588,17.75462007522583
1618935808.94925,-250.1797,17.77025008201599
1618935808.96488,-236.047,17.785880088806152
1618935808.9805,-219.1187,17.80150008201599
1618935808.99613,-201.752,17.817130088806152
1618935809.01175,-186.0324,17.83275008201599
1618935809.02738,-173.2397,17.848380088806152
1618935809.043,-163.6842,17.86400008201599
1618935809.05863,-156.8507,17.879630088806152
1618935809.07426,-151.6747,17.895260095596313
1618935809.08988,-146.814,17.910880088806152
1618935809.10551,-140.8618,17.926510095596313
1618935809.12113,-132.5505,17.942130088806152
1618935809.13676,-121.0651,17.957760095596313
1618935809.15238,-106.3146,17.973380088806152
1618935809.16801,-89.15099,17.989010095596313
1618935809.18364,-71.25408,18.004640102386475
1618935809.19926,-54.6419,18.020260095596313
1618935809.21489,-40.97733,18.035890102386475
1618935809.23051,-30.93542,18.051510095596313
1618935809.24614,-23.91768,18.067140102386475
1618935809.26176,-18.28357,18.082760095596313
1618935809.27739,-11.99885,18.098390102386475
1618935809.29302,-3.415709,18.114020109176636
1618935809.30864,8.0998,18.129640102386475
1618935809.32427,22.02246,18.145270109176636
1618935809.33989,37.00651,18.160890102386475
1618935809.35552,51.49776,18.176520109176636
1618935809.37114,64.33388,18.192140102386475
1618935809.38677,75.03814,18.207770109176636
1618935809.4024,83.69791,18.223400115966797
1618935809.41802,90.56863,18.239020109176636
1618935809.43365,95.74377,18.254650115966797
1618935809.44927,99.03835,18.270270109176636
1618935809.4649,100.1776,18.285900115966797
1618935809.48052,99.09223,18.301520109176636
1618935809.49615,96.1076,18.317150115966797
1618935809.51178,91.83456,18.332780122756958
1618935809.5274,86.94739,18.348400115966797
1618935809.54303,81.87946,18.364030122756958
1618935809.55865,76.74281,18.379650115966797
1618935809.57428,71.46294,18.395280122756958
1618935809.5899,65.99017,18.410900115966797
1618935809.60553,60.49538,18.426530122756958
1618935809.62116,55.31192,18.44216012954712
1618935809.63678,50.7626,18.457780122756958
1618935809.65241,46.94466,18.47341012954712
1618935809.66803,43.67804,18.489030122756958
1618935809.68366,40.57254,18.50466012954712
1618935809.69928,37.21683,18.520280122756958
1618935809.71491,33.27467,18.53591012954712
1618935809.73054,28.49126,18.55154013633728
1618935809.74616,22.70836,18.56716012954712
1618935809.76179,15.87772,18.58279013633728
1618935809.77741,8.223755,18.59841012954712
1618935809.79304,0.3583374,18.61404013633728
1618935809.80866,-6.700592,18.62966012954712
1618935809.82429,-11.81268,18.64529013633728
1618935809.83992,-14.09866,18.66092014312744
1618935809.85554,-13.26233,18.67654013633728
1618935809.87117,-9.742493,18.69217014312744
1618935809.88679,-4.439697,18.70779013633728
1618935809.90242,1.651581,18.72342014312744
1618935809.91804,7.812927,18.73904013633728
1618935809.93367,13.66782,18.75467014312744
1618935809.9493,19.06732,18.770300149917603
1618935809.96492,23.78625,18.78592014312744
1618935809.98055,27.40662,18.801550149917603
1618935809.99617,29.44193,18.81717014312744
1618935810.0118,29.59268,18.832800149917603
1618935810.02742,28.02689,18.84842014312744
1618935810.04305,25.36539,18.864050149917603
1618935810.05868,22.47238,18.879680156707764
1618935810.0743,20.04483,18.895300149917603
1618935810.08993,18.35742,18.910930156707764
1618935810.10555,17.18304,18.926550149917603
1618935810.12118,16.05075,18.942180156707764
1618935810.1368,14.55923,18.957800149917603
1618935810.15243,12.58636,18.973430156707764
1618935810.16806,10.36566,18.989060163497925
1618935810.18368,8.17099,19.004680156707764
1618935810.19931,6.186188,19.020310163497925
1618935810.21493,4.316925,19.035930156707764
1618935810.23056,2.254456,19.051560163497925
1618935810.24618,-0.3333435,19.067180156707764
1618935810.26181,-3.673462,19.082810163497925
1618935810.27744,-7.819489,19.098440170288086
1618935810.29306,-12.67929,19.114060163497925
1618935810.30869,-18.04208,19.129690170288086
1618935810.32431,-23.53156,19.145310163497925
1618935810.33994,-28.53992,19.160940170288086
1618935810.35556,-32.25711,19.176560163497925
1618935810.37119,-33.82062,19.192190170288086
1618935810.38682,-32.62466,19.207820177078247
1618935810.40244,-28.5032,19.223440170288086
1618935810.41807,-21.87115,19.239070177078247
1618935810.43369,-13.57181,19.254690170288086
1618935810.44932,-4.599213,19.270320177078247
1618935810.46494,4.101593,19.285940170288086
1618935810.48057,11.82468,19.301570177078247
1618935810.4962,18.11368,19.317200183868408
1618935810.51182,22.73981,19.332820177078247
1618935810.52745,25.63757,19.348450183868408
1618935810.54307,26.91873,19.364070177078247
1618935810.5587,26.81827,19.379700183868408
1618935810.57433,25.70413,19.39533019065857
1618935810.58995,24.01776,19.410950183868408
1618935810.60558,22.21829,19.42658019065857
1618935810.6212,20.7348,19.442200183868408
1618935810.63683,19.84964,19.45783019065857
1618935810.65245,19.59421,19.473450183868408
1618935810.66808,19.72794,19.48908019065857
1618935810.68371,19.73392,19.50471019744873
1618935810.69933,19.04166,19.52033019065857
1618935810.71496,17.28369,19.53596019744873
1618935810.73058,14.51016,19.55158019065857
1618935810.74621,11.15509,19.56721019744873
1618935810.76183,7.803131,19.58283019065857
1618935810.77746,4.836945,19.59846019744873
1618935810.79309,2.213684,19.61409020423889
1618935810.80871,-0.4892883,19.62971019744873
1618935810.82434,-3.830261,19.64534020423889
1618935810.83996,-8.190125,19.66096019744873
1618935810.85559,-13.56665,19.67659020423889
1618935810.87121,-19.63596,19.69221019744873
1618935810.88684,-25.86877,19.70784020423889
1618935810.90247,-31.64951,19.723470211029053
1618935810.91809,-36.32883,19.73909020423889
1618935810.93372,-39.22665,19.754720211029053
1618935810.94934,-39.66327,19.77034020423889
1618935810.96497,-37.16235,19.785970211029053
1618935810.98059,-31.65875,19.80159020423889
1618935810.99622,-23.61853,19.817220211029053
1618935811.01185,-13.99518,19.832850217819214
1618935811.02747,-3.944519,19.848470211029053
1618935811.0431,5.49823,19.864100217819214
1618935811.05872,13.62823,19.879720211029053
1618935811.07435,20.1037,19.895350217819214
1618935811.08997,24.83429,19.910970211029053
1618935811.1056,27.86951,19.926600217819214
1618935811.12123,29.34619,19.942229986190796
1618935811.13685,29.55054,19.957850217819214
1618935811.15248,28.89423,19.973479986190796
1618935811.1681,27.95587,19.989100217819214
1618935811.18373,27.297,20.004729986190796
1618935811.19935,27.29834,20.020350217819214
1618935811.21498,28.03082,20.035979986190796
1618935811.23061,29.25073,20.051609992980957
1618935811.24623,30.50256,20.067229986190796
1618935811.26186,31.32446,20.082859992980957
1618935811.27748,31.40948,20.098479986190796
1618935811.29311,30.70166,20.114109992980957
1618935811.30873,29.33368,20.129729986190796
1618935811.32436,27.49023,20.145359992980957
1618935811.33999,25.27826,20.160989999771118
1618935811.35561,22.66278,20.176609992980957
1618935811.37124,19.52893,20.192239999771118
1618935811.38686,15.81775,20.207859992980957
1618935811.40249,11.65112,20.223489999771118
1618935811.41811,7.299805,20.239109992980957
1618935811.43374,3.031311,20.254739999771118
1618935811.44937,-1.023132,20.27037000656128
1618935811.46499,-4.973877,20.285989999771118
1618935811.48062,-9.122253,20.30162000656128
1618935811.49624,-13.77216,20.317239999771118
1618935811.51187,-19.08752,20.33287000656128
1618935811.52749,-24.9057,20.348489999771118
1618935811.54312,-30.79944,20.36412000656128
1618935811.55875,-36.14307,20.37975001335144
1618935811.57437,-40.25214,20.39537000656128
1618935811.59,-42.52747,20.41100001335144
1618935811.60562,-42.53534,20.42662000656128
1618935811.62125,-40.1214,20.44225001335144
1618935811.63687,-35.40857,20.45787000656128
1618935811.6525,-28.7746,20.47350001335144
1618935811.66813,-20.73718,20.4891300201416
1618935811.68375,-11.81018,20.50475001335144
1618935811.69938,-2.423889,20.5203800201416
1618935811.715,7.049988,20.53600001335144
1618935811.73063,16.21606,20.5516300201416
1618935811.74625,24.57758,20.56725001335144
1618935811.76188,31.56171,20.5828800201416
1618935811.77751,36.69147,20.598510026931763
1618935811.79313,39.79431,20.6141300201416
1618935811.80876,41.10907,20.629760026931763
1618935811.82438,41.24091,20.6453800201416
1618935811.84001,40.93469,20.661010026931763
1618935811.85563,40.78192,20.6766300201416
1618935811.87126,40.95929,20.692260026931763
1618935811.88689,41.23657,20.707890033721924
1618935811.90251,41.19574,20.723510026931763
1618935811.91814,40.51483,20.739140033721924
1618935811.93376,39.17578,20.754760026931763
1618935811.94939,37.43109,20.770390033721924
1618935811.96501,35.66516,20.786010026931763
1618935811.98064,34.13403,20.801640033721924
1618935811.99627,32.84174,20.817270040512085
1618935812.01189,31.55121,20.832890033721924
1618935812.02752,29.94189,20.848520040512085
1618935812.04314,27.76843,20.864140033721924
1618935812.05877,24.99066,20.879770040512085
1618935812.07439,21.73682,20.895390033721924
1618935812.09002,18.24249,20.911020040512085
1618935812.10565,14.75458,20.926650047302246
1618935812.12127,11.44513,20.942270040512085
1618935812.1369,8.394348,20.957900047302246
1618935812.15252,5.617004,20.973520040512085
1618935812.16815,3.036682,20.989150047302246
1618935812.18377,0.473999,21.004770040512085
1618935812.1994,-2.361694,21.020400047302246
1618935812.21503,-5.829895,21.036030054092407
1618935812.23065,-10.26666,21.051650047302246
1618935812.24628,-15.84686,21.067280054092407
1618935812.2619,-22.43799,21.082900047302246
1618935812.27753,-29.56335,21.098530054092407
1618935812.29315,-36.41174,21.114150047302246
1618935812.30878,-42.03546,21.129780054092407
1618935812.32441,-45.60187,21.14541006088257
1618935812.34003,-46.59973,21.161030054092407
1618935812.35566,-44.9632,21.17666006088257
1618935812.37128,-41.01855,21.192280054092407
1618935812.38691,-35.34314,21.20791006088257
1618935812.40253,-28.52948,21.223530054092407
1618935812.41816,-21.03674,21.23916006088257
1618935812.43379,-13.15308,21.25479006767273
1618935812.44941,-5.038208,21.27041006088257
1618935812.46504,3.159607,21.28604006767273
1618935812.48066,11.17975,21.30166006088257
1618935812.49629,18.59717,21.31729006767273
1618935812.51191,24.89301,21.33291006088257
1618935812.52754,29.57941,21.34854006767273
1618935812.54317,32.38269,21.36417007446289
1618935812.55879,33.41156,21.37979006767273
1618935812.57442,33.10559,21.39542007446289
1618935812.59004,32.15375,21.41104006767273
1618935812.60567,31.20642,21.42667007446289
1618935812.62129,30.70508,21.44229006767273
1618935812.63692,30.70575,21.45792007446289
1618935812.65255,31.0155,21.47355008125305
1618935812.66817,31.3136,21.48917007446289
1618935812.6838,31.35205,21.50480008125305
1618935812.69942,31.04938,21.52042007446289
1618935812.71505,30.45007,21.53605008125305
1618935812.73067,29.64642,21.55167007446289
1618935812.7463,28.6817,21.56730008125305
1618935812.76193,27.57001,21.582930088043213
1618935812.77755,26.29437,21.59855008125305
1618935812.79318,24.87103,21.614180088043213
1618935812.8088,23.35315,21.62980008125305
1618935812.82443,21.78235,21.645430088043213
1618935812.84005,20.1582,21.66105008125305
1618935812.85568,18.39691,21.676680088043213
1618935812.87131,16.39355,21.692310094833374
1618935812.88693,14.04675,21.707930088043213
1618935812.90256,11.3421,21.723560094833374
1618935812.91818,8.364258,21.739180088043213
1618935812.93381,5.242615,21.754810094833374
1618935812.94944,2.121277,21.770440101623535
1618935812.96506,-0.9353027,21.786060094833374
1618935812.98069,-3.982666,21.801690101623535
1618935812.99631,-7.226807,21.817310094833374
1618935813.01194,-10.90765,21.832940101623535
1618935813.02756,-15.17883,21.848560094833374
1618935813.04319,-19.92761,21.864190101623535
1618935813.05882,-24.65814,21.879820108413696
1618935813.07444,-28.56219,21.895440101623535
1618935813.09007,-30.6983,21.911070108413696
1618935813.10569,-30.34814,21.926690101623535
1618935813.12132,-27.25256,21.942320108413696
1618935813.13694,-21.7464,21.957940101623535
1618935813.15257,-14.62054,21.973570108413696
1618935813.1682,-6.817688,21.989200115203857
1618935813.18382,0.8474731,22.004820108413696
1618935813.19945,7.883972,22.020450115203857
1618935813.21507,14.06439,22.036070108413696
1618935813.2307,19.31549,22.051700115203857
1618935813.24632,23.54663,22.067320108413696
1618935813.26195,26.65417,22.082950115203857
1618935813.27758,28.60529,22.09858012199402
1618935813.2932,29.50623,22.114200115203857
1618935813.30883,29.66949,22.12983012199402
1618935813.32445,29.48218,22.145450115203857
1618935813.34008,29.2746,22.16108012199402
1618935813.3557,29.19525,22.176700115203857
1618935813.37133,29.2168,22.19233012199402
1618935813.38696,29.23193,22.20796012878418
1618935813.40258,29.1853,22.22358012199402
1618935813.41821,29.1123,22.23921012878418
1618935813.43383,29.091,22.25483012199402
1618935813.44946,29.13599,22.27046012878418
1618935813.46508,29.12238,22.28608012199402
1618935813.48071,28.8324,22.30171012878418
1618935813.49634,28.04065,22.31734013557434
1618935813.51196,26.65027,22.33296012878418
1618935813.52759,24.72296,22.34859013557434
1618935813.54321,22.4552,22.36421012878418
1618935813.55884,20.04041,22.37984013557434
1618935813.57446,17.5517,22.39546012878418
1618935813.59009,14.93121,22.41109013557434
1618935813.60572,12.03137,22.426720142364502
1618935813.62134,8.766541,22.44234013557434
1618935813.63697,5.191895,22.457970142364502
1618935813.65259,1.496948,22.47359013557434
1618935813.66822,-2.087158,22.489220142364502
1618935813.68384,-5.412903,22.50484013557434
1618935813.69947,-8.504883,22.520470142364502
1618935813.7151,-11.5058,22.536100149154663
1618935813.73072,-14.59137,22.551720142364502
1618935813.74635,-17.88501,22.567350149154663
1618935813.76197,-21.43665,22.582970142364502
1618935813.7776,-25.24796,22.598600149154663
1618935813.79322,-29.26971,22.614220142364502
1618935813.80885,-33.34247,22.629850149154663
1618935813.82448,-37.09128,22.645480155944824
1618935813.8401,-39.86975,22.661100149154663
1618935813.85573,-40.89212,22.676730155944824
1618935813.87135,-39.47699,22.692350149154663
1618935813.88698,-35.37814,22.707980155944824
1618935813.9026,-28.91263,22.723600149154663
1618935813.91823,-20.89789,22.739230155944824
1618935813.93386,-12.30695,22.754860162734985
1618935813.94948,-4.001038,22.770480155944824
1618935813.96511,3.518616,22.786110162734985
1618935813.98073,10.04779,22.801730155944824
1618935813.99636,15.53912,22.817360162734985
1618935814.01198,19.95822,22.832980155944824
1618935814.02761,23.19421,22.848610162734985
1618935814.04324,25.19385,22.864240169525146
1618935814.05886,26.04752,22.879860162734985
1618935814.07449,26.03009,22.895490169525146
1618935814.09011,25.53174,22.911110162734985
1618935814.10574,24.92584,22.926740169525146
1618935814.12136,24.39813,22.942360162734985
1618935814.13699,23.94138,22.957990169525146
1618935814.15262,23.41019,22.973620176315308
1618935814.16824,22.6647,22.989240169525146
1618935814.18387,21.66895,23.004870176315308
1618935814.19949,20.50018,23.020490169525146
1618935814.21512,19.31683,23.036120176315308
1618935814.23074,18.22324,23.051740169525146
1618935814.24637,17.21976,23.067370176315308
1618935814.262,16.17297,23.08300018310547
1618935814.27762,14.90619,23.098620176315308
1618935814.29325,13.27606,23.11425018310547
1618935814.30887,11.25455,23.129870176315308
1618935814.3245,8.898407,23.14550018310547
1618935814.34012,6.339996,23.161120176315308
1618935814.35575,3.712463,23.17675018310547
1618935814.37138,1.135559,23.19238018989563
1618935814.387,-1.261688,23.20800018310547
1618935814.40263,-3.390686,23.22363018989563
1618935814.41825,-5.241211,23.23925018310547
1618935814.43388,-6.935364,23.25488018989563
1618935814.4495,-8.722351,23.27050018310547
1618935814.46513,-10.8978,23.28613018989563
1618935814.48076,-13.66693,23.30176019668579
1618935814.49638,-17.05972,23.31738018989563
1618935814.51201,-20.91318,23.33301019668579
1618935814.52763,-24.95889,23.34863018989563
1618935814.54326,-28.97247,23.36426019668579
1618935814.55888,-32.78967,23.37988018989563
1618935814.57451,-36.28726,23.39551019668579
1618935814.59014,-39.23041,23.411140203475952
1618935814.60576,-41.21265,23.42676019668579
1618935814.62139,-41.69101,23.442390203475952
1618935814.63701,-40.18387,23.45801019668579
1618935814.65264,-36.52228,23.473640203475952
1618935814.66826,-30.92801,23.48926019668579
1618935814.68389,-24.00952,23.504890203475952
1618935814.69952,-16.53296,23.520520210266113
1618935814.71514,-9.22525,23.536140203475952
1618935814.73077,-2.609039,23.551770210266113
1618935814.74639,3.002319,23.567390203475952
1618935814.76202,7.488068,23.583020210266113
1618935814.77764,10.8403,23.598640203475952
1618935814.79327,13.08441,23.614270210266113
1618935814.8089,14.2796,23.629900217056274
1618935814.82452,14.52917,23.645520210266113
1618935814.84015,14.0278,23.661150217056274
1618935814.85577,13.07843,23.676770210266113
1618935814.8714,12.03056,23.692400217056274
1618935814.88702,11.18013,23.708020210266113
1618935814.90265,10.65688,23.723650217056274
1618935814.91828,10.37448,23.739279985427856
1618935814.9339,10.12027,23.754900217056274
1618935814.94953,9.738022,23.770529985427856
1618935814.96515,9.285309,23.786150217056274
1618935814.98078,9.072021,23.801779985427856
1618935814.9964,9.444794,23.817400217056274
1618935815.01203,10.57266,23.833029985427856
1618935815.02766,12.24072,23.848659992218018
1618935815.04328,13.90987,23.864279985427856
1618935815.05891,14.94356,23.879909992218018
1618935815.07453,14.90627,23.895529985427856
1618935815.09016,13.73093,23.911159992218018
1618935815.10578,11.63885,23.926779985427856
1618935815.12141,8.949799,23.942409992218018
1618935815.13704,5.881165,23.95803999900818
1618935815.15266,2.486206,23.973659992218018
1618935815.16829,-1.300247,23.98928999900818
1618935815.18391,-5.519592,24.004909992218018
1618935815.19954,-10.12148,24.02053999900818
1618935815.21516,-14.94389,24.036159992218018
1618935815.23079,-19.78116,24.05178999900818
1618935815.24642,-24.42519,24.06742000579834
1618935815.26204,-28.70477,24.08303999900818
1618935815.27767,-32.56187,24.09867000579834
1618935815.29329,-36.07108,24.11428999900818
1618935815.30892,-39.44627,24.12992000579834
1618935815.32454,-42.87183,24.14553999900818
1618935815.34017,-46.34174,24.16117000579834
1618935815.3558,-49.46623,24.1768000125885
1618935815.37142,-51.50926,24.19242000579834
1618935815.38705,-51.6577,24.2080500125885
1618935815.40267,-49.33568,24.22367000579834
1618935815.4183,-44.54678,24.2393000125885
1618935815.43392,-37.86577,24.25492000579834
1618935815.44955,-30.26602,24.2705500125885
1618935815.46518,-22.67757,24.286180019378662
1618935815.4808,-15.71249,24.3018000125885
1618935815.49643,-9.528198,24.317430019378662
1618935815.51205,-3.992111,24.3330500125885
1618935815.52768,1.093819,24.348680019378662
1618935815.54331,5.738586,24.364310026168823
1618935815.55893,9.687515,24.379930019378662
1618935815.57456,12.58753,24.395560026168823
1618935815.59018,14.15943,24.411180019378662
1618935815.60581,14.41714,24.426810026168823
1618935815.62143,13.67776,24.442430019378662
1618935815.63706,12.48021,24.458060026168823
1618935815.65269,11.37958,24.473690032958984
1618935815.66831,10.7332,24.489310026168823
1618935815.68394,10.62051,24.504940032958984
1618935815.69956,10.85081,24.520560026168823
1618935815.71519,11.11219,24.536190032958984
1618935815.73081,11.09463,24.551810026168823
1618935815.74644,10.66879,24.567440032958984
1618935815.76207,9.873703,24.583070039749146
1618935815.77769,8.908554,24.598690032958984
1618935815.79332,8.009705,24.614320039749146
1618935815.80894,7.334732,24.629940032958984
1618935815.82457,6.859509,24.645570039749146
1618935815.84019,6.413559,24.661190032958984
1618935815.85582,5.70919,24.676820039749146
1618935815.87145,4.497898,24.692450046539307
1618935815.88707,2.647591,24.708070039749146
1618935815.9027,0.248642,24.723700046539307
1618935815.91832,-2.441254,24.739320039749146
1618935815.93395,-5.071865,24.754950046539307
1618935815.94957,-7.35675,24.770570039749146
1618935815.9652,-9.155415,24.786200046539307
1618935815.98083,-10.51768,24.801830053329468
1618935815.99645,-11.59366,24.817450046539307
1618935816.01208,-12.60719,24.833080053329468
1618935816.0277,-13.73729,24.848700046539307
1618935816.04333,-15.11523,24.864330053329468
1618935816.05895,-16.85813,24.879950046539307
1618935816.07458,-19.11123,24.895580053329468
1618935816.09021,-22.0449,24.91121006011963
1618935816.10583,-25.76039,24.926830053329468
1618935816.12146,-30.14239,24.94246006011963
1618935816.13708,-34.73957,24.958080053329468
1618935816.15271,-38.79456,24.97371006011963
1618935816.16833,-41.3939,24.989330053329468
1618935816.18396,-41.77732,25.00496006011963
1618935816.19959,-39.56746,25.02059006690979
1618935816.21521,-34.89834,25.03621006011963
1618935816.23084,-28.35765,25.05184006690979
1618935816.24646,-20.75403,25.06746006011963
1618935816.26209,-12.87421,25.08309006690979
1618935816.27771,-5.329559,25.09871006011963
1618935816.29334,1.507457,25.11434006690979
1618935816.30897,7.439316,25.12997007369995
1618935816.32459,12.35859,25.14559006690979
1618935816.34022,16.19106,25.16122007369995
1618935816.35584,18.89732,25.17684006690979
1618935816.37147,20.51526,25.19247007369995
1618935816.38709,21.17113,25.20809006690979
1618935816.40272,21.12666,25.22372007369995
1618935816.41835,20.72581,25.239350080490112
1618935816.43397,20.33005,25.25497007369995
1618935816.4496,20.20769,25.270600080490112
1618935816.46522,20.43965,25.28622007369995
1618935816.48085,20.9161,25.301850080490112
1618935816.49647,21.40902,25.31747007369995
1618935816.5121,21.68426,25.333100080490112
1618935816.52773,21.58406,25.348730087280273
1618935816.54335,21.086,25.364350080490112
1618935816.55898,20.26225,25.379980087280273
1618935816.5746,19.23332,25.395600080490112
1618935816.59023,18.08032,25.411230087280273
1618935816.60585,16.84409,25.426850080490112
1618935816.62148,15.49517,25.442480087280273
1618935816.63711,13.99743,25.458110094070435
1618935816.65273,12.3134,25.473730087280273
1618935816.66836,10.41313,25.489360094070435
1618935816.68398,8.269665,25.504980087280273
1618935816.69961,5.866194,25.520610094070435
1618935816.71523,3.189636,25.536230087280273
1618935816.73086,0.2864456,25.551860094070435
1618935816.74649,-2.712553,25.567490100860596
1618935816.76211,-5.613394,25.583110094070435
1618935816.77774,-8.24802,25.598740100860596
1618935816.79336,-10.5022,25.614360094070435
1618935816.80899,-12.44837,25.629990100860596
1618935816.82461,-14.31679,25.645610094070435
1618935816.84024,-16.43536,25.661240100860596
1618935816.85587,-19.11476,25.676870107650757
1618935816.87149,-22.483,25.692490100860596
1618935816.88712,-26.40191,25.708120107650757
1618935816.90274,-30.43383,25.723740100860596
1618935816.91837,-33.94787,25.739370107650757
1618935816.93399,-36.27855,25.754990100860596
1618935816.94962,-36.89864,25.770620107650757
1618935816.96525,-35.52592,25.786250114440918
1618935816.98087,-32.14865,25.801870107650757
1618935816.9965,-26.99706,25.817500114440918
1618935817.01212,-20.48094,25.833120107650757
1618935817.02775,-13.11641,25.848750114440918
1618935817.04337,-5.490433,25.864370107650757
1618935817.059,1.78574,25.880000114440918
1618935817.07463,8.132191,25.89563012123108
1618935817.09025,13.08391,25.911250114440918
1618935817.10588,16.41746,25.92688012123108
1618935817.1215,18.17514,25.942500114440918
1618935817.13713,18.63406,25.95813012123108
1618935817.15275,18.24755,25.973750114440918
1618935817.16838,17.51317,25.98938012123108
1618935817.18401,16.84958,26.00501012802124
1618935817.19963,16.53605,26.02063012123108
1618935817.21526,16.67421,26.03626012802124
1618935817.23088,17.20071,26.05188012123108
1618935817.24651,17.91846,26.06751012802124
1618935817.26213,18.57171,26.08313012123108
1618935817.27776,18.91206,26.09876012802124
1618935817.29339,18.84614,26.1143901348114
1618935817.30901,18.39667,26.13001012802124
1618935817.32464,17.66776,26.1456401348114
1618935817.34026,16.7917,26.16126012802124
1618935817.35589,15.83036,26.1768901348114
1618935817.37151,14.79811,26.19251012802124
1618935817.38714,13.68266,26.2081401348114
1618935817.40277,12.48142,26.223770141601562
1618935817.41839,11.17829,26.2393901348114
1618935817.43402,9.731918,26.255020141601562
1618935817.44964,8.082245,26.2706401348114
1618935817.46527,6.15229,26.286270141601562
1618935817.48089,3.93087,26.3018901348114
1618935817.49652,1.488983,26.317520141601562
1618935817.51215,-1.044441,26.333150148391724
1618935817.52777,-3.541916,26.348770141601562
1618935817.5434,-5.937675,26.364400148391724
1618935817.55902,-8.295776,26.380020141601562
1618935817.57465,-10.73774,26.395650148391724
1618935817.59027,-13.41759,26.411270141601562
1618935817.6059,-16.43127,26.426900148391724
1618935817.62153,-19.76065,26.442530155181885
1618935817.63715,-23.30326,26.458150148391724
1618935817.65278,-26.84178,26.473780155181885
1618935817.6684,-30.0264,26.489400148391724
1618935817.68403,-32.39413,26.505030155181885
1618935817.69966,-33.42278,26.520660161972046
1618935817.71528,-32.63464,26.536280155181885
1618935817.73091,-29.76474,26.551910161972046
1618935817.74653,-24.86491,26.567530155181885
1618935817.76216,-18.29063,26.583160161972046
1618935817.77778,-10.61703,26.598780155181885
1618935817.79341,-2.49556,26.614410161972046
1618935817.80904,5.447632,26.630040168762207
1618935817.82466,12.6844,26.645660161972046
1618935817.84029,18.80507,26.661290168762207
1618935817.85591,23.5359,26.676910161972046
1618935817.87154,26.7887,26.692540168762207
1618935817.88716,28.67464,26.708160161972046
1618935817.90279,29.5116,26.723790168762207
1618935817.91842,29.74765,26.739420175552368
1618935817.93404,29.87506,26.755040168762207
1618935817.94967,30.29344,26.770670175552368
1618935817.96529,31.20581,26.786290168762207
1618935817.98092,32.63681,26.801920175552368
1618935817.99654,34.44807,26.817540168762207
1618935818.01217,36.39877,26.833170175552368
1618935818.0278,38.24896,26.84880018234253
1618935818.04342,39.85403,26.864420175552368
1618935818.05905,41.20198,26.88005018234253
1618935818.07467,42.42885,26.895670175552368
1618935818.0903,43.76579,26.91130018234253
1618935818.10592,45.45142,26.926920175552368
1618935818.12155,47.61247,26.94255018234253
1618935818.13718,50.20686,26.95818018913269
1618935818.1528,53.04103,26.97380018234253
1618935818.16843,55.86896,26.98943018913269
1618935818.18405,58.49501,27.00505018234253
1618935818.19968,60.89784,27.02068018913269
1618935818.2153,63.22398,27.03630018234253
1618935818.23093,65.73915,27.05193018913269
1618935818.24656,68.63925,27.06756019592285
1618935818.26218,71.8588,27.08318018913269
1618935818.27781,75.01099,27.09881019592285
1618935818.29343,77.45709,27.11443018913269
1618935818.30906,78.5177,27.13006019592285
1618935818.32468,77.77893,27.14568018913269
1618935818.34031,75.2417,27.16131019592285
1618935818.35594,71.34015,27.176940202713013
1618935818.37156,66.83109,27.19256019592285
1618935818.38719,62.62775,27.208190202713013
1618935818.40281,59.67529,27.22381019592285
1618935818.41844,58.87885,27.239440202713013
1618935818.43406,61.07758,27.25506019592285
1618935818.44969,66.82883,27.270690202713013
1618935818.46532,76.11127,27.286320209503174
1618935818.48094,88.03781,27.301940202713013
1618935818.49657,100.8347,27.317570209503174
1618935818.51219,112.2754,27.333190202713013
1618935818.52782,120.3398,27.348820209503174
1618935818.54344,123.9649,27.364440202713013
1618935818.55907,123.3078,27.380070209503174
1618935818.5747,119.5218,27.395700216293335
1618935818.59032,114.0562,27.411320209503174
1618935818.60595,107.9854,27.426950216293335
1618935818.62157,101.6525,27.442570209503174
1618935818.6372,94.78989,27.458200216293335
1618935818.65282,87.01624,27.473820209503174
1618935818.66845,78.28815,27.489450216293335
1618935818.68408,69.09314,27.505079984664917
1618935818.6997,60.25067,27.520700216293335
1618935818.71533,52.5163,27.536329984664917
1618935818.73095,46.23273,27.551950216293335
1618935818.74658,41.27606,27.567579984664917
1618935818.7622,37.2594,27.583200216293335
1618935818.77783,33.89093,27.598829984664917
1618935818.79346,31.16248,27.614459991455078
1618935818.80908,29.32745,27.630079984664917
1618935818.82471,28.73218,27.645709991455078
1618935818.84033,29.54138,27.661329984664917
1618935818.85596,31.54999,27.676959991455078
1618935818.87158,34.13788,27.692579984664917
1618935818.88721,36.34613,27.708209991455078
1618935818.90284,37.04449,27.72383999824524
1618935818.91846,35.19434,27.739459991455078
1618935818.93409,30.16772,27.75508999824524
1618935818.94971,22.00226,27.770709991455078
1618935818.96534,11.52472,27.78633999824524
1618935818.98096,0.1210327,27.801959991455078
1618935818.99659,-10.81671,27.81758999824524
1618935819.01222,-20.47461,27.8332200050354
1618935819.02784,-29.09448,27.84883999824524
1618935819.04347,-37.82385,27.8644700050354
1618935819.05909,-48.1554,27.88008999824524
1618935819.07472,-60.98718,27.8957200050354
1618935819.09034,-76.01099,27.91133999824524
1618935819.10597,-91.82666,27.9269700050354
1618935819.1216,-106.4742,27.94260001182556
1618935819.13722,-118.6198,27.9582200050354
1618935819.15285,-128.3021,27.97385001182556
1618935819.16847,-137.1678,27.9894700050354
1618935819.1841,-147.991,28.00510001182556
1618935819.19972,-164.046,28.0207200050354
1618935819.21535,-188.3716,28.03635001182556
1618935819.23098,-222.9969,28.051980018615723
1618935819.2466,-268.0452,28.06760001182556
1618935819.26223,-320.8273,28.083230018615723
1618935819.27785,-375.4625,28.09885001182556
1618935819.29348,-423.5197,28.114480018615723
1618935819.3091,-456.0792,28.13010001182556
1618935819.32473,-466.5802,28.145730018615723
1618935819.34036,-453.3281,28.161360025405884
1618935819.35598,-420.2124,28.176980018615723
1618935819.37161,-375.2672,28.192610025405884
1618935819.38723,-327.5629,28.208230018615723
1618935819.40286,-284.1119,28.223860025405884
1618935819.41848,-248.1921,28.239480018615723
1618935819.43411,-219.7344,28.255110025405884
1618935819.44974,-197.0576,28.270740032196045
1618935819.46536,-178.8029,28.286360025405884
1618935819.48099,-164.7137,28.301990032196045
1618935819.49661,-155.1112,28.317610025405884
1618935819.51224,-149.6853,28.333240032196045
1618935819.52786,-146.5624,28.348860025405884
1618935819.54349,-142.4188,28.364490032196045
1618935819.55912,-133.5521,28.380120038986206
1618935819.57474,-117.3013,28.395740032196045
1618935819.59037,-93.19946,28.411370038986206
1618935819.60599,-63.41711,28.426990032196045
1618935819.62162,-32.04224,28.442620038986206
1618935819.63724,-3.830811,28.458240032196045
1618935819.65287,17.28882,28.473870038986206
1618935819.6685,29.31787,28.489500045776367
1618935819.68412,32.6095,28.505120038986206
1618935819.69975,29.41785,28.520750045776367
1618935819.71537,22.91357,28.536370038986206
1618935819.731,16.02856,28.552000045776367
1618935819.74662,10.70728,28.567620038986206
1618935819.76225,7.776367,28.583250045776367
1618935819.77788,7.315063,28.59888005256653
1618935819.7935,9.231445,28.614500045776367
1618935819.80913,13.57788,28.63013005256653
1618935819.82475,20.53918,28.645750045776367
1618935819.84038,30.02722,28.66138005256653
1618935819.856,41.29614,28.677000045776367
1618935819.87163,52.84668,28.69263005256653
1618935819.88726,62.81934,28.70826005935669
1618935819.90288,69.66968,28.72388005256653
1618935819.91851,72.76477,28.73951005935669
1618935819.93413,72.60211,28.75513005256653
1618935819.94976,70.56281,28.77076005935669
1618935819.96538,68.22992,28.78638005256653
1618935819.98101,66.73657,28.80201005935669
1618935819.99664,66.37042,28.81764006614685
1618935820.01226,66.58868,28.83326005935669
1618935820.02789,66.48303,28.84889006614685
1618935820.04351,65.31995,28.86451005935669
1618935820.05914,62.90857,28.88014006614685
1618935820.07476,59.64014,28.89576005935669
1618935820.09039,56.21667,28.91139006614685
1618935820.10602,53.26428,28.92702007293701
1618935820.12164,51.07654,28.94264006614685
1618935820.13727,49.52039,28.95827007293701
1618935820.15289,48.1593,28.97389006614685
1618935820.16852,46.49628,28.98952007293701
1618935820.18414,44.18658,29.00514006614685
1618935820.19977,41.13885,29.02077007293701
1618935820.2154,37.55261,29.036400079727173
1618935820.23102,33.79181,29.05202007293701
1618935820.24665,30.21344,29.067650079727173
1618935820.26227,27.0426,29.08327007293701
1618935820.2779,24.21082,29.098900079727173
1618935820.29352,21.43396,29.11452007293701
1618935820.30915,18.37061,29.130150079727173
1618935820.32478,14.85815,29.145780086517334
1618935820.3404,11.05939,29.161400079727173
1618935820.35603,7.477356,29.177030086517334
1618935820.37165,4.732666,29.192650079727173
1618935820.38728,3.312988,29.208280086517334
1618935820.40291,3.405029,29.223910093307495
1618935820.41853,4.885864,29.239530086517334
1618935820.43416,7.481384,29.255160093307495
1618935820.44978,10.95044,29.270780086517334
1618935820.46541,15.11554,29.286410093307495
1618935820.48103,19.77795,29.302030086517334
1618935820.49666,24.60303,29.317660093307495
1618935820.51229,29.0415,29.333290100097656
1618935820.52791,32.46625,29.348910093307495
1618935820.54354,34.41077,29.364540100097656
1618935820.55916,34.75574,29.380160093307495
1618935820.57479,33.85803,29.395790100097656
1618935820.59041,32.32727,29.411410093307495
1618935820.60604,30.81421,29.427040100097656
1618935820.62167,29.74243,29.442670106887817
1618935820.63729,29.23572,29.458290100097656
1618935820.65292,29.13831,29.473920106887817
1618935820.66854,29.14905,29.489540100097656
1618935820.68417,28.94537,29.505170106887817
1618935820.69979,28.25568,29.520790100097656
1618935820.71542,26.9057,29.536420106887817
1618935820.73105,24.8551,29.55205011367798
1618935820.74667,22.18384,29.567670106887817
1618935820.7623,19.117,29.58330011367798
1618935820.77792,15.97626,29.598920106887817
1618935820.79355,13.06519,29.61455011367798
1618935820.80917,10.59906,29.630170106887817
1618935820.8248,8.579773,29.64580011367798
1618935820.84043,6.829834,29.66143012046814
1618935820.85605,5.054993,29.67705011367798
1618935820.87168,2.963501,29.69268012046814
1618935820.8873,0.3536987,29.70830011367798
1618935820.90293,-2.786255,29.72393012046814
1618935820.91855,-6.315857,29.73955011367798
1618935820.93418,-9.925415,29.75518012046814
1618935820.94981,-13.15631,29.7708101272583
1618935820.96543,-15.48987,29.78643012046814
1618935820.98106,-16.42432,29.8020601272583
1618935820.99668,-15.63953,29.81768012046814
1618935821.01231,-13.05923,29.8333101272583
1618935821.02793,-8.944031,29.84893012046814
1618935821.04356,-3.766632,29.8645601272583
1618935821.05919,1.866852,29.880190134048462
1618935821.07481,7.386078,29.8958101272583
1618935821.09044,12.34262,29.911440134048462
1618935821.10606,16.46198,29.9270601272583
1618935821.12169,19.60818,29.942690134048462
1618935821.13731,21.76053,29.9583101272583
1618935821.15294,23.02533,29.973940134048462
1618935821.16857,23.58301,29.989570140838623
1618935821.18419,23.69409,30.005190134048462
1618935821.19982,23.60812,30.020820140838623
1618935821.21544,23.48489,30.036440134048462
1618935821.23107,23.34399,30.052070140838623
1618935821.24669,23.0542,30.067690134048462
1618935821.26232,22.44528,30.083320140838623
1618935821.27795,21.39111,30.098950147628784
1618935821.29357,19.88318,30.114570140838623
1618935821.3092,18.02188,30.130200147628784
1618935821.32482,15.97568,30.145820140838623
1618935821.34045,13.8783,30.161450147628784
1618935821.35607,11.80524,30.177070140838623
1618935821.3717,9.782654,30.192700147628784
1618935821.38733,7.763184,30.208330154418945
1618935821.40295,5.698639,30.223950147628784
1618935821.41858,3.507813,30.239580154418945
1618935821.4342,1.124573,30.255200147628784
1618935821.44983,-1.510895,30.270830154418945
1618935821.46545,-4.450073,30.286450147628784
1618935821.48108,-7.771912,30.302080154418945
1618935821.49671,-11.54007,30.317710161209106
1618935821.51233,-15.72925,30.333330154418945
1618935821.52796,-20.13065,30.348960161209106
1618935821.54358,-24.26657,30.364580154418945
1618935821.55921,-27.44766,30.380210161209106
1618935821.57483,-28.94934,30.395830154418945
1618935821.59046,-28.30521,30.411460161209106
1618935821.60609,-25.49478,30.427090167999268
1618935821.62171,-20.97137,30.442710161209106
1618935821.63734,-15.48041,30.458340167999268
1618935821.65296,-9.745697,30.473960161209106
1618935821.66859,-4.248291,30.489590167999268
1618935821.68421,0.8737488,30.505210161209106
1618935821.69984,5.650146,30.520840167999268
1618935821.71547,10.0968,30.53647017478943
1618935821.73109,14.06305,30.552090167999268
1618935821.74672,17.28439,30.56772017478943
1618935821.76234,19.5397,30.583340167999268
1618935821.77797,20.81067,30.59897017478943
1618935821.79359,21.31754,30.614590167999268
1618935821.80922,21.44577,30.63022017478943
1618935821.82485,21.57022,30.64585018157959
1618935821.84047,21.92563,30.66147017478943
1618935821.8561,22.5517,30.67710018157959
1618935821.87172,23.35751,30.69272017478943
1618935821.88735,24.16217,30.70835018157959
1618935821.90297,24.79263,30.72397017478943
1618935821.9186,25.09671,30.73960018157959
1618935821.93423,24.953,30.75523018836975
1618935821.94985,24.24951,30.77085018157959
1618935821.96548,22.90393,30.78648018836975
1618935821.9811,20.89474,30.80210018157959
1618935821.99673,18.28885,30.81773018836975
1618935822.01235,15.27795,30.83335018157959
1618935822.02798,12.10052,30.84898018836975
1618935822.04361,8.962189,30.864610195159912
1618935822.05923,5.98819,30.88023018836975
1618935822.07486,3.189728,30.895860195159912
1618935822.09048,0.4992676,30.91148018836975
1618935822.10611,-2.205048,30.927110195159912
1618935822.12173,-5.035431,30.94273018836975
1618935822.13736,-8.099823,30.958360195159912
1618935822.15299,-11.49149,30.973990201950073
1618935822.16861,-15.20288,30.989610195159912
1618935822.18424,-19.03021,31.005240201950073
1618935822.19986,-22.48883,31.020860195159912
1618935822.21549,-24.8259,31.036490201950073
1618935822.23111,-25.22968,31.052110195159912
1618935822.24674,-23.16,31.067740201950073
1618935822.26237,-18.68941,31.083370208740234
1618935822.27799,-12.66599,31.098990201950073
1618935822.29362,-6.501495,31.114620208740234
1618935822.30924,-1.659348,31.130240201950073
1618935822.32487,0.9854279,31.145870208740234
1618935822.34049,1.590897,31.161490201950073
1618935822.35612,1.385666,31.177120208740234
1618935822.37175,2.220383,31.192750215530396
1618935822.38737,5.765549,31.208370208740234
1618935822.403,12.81229,31.224000215530396
1618935822.41862,22.90175,31.239620208740234
1618935822.43425,34.48323,31.255250215530396
1618935822.44987,45.44353,31.270870208740234
1618935822.4655,53.757,31.286500215530396
1618935822.48113,57.87149,31.302129983901978
1618935822.49675,56.90422,31.317750215530396
1618935822.51238,50.64484,31.333379983901978
1618935822.528,39.60641,31.349000215530396
1618935822.54363,25.2139,31.364629983901978
1618935822.55926,9.948349,31.38025999069214
1618935822.57488,-2.791779,31.395879983901978
1618935822.59051,-9.338318,31.41150999069214
1618935822.60613,-6.728668,31.427129983901978
1618935822.62176,6.368088,31.44275999069214
1618935822.63738,29.23918,31.458379983901978
1618935822.65301,59.41112,31.47400999069214
1618935822.66864,93.50279,31.4896399974823
1618935822.68426,128.1507,31.50525999069214
1618935822.69989,160.5813,31.5208899974823
1618935822.71551,188.703,31.53650999069214
1618935822.73114,210.8628,31.5521399974823
1618935822.74676,225.7149,31.56775999069214
1618935822.76239,232.2771,31.5833899974823
1618935822.77802,230.3274,31.59902000427246
1618935822.79364,220.6937,31.6146399974823
1618935822.80927,205.3123,31.63027000427246
1618935822.82489,186.7918,31.6458899974823
1618935822.84052,167.7643,31.66152000427246
1618935822.85614,150.2242,31.6771399974823
1618935822.87177,135.1559,31.69277000427246
1618935822.8874,122.543,31.708400011062622
1618935822.90302,111.6537,31.72402000427246
1618935822.91865,101.4626,31.739650011062622
1618935822.93427,90.9588,31.75527000427246
1618935822.9499,79.3804,31.770900011062622
1618935822.96552,66.2352,31.78652000427246
1618935822.98115,51.298,31.802150011062622
1618935822.99678,34.53998,31.817780017852783
1618935823.0124,16.10461,31.833400011062622
1618935823.02803,-3.702179,31.849030017852783
1618935823.04365,-24.38272,31.864650011062622
1618935823.05928,-45.10828,31.880280017852783
1618935823.0749,-64.65036,31.895900011062622
1618935823.09053,-81.48148,31.911530017852783
1618935823.10616,-94.15738,31.927160024642944
1618935823.12178,-101.952,31.942780017852783
1618935823.13741,-105.3536,31.958410024642944
1618935823.15303,-106.1323,31.974030017852783
1618935823.16866,-106.682,31.989660024642944
1618935823.18428,-109.0548,32.00528001785278
1618935823.19991,-113.9945,32.020910024642944
1618935823.21554,-120.6489,32.036540031433105
1618935823.23116,-127.072,32.052160024642944
1618935823.24679,-131.2535,32.067790031433105
1618935823.26241,-132.091,32.083410024642944
1618935823.27804,-129.7853,32.099040031433105
1618935823.29366,-125.52,32.114660024642944
1618935823.30929,-120.6395,32.130290031433105
1618935823.32492,-115.9379,32.14592003822327
1618935823.34054,-111.4291,32.161540031433105
1618935823.35617,-106.554,32.17717003822327
1618935823.37179,-100.7416,32.192790031433105
1618935823.38742,-93.85754,32.20842003822327
1618935823.40304,-86.31665,32.224040031433105
1618935823.41867,-78.90131,32.23967003822327
1618935823.4343,-72.41077,32.25530004501343
1618935823.44992,-67.31488,32.27092003822327
1618935823.46555,-63.58173,32.28655004501343
1618935823.48117,-60.74817,32.30217003822327
1618935823.4968,-58.1463,32.31780004501343
1618935823.51242,-55.18921,32.33342003822327
1618935823.52805,-51.58173,32.34905004501343
1618935823.54368,-47.32953,32.36468005180359
1618935823.5593,-42.66559,32.38030004501343
1618935823.57493,-37.86993,32.39593005180359
1618935823.59055,-33.16968,32.41155004501343
1618935823.60618,-28.69354,32.42718005180359
1618935823.6218,-24.50311,32.44280004501343
1618935823.63743,-20.60431,32.45843005180359
1618935823.65306,-16.98987,32.47406005859375
1618935823.66868,-13.60504,32.48968005180359
1618935823.68431,-10.31354,32.50531005859375
1618935823.69993,-6.918396,32.52093005180359
1618935823.71556,-3.213562,32.53656005859375
1618935823.73118,0.9523315,32.55218005180359
1618935823.74681,5.588562,32.56781005859375
1618935823.76244,10.53918,32.58344006538391
1618935823.77806,15.50677,32.59906005859375
1618935823.79369,20.10883,32.61469006538391
1618935823.80931,23.95642,32.63031005859375
1618935823.82494,26.46924,32.64594006538391
1618935823.84056,27.24469,32.66156005859375
1618935823.85619,26.23541,32.67719006538391
1618935823.87182,23.685,32.69282007217407
1618935823.88744,19.96051,32.70844006538391
1618935823.90307,15.43933,32.72407007217407
1618935823.91869,10.63129,32.73969006538391
1618935823.93432,6.030823,32.75532007217407
1618935823.94994,2.104553,32.77094006538391
1618935823.96557,-1.074585,32.78657007217407
1618935823.9812,-3.65332,32.80220007896423
1618935823.99682,-5.814392,32.81782007217407
1618935824.01245,-7.746948,32.83345007896423
1618935824.02807,-9.665527,32.84907007217407
1618935824.0437,-11.80084,32.86470007896423
1618935824.05932,-14.24896,32.88032007217407
1618935824.07495,-17.04559,32.89595007896423
1618935824.09058,-20.01672,32.911580085754395
1618935824.1062,-23.41107,32.92720007896423
1618935824.12183,-27.04968,32.942830085754395
1618935824.13745,-30.03265,32.95845007896423
1618935824.15308,-31.09149,32.974080085754395
1618935824.1687,-29.3172,32.98970007896423
1618935824.18433,-24.68597,33.005330085754395
1618935824.19996,-17.80719,33.020960092544556
1618935824.21558,-9.917419,33.036580085754395
1618935824.23121,-2.115356,33.052210092544556
1618935824.24683,3.173523,33.067830085754395
1618935824.26246,4.622742,33.083460092544556
1618935824.27808,2.875061,33.099080085754395
1618935824.29371,-0.1505127,33.114710092544556
1618935824.30934,-2.758118,33.13034009933472
1618935824.32496,-4.353516,33.145960092544556
1618935824.34059,-4.714844,33.16159009933472
1618935824.35621,-4.288818,33.177210092544556
1618935824.37184,-3.131775,33.19284009933472
1618935824.38746,-4.582947,33.208460092544556
1618935824.40309,-10.66663,33.22409009933472
1618935824.41872,-20.24377,33.23972010612488
1618935824.43434,-29.89758,33.25534009933472
1618935824.44997,-36.75488,33.27097010612488
1618935824.46559,-40.15948,33.28659009933472
1618935824.48122,-40.47717,33.30222010612488
1618935824.49684,-39.85944,33.31784009933472
1618935824.51247,-39.96191,33.33347010612488
1618935824.5281,-47.25372,33.34910011291504
1618935824.54372,-65.26862,33.36472010612488
1618935824.55935,-91.4585,33.38035011291504
1618935824.57497,-118.9706,33.39597010612488
1618935824.5906,-141.7205,33.41160011291504
1618935824.60622,-157.5714,33.42722010612488
1618935824.62185,-166.733,33.44285011291504
1618935824.63748,-172.9285,33.4584801197052
1618935824.6531,-179.4547,33.47410011291504
1618935824.66873,-195.8536,33.4897301197052
1618935824.68435,-227.7718,33.50535011291504
1618935824.69998,-272.907,33.5209801197052
1618935824.7156,-323.1887,33.53660011291504
1618935824.73123,-371.0007,33.5522301197052
1618935824.74686,-413.0051,33.56786012649536
1618935824.76248,-447.9686,33.5834801197052
1618935824.77811,-478.5361,33.59911012649536
1618935824.79373,-459.1829,33.6147301197052
1618935824.80936,-367.4567,33.63036012649536
1618935824.82499,-220.3753,33.64599013328552
1618935824.84061,-62.10715,33.66161012649536
1618935824.85624,72.59653,33.67724013328552
1618935824.87186,173.0089,33.69286012649536
1618935824.88749,234.3053,33.70849013328552
1618935824.90311,272.6531,33.72411012649536
1618935824.91874,295.7169,33.73974013328552
1618935824.93437,305.9171,33.755370140075684
1618935824.94999,295.6328,33.77099013328552
1618935824.96562,258.9548,33.786620140075684
1618935824.98124,200.7936,33.80224013328552
1618935824.99687,132.5225,33.817870140075684
1618935825.01249,67.73019,33.83349013328552
1618935825.02812,17.84006,33.849120140075684
1618935825.04375,-7.969147,33.864750146865845
1618935825.05937,-7.589081,33.880370140075684
1618935825.075,16.48727,33.896000146865845
1618935825.09062,51.70175,33.911620140075684
1618935825.10625,85.00505,33.927250146865845
1618935825.12187,109.0721,33.942870140075684
1618935825.1375,123.422,33.958500146865845
1618935825.15313,131.1901,33.974130153656006
1618935825.16875,135.5111,33.989750146865845
1618935825.18438,139.3755,34.005380153656006
1618935825.2,142.4416,34.021000146865845
1618935825.21563,143.9032,34.036630153656006
1618935825.23125,139.6254,34.052250146865845
1618935825.24688,127.6524,34.067880153656006
1618935825.26251,110.5014,34.08351016044617
1618935825.27813,93.54681,34.099130153656006
1618935825.29376,81.44328,34.11476016044617
1618935825.30938,75.59687,34.130380153656006
1618935825.32501,75.08237,34.14601016044617
1618935825.34063,76.37773,34.161630153656006
1618935825.35626,76.77205,34.17726016044617
1618935825.37189,73.65941,34.19289016723633
1618935825.38751,66.91835,34.20851016044617
1618935825.40314,59.08939,34.22414016723633
1618935825.41876,53.615,34.23976016044617
1618935825.43439,52.68372,34.25539016723633
1618935825.45001,56.04871,34.27101016044617
1618935825.46564,62.00173,34.28664016723633
1618935825.48127,67.76316,34.30227017402649
1618935825.49689,71.36422,34.31789016723633
1618935825.51252,71.50052,34.33352017402649
1618935825.52814,68.2327,34.34914016723633
1618935825.54377,62.86982,34.36477017402649
1618935825.55939,57.14581,34.38039016723633
1618935825.57502,52.35177,34.39602017402649
1618935825.59065,48.82273,34.41165018081665
1618935825.60627,46.22081,34.42727017402649
1618935825.6219,43.657,34.44290018081665
1618935825.63752,40.46939,34.45852017402649
1618935825.65315,36.50583,34.47415018081665
1618935825.66877,32.10484,34.48977017402649
1618935825.6844,27.9165,34.50540018081665
1618935825.70003,24.50392,34.52103018760681
1618935825.71565,22.17929,34.53665018081665
1618935825.73128,20.83849,34.55228018760681
1618935825.7469,20.06335,34.56790018081665
1618935825.76253,19.35294,34.58353018760681
1618935825.77815,18.3355,34.59915018081665
1618935825.79378,16.85365,34.61478018760681
1618935825.80941,14.94581,34.63041019439697
1618935825.82503,12.75736,34.64603018760681
1618935825.84066,10.42256,34.66166019439697
1618935825.85628,8.040688,34.67728018760681
1618935825.87191,5.686569,34.69291019439697
1618935825.88753,3.41011,34.70853018760681
1618935825.90316,1.213501,34.72416019439697
1618935825.91879,-0.9732971,34.739790201187134
1618935825.93441,-3.2761,34.75541019439697
1618935825.95004,-5.861496,34.771040201187134
1618935825.96566,-8.777077,34.78666019439697
1618935825.98129,-11.88956,34.802290201187134
1618935825.99691,-14.79355,34.81791019439697
1618935826.01254,-16.90563,34.833540201187134
1618935826.02817,-17.65844,34.849170207977295
1618935826.04379,-16.68738,34.864790201187134
1618935826.05942,-13.99265,34.880420207977295
1618935826.07504,-9.968803,34.896040201187134
1618935826.09067,-5.299141,34.911670207977295
1618935826.10629,-0.7735367,34.927290201187134
1618935826.12192,2.920891,34.942920207977295
1618935826.13755,5.404449,34.958550214767456
1618935826.15317,6.644844,34.974170207977295
1618935826.1688,6.94101,34.989800214767456
1618935826.18442,6.785179,35.005420207977295
1618935826.20005,6.669525,35.021050214767456
1618935826.21567,6.949638,35.036670207977295
1618935826.2313,7.717102,35.052300214767456
1618935826.24693,8.820686,35.06792998313904
1618935826.26255,9.929268,35.083550214767456
1618935826.27818,10.65248,35.09917998313904
1618935826.2938,10.70255,35.114800214767456
1618935826.30943,9.992035,35.13042998313904
1618935826.32505,8.681213,35.146050214767456
1618935826.34068,7.09684,35.16167998313904
1618935826.35631,5.614075,35.1773099899292
1618935826.37193,4.516388,35.19292998313904
1618935826.38756,3.857254,35.2085599899292
1618935826.40318,3.477959,35.22417998313904
1618935826.41881,3.056801,35.2398099899292
1618935826.43443,2.238953,35.25542998313904
1618935826.45006,0.7803879,35.2710599899292
1618935826.46569,-1.340401,35.28668999671936
1618935826.48131,-3.936295,35.3023099899292
1618935826.49694,-6.657295,35.31793999671936
1618935826.51256,-9.07634,35.3335599899292
1618935826.52819,-10.83298,35.34918999671936
1618935826.54381,-11.784,35.3648099899292
1618935826.55944,-12.05527,35.38043999671936
1618935826.57507,-12.07309,35.39607000350952
1618935826.59069,-12.4346,35.41168999671936
1618935826.60632,-13.64758,35.42732000350952
1618935826.62194,-15.92633,35.44293999671936
1618935826.63757,-19.02035,35.45857000350952
1618935826.65319,-22.25758,35.47418999671936
1618935826.66882,-24.75829,35.48982000350952
1618935826.68445,-25.68611,35.50545001029968
1618935826.70007,-24.54701,35.52107000350952
1618935826.7157,-21.3167,35.53670001029968
1618935826.73132,-16.40764,35.55232000350952
1618935826.74695,-10.51044,35.56795001029968
1618935826.76257,-4.335876,35.58357000350952
1618935826.7782,1.538696,35.59920001029968
1618935826.79383,6.795631,35.614830017089844
1618935826.80945,11.32738,35.63045001029968
1618935826.82508,15.16166,35.646080017089844
1618935826.8407,18.34893,35.66170001029968
1618935826.85633,20.86105,35.677330017089844
1618935826.87195,22.66203,35.69295001029968
1618935826.88758,23.71304,35.708580017089844
1618935826.90321,24.0869,35.724210023880005
1618935826.91883,23.96457,35.739830017089844
1618935826.93446,23.55825,35.755460023880005
1618935826.95008,23.05843,35.771080017089844
1618935826.96571,22.54121,35.786710023880005
1618935826.98133,21.99213,35.802330017089844
1618935826.99696,21.35722,35.817960023880005
1618935827.01259,20.62513,35.833590030670166
1618935827.02821,19.88811,35.849210023880005
1618935827.04384,19.24625,35.864840030670166
1618935827.05946,18.77065,35.880460023880005
1618935827.07509,18.43687,35.896090030670166
1618935827.09071,18.05552,35.911710023880005
1618935827.10634,17.38443,35.927340030670166
1618935827.12197,16.17042,35.94297003746033
1618935827.13759,14.28287,35.958590030670166
1618935827.15322,11.77826,35.97422003746033
1618935827.16884,8.862259,35.989840030670166
1618935827.18447,5.854279,36.00547003746033
1618935827.20009,3.06707,36.021090030670166
1618935827.21572,0.697258,36.03672003746033
1618935827.23135,-1.249382,36.05235004425049
1618935827.24697,-2.957169,36.06797003746033
1618935827.2626,-4.707855,36.08360004425049
1618935827.27822,-6.757751,36.09922003746033
1618935827.29385,-9.22789,36.11485004425049
1618935827.30947,-12.08624,36.13047003746033
1618935827.3251,-15.23422,36.14610004425049
1618935827.34073,-18.52359,36.16173005104065
1618935827.35635,-21.87024,36.17735004425049
1618935827.37198,-25.17653,36.19298005104065
1618935827.3876,-28.27944,36.20860004425049
1618935827.40323,-30.85965,36.22423005104065
1618935827.41886,-32.43544,36.23986005783081
1618935827.43448,-32.50979,36.25548005104065
1618935827.45011,-30.73501,36.27111005783081
1618935827.46573,-27.10255,36.28673005104065
1618935827.48136,-21.94583,36.30236005783081
1618935827.49698,-15.83868,36.31798005104065
1618935827.51261,-9.382706,36.33361005783081
1618935827.52824,-3.038208,36.34924006462097
1618935827.54386,2.951103,36.36486005783081
1618935827.55949,8.521545,36.38049006462097
1618935827.57511,13.67823,36.39611005783081
1618935827.59074,18.34046,36.41174006462097
1618935827.60636,22.33113,36.42736005783081
1618935827.62199,25.39736,36.44299006462097
1618935827.63762,27.29737,36.45862007141113
1618935827.65324,27.93863,36.47424006462097
1618935827.66887,27.41689,36.48987007141113
1618935827.68449,26.05138,36.50549006462097
1618935827.70012,24.26296,36.52112007141113
1618935827.71574,22.51006,36.53674006462097
1618935827.73137,21.13876,36.55237007141113
1618935827.747,20.31517,36.568000078201294
1618935827.76262,19.99197,36.58362007141113
1618935827.77825,19.94997,36.599250078201294
1618935827.79387,19.91755,36.61487007141113
1618935827.8095,19.66369,36.630500078201294
1618935827.82512,18.99791,36.64612007141113
1618935827.84075,17.82654,36.661750078201294
1618935827.85638,16.08891,36.677380084991455
1618935827.872,13.85849,36.693000078201294
1618935827.88763,11.36842,36.708630084991455
1618935827.90325,8.960114,36.724250078201294
1618935827.91888,6.980507,36.739880084991455
1618935827.9345,5.613274,36.755500078201294
1618935827.95013,4.766968,36.771130084991455
1618935827.96576,4.058479,36.786760091781616
1618935827.98138,3.016838,36.802380084991455
1618935827.99701,1.288445,36.818010091781616
1618935828.01263,-1.168488,36.833630084991455
1618935828.02826,-4.087555,36.849260091781616
1618935828.04388,-7.044632,36.864880084991455
1618935828.05951,-9.681892,36.880510091781616
1618935828.07514,-11.87214,36.89614009857178
1618935828.09076,-13.75462,36.911760091781616
1618935828.10639,-15.63195,36.92739009857178
1618935828.12201,-17.78689,36.943010091781616
1618935828.13764,-20.31202,36.95864009857178
1618935828.15326,-23.08099,36.974260091781616
1618935828.16889,-25.76445,36.98989009857178
1618935828.18452,-27.905,37.00552010536194
1618935828.20014,-29.06413,37.02114009857178
1618935828.21577,-28.93908,37.03677010536194
1618935828.23139,-27.42879,37.05239009857178
1618935828.24702,-24.63964,37.06802010536194
1618935828.26264,-20.80775,37.08364009857178
1618935828.27827,-16.22411,37.09927010536194
1618935828.2939,-11.15405,37.1149001121521
1618935828.30952,-5.821487,37.13052010536194
1618935828.32515,-0.4122772,37.1461501121521
1618935828.34077,4.853645,37.16177010536194
1618935828.3564,9.733681,37.1774001121521
1618935828.37202,13.94321,37.19302010536194
1618935828.38765,17.26439,37.2086501121521
1618935828.40328,19.60265,37.22428011894226
1618935828.4189,20.99073,37.2399001121521
1618935828.43453,21.59452,37.25553011894226
1618935828.45015,21.64031,37.2711501121521
1618935828.46578,21.29218,37.28678011894226
1618935828.4814,20.63215,37.3024001121521
1618935828.49703,19.6615,37.31803011894226
1618935828.51266,18.36288,37.33366012573242
1618935828.52828,16.75597,37.34928011894226
1618935828.54391,14.94528,37.36491012573242
1618935828.55953,13.09875,37.38053011894226
1618935828.57516,11.47571,37.39616012573242
1618935828.59078,10.30767,37.41178011894226
1618935828.60641,9.758564,37.42741012573242
1618935828.62204,9.844805,37.44304013252258
1618935828.63766,10.43487,37.45866012573242
1618935828.65329,11.27886,37.47429013252258
1618935828.66891,12.07635,37.48991012573242
1618935828.68454,12.58969,37.50554013252258
1618935828.70016,12.6679,37.52116012573242
1618935828.71579,12.28081,37.53679013252258
1618935828.73142,11.4633,37.552420139312744
1618935828.74704,10.28565,37.56804013252258
1618935828.76267,8.814035,37.583670139312744
1618935828.77829,7.102268,37.59929013252258
1618935828.79392,5.176905,37.614920139312744
1618935828.80954,3.074672,37.63054013252258
1618935828.82517,0.846284,37.646170139312744
1618935828.8408,-1.438123,37.661800146102905
1618935828.85642,-3.681331,37.677420139312744
1618935828.87205,-5.798042,37.693050146102905
1618935828.88767,-7.778726,37.708670139312744
1618935828.9033,-9.713176,37.724300146102905
1618935828.91892,-11.84142,37.739920139312744
1618935828.93455,-14.4418,37.755550146102905
1618935828.95018,-17.70951,37.771180152893066
1618935828.9658,-21.57421,37.786800146102905
1618935828.98143,-25.63582,37.802430152893066
1618935828.99705,-29.17467,37.818050146102905
1618935829.01268,-31.42196,37.833680152893066
1618935829.0283,-31.76973,37.849300146102905
1618935829.04393,-30.03962,37.864930152893066
1618935829.05956,-26.51765,37.88056015968323
1618935829.07518,-21.78801,37.896180152893066
1618935829.09081,-16.51199,37.91181015968323
1618935829.10643,-11.19163,37.927430152893066
1618935829.12206,-6.079748,37.94306015968323
1618935829.13768,-1.221245,37.958680152893066
1618935829.15331,3.374763,37.97431015968323
1618935829.16894,7.589817,37.98994016647339
1618935829.18456,11.18354,38.00556015968323
1618935829.20019,13.88337,38.02119016647339
1618935829.21581,15.56866,38.03681015968323
1618935829.23144,16.37516,38.05244016647339
1618935829.24706,16.70679,38.06806015968323
1618935829.26269,17.04857,38.08369016647339
1618935829.27832,17.73309,38.09932017326355
1618935829.29394,18.82589,38.11494016647339
1618935829.30957,20.07927,38.13057017326355
1618935829.32519,21.13882,38.14619016647339
1618935829.34082,21.72663,38.16182017326355
1618935829.35644,21.79192,38.17744016647339
1618935829.37207,21.45378,38.19307017326355
1618935829.3877,20.92068,38.20870018005371
1618935829.40332,20.29349,38.22432017326355
1618935829.41895,19.5187,38.23995018005371
1618935829.43457,18.47633,38.25557017326355
1618935829.4502,17.10484,38.27120018005371
1618935829.46582,15.47855,38.28682017326355
1618935829.48145,13.7535,38.30245018005371
1618935829.49708,12.07258,38.31808018684387
1618935829.5127,10.40707,38.33370018005371
1618935829.52833,8.641136,38.34933018684387
1618935829.54395,6.65493,38.36495018005371
1618935829.55958,4.449738,38.38058018684387
1618935829.5752,2.192726,38.39620018005371
1618935829.59083,0.0952301,38.41183018684387
1618935829.60646,-1.680283,38.42746019363403
1618935829.62208,-3.17395,38.44308018684387
1618935829.63771,-4.560272,38.45871019363403
1618935829.65333,-6.029152,38.47433018684387
1618935829.66896,-7.707619,38.48996019363403
1618935829.68459,-9.613838,38.505590200424194
1618935829.70021,-11.72473,38.52121019363403
1618935829.71584,-13.96896,38.536840200424194
1618935829.73146,-16.2803,38.55246019363403
1618935829.74709,-18.4899,38.568090200424194
1618935829.76271,-20.29508,38.58371019363403
1618935829.77834,-21.33013,38.599340200424194
1618935829.79397,-21.25395,38.614970207214355
1618935829.80959,-19.89128,38.630590200424194
1618935829.82522,-17.30846,38.646220207214355
1618935829.84084,-13.78284,38.661840200424194
1618935829.85647,-9.678276,38.677470207214355
1618935829.87209,-5.355774,38.693090200424194
1618935829.88772,-1.084702,38.708720207214355
1618935829.90335,2.947479,38.72435021400452
1618935829.91897,6.557205,38.739970207214355
1618935829.9346,9.542572,38.75560021400452
1618935829.95022,11.73354,38.771220207214355
1618935829.96585,13.03604,38.78685021400452
1618935829.98147,13.51131,38.802470207214355
1618935829.9971,13.37297,38.81810021400452
1618935830.01273,12.90933,38.8337299823761
1618935830.02835,12.37219,38.84935021400452
1618935830.04398,11.858,38.8649799823761
1618935830.0596,11.31609,38.88060021400452
1618935830.07523,10.56552,38.8962299823761
1618935830.09085,9.444412,38.91185021400452
1618935830.10648,7.909958,38.9274799823761
1618935830.12211,6.104111,38.94310998916626
1618935830.13773,4.291595,38.9587299823761
1618935830.15336,2.747375,38.97435998916626
1618935830.16898,1.639999,38.9899799823761
1618935830.18461,0.9961548,39.00560998916626
1618935830.20023,0.7157593,39.0212299823761
1618935830.21586,0.7164612,39.03685998916626
1618935830.23149,0.9205933,39.05248999595642
1618935830.24711,1.297989,39.06810998916626
1618935830.26274,1.836029,39.08373999595642
1618935830.27836,2.455658,39.09935998916626
1618935830.29399,3.001831,39.11498999595642
1618935830.30961,3.298203,39.13060998916626
1618935830.32524,3.186142,39.14623999595642
1618935830.34087,2.619583,39.16187000274658
1618935830.35649,1.659836,39.17748999595642
1618935830.37212,0.4376678,39.19312000274658
1618935830.38774,-0.9466705,39.20873999595642
1618935830.40337,-2.484879,39.22437000274658
1618935830.41899,-4.287476,39.23998999595642
1618935830.43462,-6.533234,39.25562000274658
1618935830.45025,-9.369049,39.27125000953674
1618935830.46587,-12.82451,39.28687000274658
1618935830.4815,-16.769,39.30250000953674
1618935830.49712,-20.92059,39.31812000274658
1618935830.51275,-24.89629,39.33375000953674
1618935830.52837,-28.29356,39.34937000274658
1618935830.544,-30.77939,39.36500000953674
1618935830.55963,-32.16353,39.380630016326904
1618935830.57525,-32.45322,39.39625000953674
1618935830.59088,-31.77737,39.411880016326904
1618935830.6065,-30.332,39.42750000953674
1618935830.62213,-28.29868,39.443130016326904
1618935830.63775,-25.77774,39.45875000953674
1618935830.65338,-22.78758,39.474380016326904
1618935830.66901,-19.35544,39.490010023117065
1618935830.68463,-15.58673,39.505630016326904
1618935830.70026,-11.69574,39.521260023117065
1618935830.71588,-8.009201,39.536880016326904
1618935830.73151,-4.828461,39.552510023117065
1618935830.74713,-2.375244,39.568130016326904
1618935830.76276,-0.7019348,39.583760023117065
1618935830.77839,0.3061218,39.59939002990723
1618935830.79401,0.8312988,39.615010023117065
1618935830.80964,1.092712,39.63064002990723
1618935830.82526,1.234406,39.646260023117065
1618935830.84089,1.38858,39.66189002990723
1618935830.85651,1.6492,39.677510023117065
1618935830.87214,2.112915,39.69314002990723
1618935830.88777,2.829163,39.70877003669739
1618935830.90339,3.76181,39.72439002990723
1618935830.91902,4.776428,39.74002003669739
1618935830.93464,5.64566,39.75564002990723
1618935830.95027,6.142151,39.77127003669739
1618935830.96589,6.128418,39.78689002990723
1618935830.98152,5.627441,39.80252003669739
1618935830.99715,4.779266,39.81815004348755
1618935831.01277,3.768188,39.83377003669739
1618935831.0284,2.693909,39.84940004348755
1618935831.04402,1.58252,39.86502003669739
1618935831.05965,0.4112854,39.88065004348755
1618935831.07527,-0.8291931,39.89627003669739
1618935831.0909,-2.040771,39.91190004348755
1618935831.10653,-3.065826,39.92753005027771
1618935831.12215,-3.744141,39.94315004348755
1618935831.13778,-4.054504,39.95878005027771
1618935831.1534,-4.087463,39.97440004348755
1618935831.16903,-4.057953,39.99003005027771
1618935831.18465,-4.217651,40.00565004348755
1618935831.20028,-4.736237,40.02128005027771
1618935831.21591,-5.686218,40.03691005706787
1618935831.23153,-7.021515,40.05253005027771
1618935831.24716,-8.621582,40.06816005706787
1618935831.26278,-10.36053,40.08378005027771
1618935831.27841,-12.06369,40.09941005706787
1618935831.29403,-13.548,40.11503005027771
1618935831.30966,-14.57144,40.13066005706787
1618935831.32529,-14.89606,40.14629006385803
1618935831.34091,-14.32321,40.16191005706787
1618935831.35654,-12.75574,40.17754006385803
1618935831.37216,-10.25363,40.19316005706787
1618935831.38779,-7.058807,40.20879006385803
1618935831.40341,-3.540192,40.22441005706787
1618935831.41904,-0.1454773,40.24004006385803
1618935831.43467,2.747528,40.25567007064819
1618935831.45029,4.941528,40.27129006385803
1618935831.46592,6.462402,40.28692007064819
1618935831.48154,7.490448,40.30254006385803
1618935831.49717,8.287048,40.31817007064819
1618935831.51279,9.029633,40.33379006385803
1618935831.52842,9.744293,40.34942007064819
1618935831.54405,10.31201,40.365050077438354
1618935831.55967,10.55682,40.38067007064819
1618935831.5753,10.34326,40.396300077438354
1618935831.59092,9.688416,40.41192007064819
1618935831.60655,8.745056,40.427550077438354
1618935831.62217,7.746429,40.44317007064819
1618935831.6378,6.905762,40.458800077438354
1618935831.65343,6.354462,40.474430084228516
1618935831.66905,6.102509,40.490050077438354
1618935831.68468,6.071625,40.505680084228516
1618935831.7003,6.172058,40.521300077438354
1618935831.71593,6.261536,40.536930084228516
1618935831.73155,6.204041,40.552550077438354
1618935831.74718,5.910767,40.568180084228516
1618935831.76281,5.318542,40.58381009101868
1618935831.77843,4.444946,40.599430084228516
1618935831.79406,3.362305,40.61506009101868
1618935831.80968,2.170135,40.630680084228516
1618935831.82531,0.9234924,40.64631009101868
1618935831.84093,-0.385376,40.661930084228516
1618935831.85656,-1.817169,40.67756009101868
1618935831.87219,-3.443329,40.69319009780884
1618935831.88781,-5.272003,40.70881009101868
1618935831.90344,-7.219757,40.72444009780884
1618935831.91906,-9.165466,40.74006009101868
1618935831.93469,-11.01807,40.75569009780884
1618935831.95032,-12.77524,40.771320104599
1618935831.96594,-14.5011,40.78694009780884
1618935831.98157,-16.22357,40.802570104599
1618935831.99719,-17.80603,40.81819009780884
1618935832.01282,-18.91699,40.833820104599
1618935832.02844,-19.10413,40.84944009780884
1618935832.04407,-18.02576,40.865070104599
1618935832.0597,-15.6207,40.88070011138916
1618935832.07532,-12.1716,40.896320104599
1618935832.09095,-8.209442,40.91195011138916
1618935832.10657,-4.268768,40.927570104599
1618935832.1222,-0.7315063,40.94320011138916
1618935832.13782,2.223236,40.958820104599
1618935832.15345,4.569489,40.97445011138916
1618935832.16908,6.33493,40.99008011817932
1618935832.1847,7.50589,41.00570011138916
1618935832.20033,8.091187,41.02133011817932
1618935832.21595,8.167572,41.03695011138916
1618935832.23158,7.870667,41.05258011817932
1618935832.2472,7.388824,41.06820011138916
1618935832.26283,6.84137,41.08383011817932
1618935832.27846,6.26535,41.09946012496948
1618935832.29408,5.690613,41.11508011817932
1618935832.30971,5.190002,41.13071012496948
1618935832.32533,4.879791,41.14633011817932
1618935832.34096,4.90213,41.16196012496948
1618935832.35658,5.254578,41.17758011817932
1618935832.37221,5.741638,41.19321012496948
1618935832.38784,6.06076,41.208840131759644
1618935832.40346,5.961334,41.22446012496948
1618935832.41909,5.39035,41.240090131759644
1618935832.43471,4.530579,41.25571012496948
1618935832.45034,3.6745,41.271340131759644
1618935832.46596,3.030701,41.28696012496948
1618935832.48159,2.607025,41.302590131759644
1618935832.49722,2.195923,41.318220138549805
1618935832.51284,1.590607,41.333840131759644
1618935832.52847,0.7050781,41.349470138549805
1618935832.54409,-0.361084,41.365090131759644
1618935832.55972,-1.41217,41.380720138549805
1618935832.57534,-2.304535,41.396340131759644
1618935832.59097,-3.074677,41.411970138549805
1618935832.6066,-3.90097,41.427600145339966
1618935832.62222,-4.958557,41.443220138549805
1618935832.63785,-6.319611,41.458850145339966
1618935832.65347,-7.875793,41.474470138549805
1618935832.6691,-9.400696,41.490100145339966
1618935832.68472,-10.6813,41.505720138549805
1618935832.70035,-11.62073,41.521350145339966
1618935832.71598,-12.21707,41.53698015213013
1618935832.7316,-12.53537,41.552600145339966
1618935832.74723,-12.58078,41.56823015213013
1618935832.76285,-12.22443,41.583850145339966
