timestamp,value,norm_ts
1618836952.03456,24.19241,4.736799955368042
1618836952.05018,24.63841,4.752419948577881
1618836952.06581,25.15469,4.768049955368042
1618836952.08143,25.85128,4.783669948577881
1618836952.09706,26.72849,4.799299955368042
1618836952.11268,27.68485,4.814919948577881
1618836952.12831,28.54809,4.830549955368042
1618836952.14394,29.15505,4.846179962158203
1618836952.15956,29.38895,4.861799955368042
1618836952.17519,29.23815,4.877429962158203
1618836952.19081,28.78191,4.893049955368042
1618836952.20644,28.15451,4.908679962158203
1618836952.22206,27.50764,4.924299955368042
1618836952.23769,26.9136,4.939929962158203
1618836952.25332,26.36922,4.955559968948364
1618836952.26894,25.77431,4.971179962158203
1618836952.28457,24.94816,4.986809968948364
1618836952.30019,23.75311,5.002429962158203
1618836952.31582,22.08994,5.018059968948364
1618836952.33144,19.97047,5.033679962158203
1618836952.34707,17.49906,5.049309968948364
1618836952.3627,14.81819,5.064939975738525
1618836952.37832,12.04082,5.080559968948364
1618836952.39395,9.226959,5.096189975738525
1618836952.40957,6.377342,5.111809968948364
1618836952.4252,3.470398,5.127439975738525
1618836952.44082,0.4741211,5.143059968948364
1618836952.45645,-2.657318,5.158689975738525
1618836952.47208,-5.957687,5.1743199825286865
1618836952.4877,-9.430443,5.189939975738525
1618836952.50333,-12.99468,5.2055699825286865
1618836952.51895,-16.42899,5.221189975738525
1618836952.53458,-19.40213,5.2368199825286865
1618836952.5502,-21.51946,5.252439975738525
1618836952.56583,-22.42811,5.2680699825286865
1618836952.58146,-21.89626,5.283699989318848
1618836952.59708,-19.88435,5.2993199825286865
1618836952.61271,-16.52185,5.314949989318848
1618836952.62833,-12.07988,5.3305699825286865
1618836952.64396,-6.932556,5.346199989318848
1618836952.65959,-1.515816,5.361829996109009
1618836952.67521,3.707115,5.377449989318848
1618836952.69084,8.362785,5.393079996109009
1618836952.70646,12.18635,5.408699989318848
1618836952.72209,15.11658,5.424329996109009
1618836952.73771,17.21976,5.439949989318848
1618836952.75334,18.65847,5.455579996109009
1618836952.76897,19.59806,5.47121000289917
1618836952.78459,20.1377,5.486829996109009
1618836952.80022,20.32172,5.50246000289917
1618836952.81584,20.2002,5.518079996109009
1618836952.83147,19.86153,5.53371000289917
1618836952.84709,19.39703,5.549329996109009
1618836952.86272,18.91853,5.56496000289917
1618836952.87835,18.49519,5.580590009689331
1618836952.89397,18.16686,5.59621000289917
1618836952.9096,17.94977,5.611840009689331
1618836952.92522,17.82887,5.62746000289917
1618836952.94085,17.77157,5.643090009689331
1618836952.95647,17.71852,5.65871000289917
1618836952.9721,17.56901,5.674340009689331
1618836952.98773,17.21354,5.689970016479492
1618836953.00335,16.5889,5.705590009689331
1618836953.01898,15.67163,5.721220016479492
1618836953.0346,14.4606,5.736840009689331
1618836953.05023,12.97963,5.752470016479492
1618836953.06585,11.21599,5.768090009689331
1618836953.08148,9.192528,5.783720016479492
1618836953.09711,6.974762,5.799350023269653
1618836953.11273,4.687447,5.814970016479492
1618836953.12836,2.481331,5.830600023269653
1618836953.14398,0.4673691,5.846220016479492
1618836953.15961,-1.348595,5.861850023269653
1618836953.17523,-3.067413,5.877470016479492
1618836953.19086,-4.858284,5.893100023269653
1618836953.20649,-6.824936,5.9087300300598145
1618836953.22211,-8.958481,5.924350023269653
1618836953.23774,-11.11741,5.9399800300598145
1618836953.25336,-13.07616,5.955600023269653
1618836953.26899,-14.57261,5.9712300300598145
1618836953.28461,-15.31978,5.986850023269653
1618836953.30024,-15.05341,6.0024800300598145
1618836953.31587,-13.5282,6.018110036849976
1618836953.33149,-10.60828,6.0337300300598145
1618836953.34712,-6.347286,6.049360036849976
1618836953.36274,-1.040344,6.0649800300598145
1618836953.37837,4.780636,6.080610036849976
1618836953.39399,10.49078,6.0962300300598145
1618836953.40962,15.57911,6.111860036849976
1618836953.42525,19.76259,6.127490043640137
1618836953.44087,23.03627,6.143110036849976
1618836953.4565,25.54908,6.158740043640137
1618836953.47212,27.46381,6.174360036849976
1618836953.48775,28.82067,6.189990043640137
1618836953.50337,29.53079,6.205610036849976
1618836953.519,29.50245,6.221240043640137
1618836953.53463,28.74212,6.236870050430298
1618836953.55025,27.43575,6.252490043640137
1618836953.56588,25.85209,6.268120050430298
1618836953.5815,24.22821,6.283740043640137
1618836953.59713,22.66162,6.299370050430298
1618836953.61275,21.09551,6.314990043640137
1618836953.62838,19.4159,6.330620050430298
1618836953.64401,17.53756,6.346250057220459
1618836953.65963,15.5041,6.361870050430298
1618836953.67526,13.46819,6.377500057220459
1618836953.69088,11.57604,6.393120050430298
1618836953.70651,9.90202,6.408750057220459
1618836953.72213,8.387244,6.424370050430298
1618836953.73776,6.816864,6.440000057220459
1618836953.75339,4.98278,6.45563006401062
1618836953.76901,2.758615,6.471250057220459
1618836953.78464,0.1640177,6.48688006401062
1618836953.80026,-2.615713,6.502500057220459
1618836953.81589,-5.351534,6.51813006401062
1618836953.83151,-7.870556,6.533750057220459
1618836953.84714,-10.15767,6.54938006401062
1618836953.86277,-12.39413,6.565010070800781
1618836953.87839,-14.86372,6.58063006401062
1618836953.89402,-17.8701,6.596260070800781
1618836953.90964,-21.53659,6.61188006401062
1618836953.92527,-25.75767,6.627510070800781
1618836953.94089,-30.17786,6.64313006401062
1618836953.95652,-34.28095,6.658760070800781
1618836953.97215,-37.52906,6.674390077590942
1618836953.98777,-39.46056,6.690010070800781
1618836954.0034,-39.80862,6.705640077590942
1618836954.01902,-38.52303,6.721260070800781
1618836954.03465,-35.76907,6.736890077590942
1618836954.05027,-31.86142,6.752510070800781
1618836954.0659,-27.21578,6.768140077590942
1618836954.08153,-22.24906,6.7837700843811035
1618836954.09715,-17.31239,6.799390077590942
1618836954.11278,-12.65308,6.8150200843811035
1618836954.1284,-8.393883,6.830640077590942
1618836954.14403,-4.617302,6.8462700843811035
1618836954.15965,-1.351715,6.861890077590942
1618836954.17528,1.395645,6.8775200843811035
1618836954.19091,3.622665,6.893150091171265
1618836954.20653,5.342583,6.9087700843811035
1618836954.22216,6.55809,6.924400091171265
1618836954.23778,7.231674,6.9400200843811035
1618836954.25341,7.325691,6.955650091171265
1618836954.26903,6.824165,6.9712700843811035
1618836954.28466,5.796593,6.986900091171265
1618836954.30029,4.4272,7.002530097961426
1618836954.31591,2.964943,7.018150091171265
1618836954.33154,1.653328,7.033780097961426
1618836954.34716,0.6495819,7.049400091171265
1618836954.36279,0.01853943,7.065030097961426
1618836954.37841,-0.3027496,7.080650091171265
1618836954.39404,-0.4451447,7.096280097961426
1618836954.40967,-0.5670547,7.111910104751587
1618836954.42529,-0.8912277,7.127530097961426
1618836954.44092,-1.604187,7.143160104751587
1618836954.45654,-2.872093,7.158780097961426
1618836954.47217,-4.769936,7.174410104751587
1618836954.48779,-7.183304,7.190030097961426
1618836954.50342,-9.85849,7.205660104751587
1618836954.51905,-12.49628,7.221289873123169
1618836954.53467,-14.86282,7.236910104751587
1618836954.5503,-16.92253,7.252539873123169
1618836954.56592,-18.83664,7.268160104751587
1618836954.58155,-20.89629,7.283789873123169
1618836954.59717,-23.37582,7.299410104751587
1618836954.6128,-26.41946,7.315039873123169
1618836954.62843,-29.93903,7.33066987991333
1618836954.64405,-33.63999,7.346289873123169
1618836954.65968,-37.06153,7.36191987991333
1618836954.6753,-39.65479,7.377539873123169
1618836954.69093,-40.92789,7.39316987991333
1618836954.70655,-40.52616,7.408789873123169
1618836954.72218,-38.34837,7.42441987991333
1618836954.73781,-34.56912,7.440049886703491
1618836954.75343,-29.59459,7.45566987991333
1618836954.76906,-23.96762,7.471299886703491
1618836954.78468,-18.24068,7.48691987991333
1618836954.80031,-12.80715,7.502549886703491
1618836954.81593,-7.857384,7.51816987991333
1618836954.83156,-3.386543,7.533799886703491
1618836954.84719,0.7220001,7.549429893493652
1618836954.86281,4.554535,7.565049886703491
1618836954.87844,8.068436,7.580679893493652
1618836954.89406,11.0845,7.596299886703491
1618836954.90969,13.38513,7.611929893493652
1618836954.92531,14.81237,7.627549886703491
1618836954.94094,15.36959,7.643179893493652
1618836954.95657,15.23186,7.6588099002838135
1618836954.97219,14.61093,7.674429893493652
1618836954.98782,13.70083,7.6900599002838135
1618836955.00344,12.56984,7.705679893493652
1618836955.01907,11.19682,7.7213099002838135
1618836955.03469,9.541328,7.736929893493652
1618836955.05032,7.687737,7.7525599002838135
1618836955.06595,5.810532,7.768189907073975
1618836955.08157,4.1595,7.7838099002838135
1618836955.0972,2.912743,7.799439907073975
1618836955.11282,2.059898,7.8150599002838135
1618836955.12845,1.423393,7.830689907073975
1618836955.14408,0.7033844,7.846319913864136
1618836955.1597,-0.352272,7.861939907073975
1618836955.17533,-1.854179,7.877569913864136
1618836955.19095,-3.747917,7.893189907073975
1618836955.20658,-5.937607,7.908819913864136
1618836955.2222,-8.33757,7.924439907073975
1618836955.23783,-10.89507,7.940069913864136
1618836955.25346,-13.52686,7.955699920654297
1618836955.26908,-16.00322,7.971319913864136
1618836955.28471,-17.95676,7.986949920654297
1618836955.30033,-19.03218,8.002569913864136
1618836955.31596,-19.08698,8.018199920654297
1618836955.33158,-18.35335,8.033819913864136
1618836955.34721,-17.4365,8.049449920654297
1618836955.36284,-17.0464,8.065079927444458
1618836955.37846,-17.67364,8.080699920654297
1618836955.39409,-19.3014,8.096329927444458
1618836955.40971,-21.36842,8.111949920654297
1618836955.42534,-22.97989,8.127579927444458
1618836955.44096,-23.23756,8.143199920654297
1618836955.45659,-21.5894,8.158829927444458
1618836955.47222,-17.98156,8.17445993423462
1618836955.48784,-12.85146,8.190079927444458
1618836955.50347,-6.982872,8.20570993423462
1618836955.51909,-1.254539,8.221329927444458
1618836955.53472,3.562523,8.23695993423462
1618836955.55034,7.105972,8.252579927444458
1618836955.56597,9.491661,8.26820993423462
1618836955.5816,11.29249,8.28383994102478
1618836955.59722,13.31023,8.29945993423462
1618836955.61285,16.17307,8.31508994102478
1618836955.62847,20.06127,8.33070993423462
1618836955.6441,24.53444,8.34633994102478
1618836955.65972,28.75507,8.36195993423462
1618836955.67535,31.80391,8.37758994102478
1618836955.69098,33.07612,8.393219947814941
1618836955.7066,32.55142,8.40883994102478
1618836955.72223,30.68462,8.424469947814941
1618836955.73785,28.23491,8.44008994102478
1618836955.75348,26.06455,8.455719947814941
1618836955.7691,24.99539,8.47133994102478
1618836955.78473,25.63752,8.486969947814941
1618836955.80036,28.18522,8.502599954605103
1618836955.81598,32.1732,8.518219947814941
1618836955.83161,36.42774,8.533849954605103
1618836955.84723,39.32415,8.549469947814941
1618836955.86286,39.35063,8.565099954605103
1618836955.87848,35.75681,8.580719947814941
1618836955.89411,28.94266,8.596349954605103
1618836955.90974,20.41541,8.611979961395264
1618836955.92536,12.20226,8.627599954605103
1618836955.94099,6.083023,8.643229961395264
1618836955.95661,2.960014,8.658849954605103
1618836955.97224,2.673187,8.674479961395264
1618836955.98786,4.271614,8.690099954605103
1618836956.00349,6.605476,8.705729961395264
1618836956.01912,8.858665,8.721359968185425
1618836956.03474,10.81748,8.736979961395264
1618836956.05037,12.80169,8.752609968185425
1618836956.06599,15.29943,8.768229961395264
1618836956.08162,18.61599,8.783859968185425
1618836956.09724,22.64849,8.799479961395264
1618836956.11287,26.95557,8.815109968185425
1618836956.1285,31.06382,8.830739974975586
1618836956.14412,34.827,8.846359968185425
1618836956.15975,38.59956,8.861989974975586
1618836956.17537,43.03176,8.877609968185425
1618836956.191,48.52776,8.893239974975586
1618836956.20662,54.68254,8.908859968185425
1618836956.22225,60.08485,8.924489974975586
1618836956.23788,62.58136,8.940119981765747
1618836956.2535,60.18633,8.955739974975586
1618836956.26913,52.07458,8.971369981765747
1618836956.28475,39.11986,8.986989974975586
1618836956.30038,23.62686,9.002619981765747
1618836956.316,8.426117,9.018239974975586
1618836956.33163,-4.315659,9.033869981765747
1618836956.34726,-13.84117,9.049499988555908
1618836956.36288,-20.74355,9.065119981765747
1618836956.37851,-26.29193,9.080749988555908
1618836956.39413,-31.50626,9.096369981765747
1618836956.40976,-36.70009,9.111999988555908
1618836956.42538,-41.51811,9.127619981765747
1618836956.44101,-45.47531,9.143249988555908
1618836956.45664,-48.50188,9.15887999534607
1618836956.47226,-51.09467,9.174499988555908
1618836956.48789,-54.13022,9.19012999534607
1618836956.50351,-58.35788,9.205749988555908
1618836956.51914,-64.13535,9.22137999534607
1618836956.53476,-71.30786,9.236999988555908
1618836956.55039,-79.30441,9.25262999534607
1618836956.56602,-87.26466,9.26826000213623
1618836956.58164,-94.16148,9.28387999534607
1618836956.59727,-98.97078,9.29951000213623
1618836956.61289,-100.9481,9.31512999534607
1618836956.62852,-99.85051,9.33076000213623
1618836956.64414,-96.02858,9.34637999534607
1618836956.65977,-90.30623,9.36201000213623
1618836956.6754,-83.49217,9.377640008926392
1618836956.69102,-75.99141,9.39326000213623
1618836956.70665,-67.69594,9.408890008926392
1618836956.72227,-58.17316,9.42451000213623
1618836956.7379,-47.14085,9.440140008926392
1618836956.75352,-34.74347,9.45576000213623
1618836956.76915,-21.57703,9.471390008926392
1618836956.78478,-8.294067,9.487020015716553
1618836956.8004,4.704742,9.502640008926392
1618836956.81603,17.42476,9.518270015716553
1618836956.83165,30.01892,9.533890008926392
1618836956.84728,42.32526,9.549520015716553
1618836956.8629,53.61264,9.565140008926392
1618836956.87853,62.67307,9.580770015716553
1618836956.89416,68.41245,9.596400022506714
1618836956.90978,70.57939,9.612020015716553
1618836956.92541,70.19518,9.627650022506714
1618836956.94103,69.31911,9.643270015716553
1618836956.95666,70.38472,9.658900022506714
1618836956.97228,75.38376,9.674520015716553
1618836956.98791,85.25679,9.690150022506714
1618836957.00354,99.85005,9.705780029296875
1618836957.01916,118.1626,9.721400022506714
1618836957.03479,138.6988,9.737030029296875
1618836957.05041,159.7164,9.752650022506714
1618836957.06604,179.4099,9.768280029296875
1618836957.08166,196.1158,9.783900022506714
1618836957.09729,208.682,9.799530029296875
1618836957.11292,216.6732,9.815160036087036
1618836957.12854,220.4249,9.830780029296875
1618836957.14417,220.7428,9.846410036087036
1618836957.15979,218.338,9.862030029296875
1618836957.17542,213.3948,9.877660036087036
1618836957.19104,205.4772,9.893280029296875
1618836957.20667,193.8202,9.908910036087036
1618836957.2223,177.7545,9.924540042877197
1618836957.23792,157.0755,9.940160036087036
1618836957.25355,132.0947,9.955790042877197
1618836957.26917,103.5272,9.971410036087036
1618836957.2848,72.40347,9.987040042877197
1618836957.30042,40.03424,10.002660036087036
1618836957.31605,8.172913,10.018290042877197
1618836957.33168,-21.08942,10.033920049667358
1618836957.3473,-45.57056,10.049540042877197
1618836957.36293,-63.43005,10.065170049667358
1618836957.37855,-73.53616,10.080790042877197
1618836957.39418,-75.77533,10.096420049667358
1618836957.40981,-71.03268,10.11205005645752
1618836957.42543,-61.181,10.127670049667358
1618836957.44106,-48.83057,10.14330005645752
1618836957.45668,-37.07257,10.158920049667358
1618836957.47231,-28.89252,10.17455005645752
1618836957.48793,-26.44531,10.190170049667358
1618836957.50356,-30.44431,10.20580005645752
1618836957.51919,-39.92117,10.22143006324768
1618836957.53481,-52.50131,10.23705005645752
1618836957.55044,-65.18793,10.25268006324768
1618836957.56606,-75.30511,10.26830005645752
1618836957.58169,-81.1662,10.28393006324768
1618836957.59731,-82.29468,10.29955005645752
1618836957.61294,-79.24915,10.31518006324768
1618836957.62857,-73.20367,10.330810070037842
1618836957.64419,-65.51965,10.34643006324768
1618836957.65982,-57.46948,10.362060070037842
1618836957.67544,-50.07819,10.37768006324768
1618836957.69107,-43.98346,10.393310070037842
1618836957.70669,-39.39948,10.40893006324768
1618836957.72232,-36.18353,10.424560070037842
1618836957.73795,-34.04211,10.440190076828003
1618836957.75357,-32.85089,10.455810070037842
1618836957.7692,-32.85553,10.471440076828003
1618836957.78482,-34.6601,10.487060070037842
1618836957.80045,-38.95929,10.502690076828003
1618836957.81607,-46.08771,10.518310070037842
1618836957.8317,-55.71838,10.533940076828003
1618836957.84733,-66.83478,10.549570083618164
1618836957.86295,-78.0802,10.565190076828003
1618836957.87858,-88.21545,10.580820083618164
1618836957.8942,-96.58057,10.596440076828003
1618836957.90983,-103.1478,10.612070083618164
1618836957.92545,-108.3154,10.627690076828003
1618836957.94108,-112.5151,10.643320083618164
1618836957.95671,-115.9007,10.658950090408325
1618836957.97233,-118.19,10.674570083618164
1618836957.98796,-118.7479,10.690200090408325
1618836958.00358,-116.7875,10.705820083618164
1618836958.01921,-111.5444,10.721450090408325
1618836958.03483,-102.5111,10.737070083618164
1618836958.05046,-89.6051,10.752700090408325
1618836958.06609,-73.33179,10.768330097198486
1618836958.08171,-54.88519,10.783950090408325
1618836958.09734,-36.07672,10.799580097198486
1618836958.11296,-18.95282,10.815200090408325
1618836958.12859,-5.340942,10.830830097198486
1618836958.14421,3.752502,10.846450090408325
1618836958.15984,8.416138,10.862080097198486
1618836958.17547,9.802429,10.877710103988647
1618836958.19109,9.756226,10.893330097198486
1618836958.20672,10.24536,10.908960103988647
1618836958.22234,12.8241,10.924580097198486
1618836958.23797,18.19641,10.940210103988647
1618836958.25359,25.99146,10.955830097198486
1618836958.26922,34.79602,10.971460103988647
1618836958.28485,42.4314,10.98708987236023
1618836958.30047,46.55615,11.002710103988647
1618836958.3161,45.42065,11.01833987236023
1618836958.33172,38.33881,11.033960103988647
1618836958.34735,25.94586,11.04958987236023
1618836958.36297,9.806763,11.065210103988647
1618836958.3786,-8.070496,11.08083987236023
1618836958.39423,-25.7699,11.09646987915039
1618836958.40985,-41.7627,11.11208987236023
1618836958.42548,-54.90186,11.12771987915039
1618836958.4411,-64.45093,11.14333987236023
1618836958.45673,-70.02441,11.15896987915039
1618836958.47235,-71.77771,11.17458987236023
1618836958.48798,-70.41052,11.19021987915039
1618836958.50361,-67.08667,11.205849885940552
1618836958.51923,-63.06683,11.22146987915039
1618836958.53486,-59.30371,11.237099885940552
1618836958.55048,-56.18634,11.25271987915039
1618836958.56611,-53.59827,11.268349885940552
1618836958.58173,-51.22742,11.28396987915039
1618836958.59736,-48.8316,11.299599885940552
1618836958.61299,-46.43719,11.315229892730713
1618836958.62861,-44.28705,11.330849885940552
1618836958.64424,-42.66022,11.346479892730713
1618836958.65986,-41.68359,11.362099885940552
1618836958.67549,-41.30725,11.377729892730713
1618836958.69111,-41.33087,11.393349885940552
1618836958.70674,-41.4743,11.408979892730713
1618836958.72237,-41.48297,11.424609899520874
1618836958.73799,-41.13159,11.440229892730713
1618836958.75362,-40.31317,11.455859899520874
1618836958.76924,-38.97461,11.471479892730713
1618836958.78487,-37.13916,11.487109899520874
1618836958.80049,-34.91785,11.502729892730713
1618836958.81612,-32.43439,11.518359899520874
1618836958.83175,-29.88336,11.533989906311035
1618836958.84737,-27.46735,11.549609899520874
1618836958.863,-25.37317,11.565239906311035
1618836958.87862,-23.78149,11.580859899520874
1618836958.89425,-22.80481,11.596489906311035
1618836958.90987,-22.46014,11.612109899520874
1618836958.9255,-22.67224,11.627739906311035
1618836958.94113,-23.26093,11.643369913101196
1618836958.95675,-24.02264,11.658989906311035
1618836958.97238,-24.79669,11.674619913101196
1618836958.988,-25.60583,11.690239906311035
1618836959.00363,-26.62036,11.705869913101196
1618836959.01925,-28.1142,11.721489906311035
1618836959.03488,-30.26007,11.737119913101196
1618836959.05051,-33.01428,11.752749919891357
1618836959.06613,-36.06073,11.768369913101196
1618836959.08176,-38.90057,11.783999919891357
1618836959.09738,-41.01776,11.799619913101196
1618836959.11301,-41.97955,11.815249919891357
1618836959.12863,-41.52759,11.830869913101196
1618836959.14426,-39.57794,11.846499919891357
1618836959.15989,-36.16254,11.862129926681519
1618836959.17551,-31.44775,11.877749919891357
1618836959.19114,-25.75159,11.893379926681519
1618836959.20676,-19.50891,11.908999919891357
1618836959.22239,-13.25653,11.924629926681519
1618836959.23801,-7.446167,11.940249919891357
1618836959.25364,-2.326782,11.955879926681519
1618836959.26927,2.147461,11.97150993347168
1618836959.28489,6.249817,11.987129926681519
1618836959.30052,10.31,12.00275993347168
1618836959.31614,14.54639,12.018379926681519
1618836959.33177,18.94873,12.03400993347168
1618836959.34739,23.31366,12.049629926681519
1618836959.36302,27.35907,12.06525993347168
1618836959.37865,30.85406,12.08088994026184
1618836959.39427,33.66449,12.09650993347168
1618836959.4099,35.77368,12.11213994026184
1618836959.42552,37.21545,12.12775993347168
1618836959.44115,38.08691,12.14338994026184
1618836959.45677,38.51355,12.15900993347168
1618836959.4724,38.68231,12.17463994026184
1618836959.48803,38.80548,12.190269947052002
1618836959.50365,39.06183,12.20588994026184
1618836959.51928,39.50439,12.221519947052002
1618836959.5349,40.01544,12.23713994026184
1618836959.55053,40.39832,12.252769947052002
1618836959.56615,40.46832,12.26838994026184
1618836959.58178,40.14771,12.284019947052002
1618836959.59741,39.52612,12.299649953842163
1618836959.61303,38.77057,12.315269947052002
1618836959.62866,38.02173,12.330899953842163
1618836959.64428,37.32013,12.346519947052002
1618836959.65991,36.55774,12.362149953842163
1618836959.67553,35.58398,12.377769947052002
1618836959.69116,34.21692,12.393399953842163
1618836959.70679,32.32788,12.409029960632324
1618836959.72241,29.81757,12.424649953842163
1618836959.73804,26.63614,12.440279960632324
1618836959.75366,22.79175,12.455899953842163
1618836959.76929,18.36215,12.471529960632324
1618836959.78491,13.48639,12.487149953842163
1618836959.80054,8.325714,12.502779960632324
1618836959.81617,3.000275,12.518409967422485
1618836959.83179,-2.443359,12.534029960632324
1618836959.84742,-7.982605,12.549659967422485
1618836959.86304,-13.57852,12.565279960632324
1618836959.87867,-19.0155,12.580909967422485
1618836959.89429,-23.9101,12.596529960632324
1618836959.90992,-27.70709,12.612159967422485
1618836959.92555,-29.84885,12.627789974212646
1618836959.94117,-29.92398,12.643409967422485
1618836959.9568,-27.79855,12.659039974212646
1618836959.97242,-23.66132,12.674659967422485
1618836959.98805,-17.96353,12.690289974212646
1618836960.00368,-11.32053,12.705919981002808
1618836960.0193,-4.318665,12.721539974212646
1618836960.03493,2.521637,12.737169981002808
1618836960.05055,8.871429,12.752789974212646
1618836960.06618,14.55704,12.768419981002808
1618836960.0818,19.52527,12.784039974212646
1618836960.09743,23.77579,12.799669981002808
1618836960.11306,27.32571,12.815299987792969
1618836960.12868,30.16226,12.830919981002808
1618836960.14431,32.3071,12.846549987792969
1618836960.15993,33.80316,12.862169981002808
1618836960.17556,34.73874,12.877799987792969
1618836960.19118,35.24759,12.893419981002808
1618836960.20681,35.4231,12.909049987792969
1618836960.22244,35.34879,12.92467999458313
1618836960.23806,35.03604,12.940299987792969
1618836960.25369,34.49283,12.95592999458313
1618836960.26931,33.72739,12.971549987792969
1618836960.28494,32.77924,12.98717999458313
1618836960.30056,31.66733,13.002799987792969
1618836960.31619,30.42694,13.01842999458313
1618836960.33182,29.05902,13.034060001373291
1618836960.34744,27.55289,13.04967999458313
1618836960.36307,25.87817,13.065310001373291
1618836960.37869,24.02209,13.08092999458313
1618836960.39432,21.98199,13.096560001373291
1618836960.40994,19.80151,13.11217999458313
1618836960.42557,17.5459,13.127810001373291
1618836960.4412,15.27252,13.143440008163452
1618836960.45682,13.00681,13.159060001373291
1618836960.47245,10.72253,13.174690008163452
1618836960.48807,8.344269,13.190310001373291
1618836960.5037,5.776306,13.205940008163452
1618836960.51932,2.971741,13.221560001373291
1618836960.53495,-0.06182861,13.237190008163452
1618836960.55058,-3.267822,13.252820014953613
1618836960.5662,-6.574524,13.268440008163452
1618836960.58183,-9.926514,13.284070014953613
1618836960.59745,-13.30487,13.299690008163452
1618836960.61308,-16.74222,13.315320014953613
1618836960.6287,-20.30811,13.330940008163452
1618836960.64433,-24.13025,13.346570014953613
1618836960.65996,-28.31213,13.362200021743774
1618836960.67558,-32.89386,13.377820014953613
1618836960.69121,-37.70609,13.393450021743774
1618836960.70683,-42.31149,13.409070014953613
1618836960.72246,-46.03827,13.424700021743774
1618836960.73808,-48.13419,13.440320014953613
1618836960.75371,-48.04184,13.455950021743774
1618836960.76934,-45.55408,13.471580028533936
1618836960.78496,-40.88901,13.487200021743774
1618836960.80059,-34.56992,13.502830028533936
1618836960.81621,-27.26758,13.518450021743774
1618836960.83184,-19.53925,13.534080028533936
1618836960.84746,-11.77405,13.549700021743774
1618836960.86309,-4.163574,13.565330028533936
1618836960.87872,3.28775,13.580960035324097
1618836960.89434,10.67966,13.596580028533936
1618836960.90997,18.15744,13.612210035324097
1618836960.92559,25.81674,13.627830028533936
1618836960.94122,33.59921,13.643460035324097
1618836960.95684,41.22763,13.659080028533936
1618836960.97247,48.18738,13.674710035324097
1618836960.9881,53.88278,13.690340042114258
1618836961.00372,57.82062,13.705960035324097
1618836961.01935,59.8472,13.721590042114258
1618836961.03497,60.20154,13.737210035324097
1618836961.0506,59.48828,13.752840042114258
1618836961.06622,58.44284,13.768460035324097
1618836961.08185,57.67398,13.784090042114258
1618836961.09748,57.49878,13.799720048904419
1618836961.1131,57.84189,13.815340042114258
1618836961.12873,58.36258,13.830970048904419
1618836961.14435,58.58469,13.846590042114258
1618836961.15998,58.11319,13.862220048904419
1618836961.1756,56.6944,13.877840042114258
1618836961.19123,54.2677,13.893470048904419
1618836961.20686,50.90308,13.90910005569458
1618836961.22248,46.71661,13.924720048904419
1618836961.23811,41.87607,13.94035005569458
1618836961.25373,36.54263,13.955970048904419
1618836961.26936,30.92676,13.97160005569458
1618836961.28498,25.24838,13.987220048904419
1618836961.30061,19.74466,14.00285005569458
1618836961.31624,14.56192,14.018480062484741
1618836961.33186,9.792877,14.03410005569458
1618836961.34749,5.436951,14.049730062484741
1618836961.36311,1.458069,14.06535005569458
1618836961.37874,-2.170715,14.080980062484741
1618836961.39436,-5.503967,14.09660005569458
1618836961.40999,-8.628906,14.112230062484741
1618836961.42562,-11.71368,14.127860069274902
1618836961.44124,-14.99863,14.143480062484741
1618836961.45687,-18.72711,14.159110069274902
1618836961.47249,-23.01187,14.174730062484741
1618836961.48812,-27.75153,14.190360069274902
1618836961.50374,-32.60974,14.205980062484741
1618836961.51937,-37.08389,14.221610069274902
1618836961.535,-40.64847,14.237240076065063
1618836961.55062,-42.88254,14.252860069274902
1618836961.56625,-43.50388,14.268490076065063
1618836961.58187,-42.40329,14.284110069274902
1618836961.5975,-39.60706,14.299740076065063
1618836961.61312,-35.21884,14.315360069274902
1618836961.62875,-29.48264,14.330990076065063
1618836961.64438,-22.77991,14.346620082855225
1618836961.66,-15.58066,14.362240076065063
1618836961.67563,-8.443695,14.377870082855225
1618836961.69125,-1.856537,14.393490076065063
1618836961.70688,3.844452,14.409120082855225
1618836961.7225,8.501984,14.424740076065063
1618836961.73813,12.11774,14.440370082855225
1618836961.75376,14.79724,14.456000089645386
1618836961.76938,16.65564,14.471620082855225
1618836961.78501,17.77893,14.487250089645386
1618836961.80063,18.25638,14.502870082855225
1618836961.81626,18.16092,14.518500089645386
1618836961.83188,17.58893,14.534120082855225
1618836961.84751,16.64233,14.549750089645386
1618836961.86314,15.40826,14.565380096435547
1618836961.87876,13.95432,14.581000089645386
1618836961.89439,12.33939,14.596630096435547
1618836961.91001,10.62732,14.612250089645386
1618836961.92564,8.906677,14.627880096435547
1618836961.94126,7.330353,14.643500089645386
1618836961.95689,6.040039,14.659130096435547
1618836961.97252,5.12616,14.674760103225708
1618836961.98814,4.604431,14.690380096435547
1618836962.00377,4.375854,14.706010103225708
1618836962.01939,4.260956,14.721630096435547
1618836962.03502,4.041504,14.737260103225708
1618836962.05064,3.538269,14.752880096435547
1618836962.06627,2.633881,14.768510103225708
1618836962.0819,1.333771,14.78413987159729
1618836962.09752,-0.2982178,14.799760103225708
1618836962.11315,-2.097992,14.81538987159729
1618836962.12877,-3.911499,14.831010103225708
1618836962.1444,-5.632874,14.84663987159729
1618836962.16002,-7.219818,14.862260103225708
1618836962.17565,-8.763763,14.87788987159729
1618836962.19128,-10.39972,14.893519878387451
1618836962.2069,-12.31439,14.90913987159729
1618836962.22253,-14.6601,14.924769878387451
1618836962.23815,-17.5358,14.94038987159729
1618836962.25378,-20.96603,14.956019878387451
1618836962.26941,-24.8598,14.971649885177612
1618836962.28503,-29.00198,14.987269878387451
1618836962.30066,-33.01309,15.002899885177612
1618836962.31628,-36.3913,15.018519878387451
1618836962.33191,-38.57437,15.034149885177612
1618836962.34753,-39.1008,15.049769878387451
1618836962.36316,-37.70853,15.065399885177612
1618836962.37879,-34.42999,15.081029891967773
1618836962.39441,-29.56003,15.096649885177612
1618836962.41004,-23.55878,15.112279891967773
1618836962.42566,-16.92194,15.127899885177612
1618836962.44129,-10.10504,15.143529891967773
1618836962.45691,-3.492889,15.159149885177612
1618836962.47254,2.558014,15.174779891967773
1618836962.48817,7.723022,15.190409898757935
1618836962.50379,11.70703,15.206029891967773
1618836962.51942,14.3082,15.221659898757935
1618836962.53504,15.4758,15.237279891967773
1618836962.55067,15.362,15.252909898757935
1618836962.56629,14.25906,15.268529891967773
1618836962.58192,12.55869,15.284159898757935
1618836962.59755,10.56171,15.299789905548096
1618836962.61317,8.472534,15.315409898757935
1618836962.6288,6.319,15.331039905548096
1618836962.64442,4.049438,15.346659898757935
1618836962.66005,1.642883,15.362289905548096
1618836962.67567,-0.8785095,15.377909898757935
1618836962.6913,-3.369659,15.393539905548096
1618836962.70693,-5.620209,15.409169912338257
1618836962.72255,-7.461243,15.424789905548096
1618836962.73818,-8.850098,15.440419912338257
1618836962.7538,-9.865967,15.456039905548096
1618836962.76943,-10.60413,15.471669912338257
1618836962.78505,-11.06879,15.487289905548096
1618836962.80068,-11.18637,15.502919912338257
1618836962.81631,-10.90704,15.518549919128418
1618836962.83193,-10.23511,15.534169912338257
1618836962.84756,-9.220886,15.549799919128418
1618836962.86318,-7.965546,15.565419912338257
1618836962.87881,-6.565948,15.581049919128418
1618836962.89443,-5.10968,15.596669912338257
1618836962.91006,-3.778381,15.612299919128418
1618836962.92569,-2.92804,15.627929925918579
1618836962.94131,-3.158417,15.643549919128418
1618836962.95694,-5.272614,15.659179925918579
1618836962.97256,-9.762817,15.674799919128418
1618836962.98819,-16.33798,15.690429925918579
1618836963.00381,-23.78616,15.706049919128418
1618836963.01944,-30.21408,15.721679925918579
1618836963.03507,-33.67123,15.73730993270874
1618836963.05069,-32.81021,15.752929925918579
1618836963.06632,-27.40729,15.76855993270874
1618836963.08194,-18.44305,15.784179925918579
1618836963.09757,-8.148285,15.79980993270874
1618836963.11319,1.178497,15.815429925918579
1618836963.12882,7.989166,15.83105993270874
1618836963.14445,11.76813,15.846689939498901
1618836963.16007,12.84216,15.86230993270874
1618836963.1757,11.96466,15.877939939498901
1618836963.19132,9.915436,15.89355993270874
1618836963.20695,7.305573,15.909189939498901
1618836963.22257,4.471313,15.92480993270874
1618836963.2382,0.710022,15.940439939498901
1618836963.25383,-4.489441,15.956069946289062
1618836963.26945,-10.97397,15.971689939498901
1618836963.28508,-17.91101,15.987319946289062
1618836963.3007,-24.27328,16.0029399394989
1618836963.31633,-29.20299,16.018569946289062
1618836963.33195,-32.08623,16.0341899394989
1618836963.34758,-32.46056,16.049819946289062
1618836963.36321,-30.13469,16.065449953079224
1618836963.37883,-26.59145,16.081069946289062
1618836963.39446,-23.40109,16.096699953079224
1618836963.41008,-21.763,16.112319946289062
1618836963.42571,-22.53694,16.127949953079224
1618836963.44133,-26.69334,16.143569946289062
1618836963.45696,-35.39275,16.159199953079224
1618836963.47259,-49.46426,16.174829959869385
1618836963.48821,-68.85229,16.190449953079224
1618836963.50384,-92.4079,16.206079959869385
1618836963.51946,-119.6829,16.221699953079224
1618836963.53509,-148.957,16.237329959869385
1618836963.55071,-176.9398,16.252949953079224
1618836963.56634,-199.2845,16.268579959869385
1618836963.58197,-211.9885,16.284209966659546
1618836963.59759,-212.567,16.299829959869385
1618836963.61322,-200.3741,16.315459966659546
1618836963.62884,-176.3558,16.331079959869385
1618836963.64447,-132.6369,16.346709966659546
1618836963.66009,-69.22255,16.362329959869385
1618836963.67572,5.097443,16.377959966659546
1618836963.69135,76.17807,16.393589973449707
1618836963.70697,132.536,16.409209966659546
1618836963.7226,170.2279,16.424839973449707
1618836963.73822,191.5856,16.440459966659546
1618836963.75385,201.4648,16.456089973449707
1618836963.76947,204.368,16.471709966659546
1618836963.7851,202.8947,16.487339973449707
1618836963.80073,196.0761,16.502969980239868
1618836963.81635,182.3794,16.518589973449707
1618836963.83198,161.7029,16.534219980239868
1618836963.8476,136.2627,16.549839973449707
1618836963.86323,109.6725,16.565469980239868
1618836963.87885,85.33,16.581089973449707
1618836963.89448,65.43274,16.596719980239868
1618836963.91011,50.68197,16.61234998703003
1618836963.92573,39.15474,16.627969980239868
1618836963.94136,27.0893,16.64359998703003
1618836963.95698,11.3111,16.659219980239868
1618836963.97261,-9.697794,16.67484998703003
1618836963.98823,-35.72618,16.690469980239868
1618836964.00386,-65.40646,16.70609998703003
1618836964.01949,-96.53396,16.72172999382019
1618836964.03511,-125.7251,16.73734998703003
1618836964.05074,-148.2925,16.75297999382019
1618836964.06636,-159.1253,16.76859998703003
1618836964.08199,-155.3739,16.78422999382019
1618836964.09761,-137.2289,16.79984998703003
1618836964.11324,-108.0215,16.81547999382019
1618836964.12887,-73.13226,16.83111000061035
1618836964.14449,-38.07537,16.84672999382019
1618836964.16012,-6.525902,16.86236000061035
1618836964.17574,19.9934,16.87797999382019
1618836964.19137,41.14968,16.89361000061035
1618836964.20699,58.19315,16.90922999382019
1618836964.22262,72.43522,16.92486000061035
1618836964.23825,84.72699,16.940490007400513
1618836964.25387,95.64861,16.95611000061035
1618836964.2695,106.1707,16.971740007400513
1618836964.28512,117.9623,16.98736000061035
1618836964.30075,132.8983,17.002990007400513
1618836964.31637,152.1021,17.01861000061035
1618836964.332,175.0534,17.034240007400513
1618836964.34763,199.3873,17.049870014190674
1618836964.36325,221.2196,17.065490007400513
1618836964.37888,236.2954,17.081120014190674
1618836964.3945,241.593,17.096740007400513
1618836964.41013,236.0434,17.112370014190674
1618836964.42576,220.3708,17.128000020980835
1618836964.44138,196.2399,17.143620014190674
1618836964.45701,165.3871,17.159250020980835
1618836964.47263,129.3776,17.174870014190674
1618836964.48826,89.92243,17.190500020980835
1618836964.50388,49.14739,17.206120014190674
1618836964.51951,9.690308,17.221750020980835
1618836964.53514,-25.55061,17.237380027770996
1618836964.55076,-54.17454,17.253000020980835
1618836964.56639,-74.95529,17.268630027770996
1618836964.58201,-88.10629,17.284250020980835
1618836964.59764,-94.98074,17.299880027770996
1618836964.61326,-97.37555,17.315500020980835
1618836964.62889,-96.79152,17.331130027770996
1618836964.64452,-94.23986,17.346760034561157
1618836964.66014,-90.27106,17.362380027770996
1618836964.67577,-85.15048,17.378010034561157
1618836964.69139,-79.12314,17.393630027770996
1618836964.70702,-72.44312,17.409260034561157
1618836964.72264,-65.41202,17.424880027770996
1618836964.73827,-58.31694,17.440510034561157
1618836964.7539,-51.39342,17.45614004135132
1618836964.76952,-44.78633,17.471760034561157
1618836964.78515,-38.57869,17.48739004135132
1618836964.80077,-32.82089,17.503010034561157
1618836964.8164,-27.52689,17.51864004135132
1618836964.83202,-22.71672,17.534260034561157
1618836964.84765,-18.39423,17.54989004135132
1618836964.86328,-14.53695,17.56552004814148
1618836964.8789,-11.09251,17.58114004135132
1618836964.89453,-7.906752,17.59677004814148
1618836964.91015,-4.7834,17.61239004135132
1618836964.92578,-1.58867,17.62802004814148
1618836964.9414,1.647789,17.64364004135132
1618836964.95703,4.708848,17.65927004814148
1618836964.97266,7.208194,17.67490005493164
1618836964.98828,8.797306,17.69052004814148
1618836965.00391,9.254944,17.70615005493164
1618836965.01953,8.57135,17.72177004814148
1618836965.03516,6.856887,17.73740005493164
1618836965.05078,4.299796,17.75302004814148
1618836965.06641,1.059149,17.76865005493164
1618836965.08204,-2.722253,17.7842800617218
1618836965.09766,-6.834296,17.79990005493164
1618836965.11329,-11.02299,17.8155300617218
1618836965.12891,-15.01803,17.83115005493164
1618836965.14454,-18.65646,17.8467800617218
1618836965.16016,-21.97512,17.86240005493164
1618836965.17579,-25.20122,17.8780300617218
1618836965.19142,-28.65292,17.893660068511963
1618836965.20704,-32.51248,17.9092800617218
1618836965.22267,-36.75906,17.924910068511963
1618836965.23829,-41.13115,17.9405300617218
1618836965.25392,-45.17608,17.956160068511963
1618836965.26954,-48.42239,17.9717800617218
1618836965.28517,-50.42371,17.987410068511963
1618836965.3008,-50.79025,18.003040075302124
1618836965.31642,-49.28295,18.018660068511963
1618836965.33205,-45.84485,18.034290075302124
1618836965.34767,-40.71861,18.049910068511963
1618836965.3633,-34.43094,18.065540075302124
1618836965.37892,-27.65888,18.081160068511963
1618836965.39455,-21.05344,18.096790075302124
1618836965.41018,-15.05805,18.112420082092285
1618836965.4258,-9.813793,18.128040075302124
1618836965.44143,-5.277381,18.143670082092285
1618836965.45705,-1.386675,18.159290075302124
1618836965.47268,1.822701,18.174920082092285
1618836965.4883,4.220602,18.190540075302124
1618836965.50393,5.665703,18.206170082092285
1618836965.51956,6.186014,18.221800088882446
1618836965.53518,6.067984,18.237420082092285
1618836965.55081,5.76626,18.253050088882446
1618836965.56643,5.742455,18.268670082092285
1618836965.58206,6.254351,18.284300088882446
1618836965.59768,7.312201,18.299920082092285
1618836965.61331,8.701162,18.315550088882446
1618836965.62894,10.15653,18.331180095672607
1618836965.64456,11.45941,18.346800088882446
1618836965.66019,12.52523,18.362430095672607
1618836965.67581,13.36806,18.378050088882446
1618836965.69144,14.03618,18.393680095672607
1618836965.70706,14.56496,18.409300088882446
1618836965.72269,14.92824,18.424930095672607
1618836965.73832,15.06725,18.44056010246277
1618836965.75394,14.91592,18.456180095672607
1618836965.76957,14.40652,18.47181010246277
1618836965.78519,13.47781,18.487430095672607
1618836965.80082,12.10759,18.50306010246277
1618836965.81644,10.28836,18.518680095672607
1618836965.83207,8.056755,18.53431010246277
1618836965.8477,5.51804,18.54994010925293
1618836965.86332,2.759178,18.56556010246277
1618836965.87895,-0.1365128,18.58119010925293
1618836965.89457,-3.176773,18.59681010246277
1618836965.9102,-6.450111,18.61244010925293
1618836965.92582,-10.09704,18.62806010246277
1618836965.94145,-14.24197,18.64369010925293
1618836965.95708,-18.9125,18.65931987762451
1618836965.9727,-23.94421,18.67494010925293
1618836965.98833,-28.95638,18.69056987762451
1618836966.00395,-33.38398,18.70619010925293
1618836966.01958,-36.56847,18.72181987762451
1618836966.0352,-37.88837,18.73744010925293
1618836966.05083,-36.91467,18.75306987762451
1618836966.06646,-33.48838,18.768699884414673
1618836966.08208,-27.75606,18.78431987762451
1618836966.09771,-20.11465,18.799949884414673
1618836966.11333,-11.15174,18.81556987762451
1618836966.12896,-1.544876,18.831199884414673
1618836966.14458,8.024742,18.84681987762451
1618836966.16021,16.95168,18.862449884414673
1618836966.17584,24.76482,18.878079891204834
1618836966.19146,31.19218,18.893699884414673
1618836966.20709,36.16455,18.909329891204834
1618836966.22271,39.86626,18.924949884414673
1618836966.23834,42.58823,18.940579891204834
1618836966.25396,44.68698,18.956199884414673
1618836966.26959,46.45137,18.971829891204834
1618836966.28522,48.03445,18.987459897994995
1618836966.30084,49.43483,19.003079891204834
1618836966.31647,50.55257,19.018709897994995
1618836966.33209,51.22676,19.034329891204834
1618836966.34772,51.31017,19.049959897994995
1618836966.36334,50.74162,19.065579891204834
1618836966.37897,49.55222,19.081209897994995
1618836966.3946,47.87215,19.096839904785156
1618836966.41022,45.92868,19.112459897994995
1618836966.42585,43.96686,19.128089904785156
1618836966.44147,42.17593,19.143709897994995
1618836966.4571,40.62678,19.159339904785156
1618836966.47272,39.22216,19.174959897994995
1618836966.48835,37.75436,19.190589904785156
1618836966.50398,35.99997,19.206219911575317
1618836966.5196,33.79988,19.221839904785156
1618836966.53523,31.1357,19.237469911575317
1618836966.55085,28.08936,19.253089904785156
1618836966.56648,24.81064,19.268719911575317
1618836966.5821,21.4018,19.284339904785156
1618836966.59773,17.9604,19.299969911575317
1618836966.61336,14.49981,19.31559991836548
1618836966.62898,11.05379,19.331219911575317
1618836966.64461,7.658638,19.34684991836548
1618836966.66023,4.360214,19.362469911575317
1618836966.67586,1.198364,19.37809991836548
1618836966.69148,-1.824303,19.393719911575317
1618836966.70711,-4.761971,19.40934991836548
1618836966.72274,-7.690338,19.42497992515564
1618836966.73836,-10.72289,19.44059991836548
1618836966.75399,-14.01541,19.45622992515564
1618836966.76961,-17.73756,19.47184991836548
1618836966.78524,-22.0184,19.48747992515564
1618836966.80086,-26.88106,19.50309991836548
1618836966.81649,-32.12973,19.51872992515564
1618836966.83212,-37.30234,19.5343599319458
1618836966.84774,-41.74509,19.54997992515564
1618836966.86337,-44.69819,19.5656099319458
1618836966.87899,-45.4646,19.58122992515564
1618836966.89462,-43.61646,19.5968599319458
1618836966.91024,-39.09523,19.61247992515564
1618836966.92587,-32.24469,19.6281099319458
1618836966.9415,-23.77765,19.643739938735962
1618836966.95712,-14.55675,19.6593599319458
1618836966.97275,-5.404243,19.674989938735962
1618836966.98837,3.063766,19.6906099319458
1618836967.004,10.55484,19.706239938735962
1618836967.01962,16.99501,19.7218599319458
1618836967.03525,22.49089,19.737489938735962
1618836967.05088,27.11552,19.753119945526123
1618836967.0665,30.91407,19.768739938735962
1618836967.08213,33.84403,19.784369945526123
1618836967.09775,35.83652,19.799989938735962
1618836967.11338,36.83384,19.815619945526123
1618836967.12901,36.83656,19.831249952316284
1618836967.14463,35.91013,19.846869945526123
1618836967.16026,34.19487,19.862499952316284
1618836967.17588,31.89957,19.878119945526123
1618836967.19151,29.31054,19.893749952316284
1618836967.20713,26.73555,19.909369945526123
1618836967.22276,24.42122,19.924999952316284
1618836967.23839,22.51985,19.940629959106445
1618836967.25401,21.03178,19.956249952316284
1618836967.26964,19.85122,19.971879959106445
1618836967.28526,18.83651,19.987499952316284
1618836967.30089,17.85978,20.003129959106445
1618836967.31651,16.81936,20.018749952316284
1618836967.33214,15.65041,20.034379959106445
1618836967.34777,14.24767,20.050009965896606
1618836967.36339,12.50803,20.065629959106445
1618836967.37902,10.36282,20.081259965896606
1618836967.39464,7.823669,20.096879959106445
1618836967.41027,4.998368,20.112509965896606
1618836967.42589,2.078912,20.128129959106445
1618836967.44152,-0.7696228,20.143759965896606
1618836967.45715,-3.496842,20.159389972686768
1618836967.47277,-6.167445,20.175009965896606
1618836967.4884,-8.945558,20.190639972686768
1618836967.50402,-11.97985,20.206259965896606
1618836967.51965,-15.32511,20.221889972686768
1618836967.53527,-18.88239,20.237509965896606
1618836967.5509,-22.4546,20.253139972686768
1618836967.56653,-25.85442,20.26876997947693
1618836967.58215,-28.97019,20.284389972686768
1618836967.59778,-31.80838,20.30001997947693
1618836967.6134,-34.53443,20.315639972686768
1618836967.62903,-37.36252,20.33126997947693
1618836967.64465,-40.51828,20.346889972686768
1618836967.66028,-44.17707,20.36251997947693
1618836967.67591,-48.42978,20.37814998626709
1618836967.69153,-53.20273,20.39376997947693
1618836967.70716,-58.20412,20.40939998626709
1618836967.72278,-62.89077,20.42501997947693
1618836967.73841,-66.5276,20.44064998626709
1618836967.75403,-68.35263,20.45626997947693
1618836967.76966,-67.80008,20.47189998626709
1618836967.78529,-64.68923,20.48752999305725
1618836967.80091,-59.30259,20.50314998626709
1618836967.81654,-52.29654,20.51877999305725
1618836967.83216,-44.46863,20.53439998626709
1618836967.84779,-36.5324,20.55002999305725
1618836967.86341,-28.93604,20.56564998626709
1618836967.87904,-21.88912,20.58127999305725
1618836967.89467,-15.41827,20.596909999847412
1618836967.91029,-9.570837,20.61252999305725
1618836967.92592,-4.399761,20.628159999847412
1618836967.94154,0.04065514,20.64377999305725
1618836967.95717,3.702126,20.659409999847412
1618836967.97279,6.652067,20.67502999305725
1618836967.98842,8.958855,20.690659999847412
1618836968.00405,10.66485,20.706290006637573
1618836968.01967,11.75138,20.721909999847412
1618836968.0353,12.15887,20.737540006637573
1618836968.05092,11.9322,20.753159999847412
1618836968.06655,11.25743,20.768790006637573
1618836968.08217,10.46402,20.784409999847412
1618836968.0978,9.908485,20.800040006637573
1618836968.11343,9.840044,20.815670013427734
1618836968.12905,10.26892,20.831290006637573
1618836968.14468,11.02451,20.846920013427734
1618836968.1603,11.87452,20.862540006637573
1618836968.17593,12.62206,20.878170013427734
1618836968.19155,13.17842,20.893790006637573
1618836968.20718,13.52689,20.909420013427734
1618836968.22281,13.68975,20.925050020217896
1618836968.23843,13.67662,20.940670013427734
1618836968.25406,13.49889,20.956300020217896
1618836968.26968,13.15531,20.971920013427734
1618836968.28531,12.63484,20.987550020217896
1618836968.30093,11.93816,21.003170013427734
1618836968.31656,11.00751,21.018800020217896
1618836968.33219,9.804193,21.034430027008057
1618836968.34781,8.263473,21.050050020217896
1618836968.36344,6.358943,21.065680027008057
1618836968.37906,4.06669,21.081300020217896
1618836968.39469,1.409919,21.096930027008057
1618836968.41031,-1.536172,21.112550020217896
1618836968.42594,-4.628844,21.128180027008057
1618836968.44157,-7.662839,21.143810033798218
1618836968.45719,-10.40129,21.159430027008057
1618836968.47282,-12.68462,21.175060033798218
1618836968.48844,-14.51995,21.190680027008057
1618836968.50407,-16.16309,21.206310033798218
1618836968.51969,-18.03422,21.221930027008057
1618836968.53532,-20.53686,21.237560033798218
1618836968.55095,-23.9114,21.25319004058838
1618836968.56657,-28.09432,21.268810033798218
1618836968.5822,-32.71928,21.28444004058838
1618836968.59782,-37.23695,21.300060033798218
1618836968.61345,-41.00863,21.31569004058838
1618836968.62907,-43.41474,21.331310033798218
1618836968.6447,-43.9446,21.34694004058838
1618836968.66033,-42.23415,21.36257004737854
1618836968.67595,-38.13982,21.37819004058838
1618836968.69158,-31.8513,21.39382004737854
1618836968.7072,-23.88632,21.40944004058838
1618836968.72283,-15.0403,21.42507004737854
1618836968.73845,-6.187202,21.44069004058838
1618836968.75408,1.937571,21.45632004737854
1618836968.76971,8.914268,21.4719500541687
1618836968.78533,14.65392,21.48757004737854
1618836968.80096,19.33987,21.5032000541687
1618836968.81658,23.21782,21.51882004737854
1618836968.83221,26.46446,21.5344500541687
1618836968.84783,29.11128,21.55007004737854
1618836968.86346,31.08156,21.5657000541687
1618836968.87909,32.31002,21.581330060958862
1618836968.89471,32.83786,21.5969500541687
1618836968.91034,32.8298,21.612580060958862
1618836968.92596,32.50591,21.6282000541687
1618836968.94159,32.07718,21.643830060958862
1618836968.95721,31.65796,21.6594500541687
1618836968.97284,31.24325,21.675080060958862
1618836968.98847,30.79958,21.690710067749023
1618836969.00409,30.31123,21.706330060958862
1618836969.01972,29.80824,21.721960067749023
1618836969.03534,29.40246,21.737580060958862
1618836969.05097,29.18002,21.753210067749023
1618836969.06659,29.12008,21.768830060958862
1618836969.08222,29.1061,21.784460067749023
1618836969.09785,28.93981,21.800090074539185
1618836969.11347,28.43726,21.815710067749023
1618836969.1291,27.53944,21.831340074539185
1618836969.14472,26.2706,21.846960067749023
1618836969.16035,24.72627,21.862590074539185
1618836969.17597,22.95639,21.878210067749023
1618836969.1916,20.9836,21.893840074539185
1618836969.20723,18.78029,21.909470081329346
1618836969.22285,16.3922,21.925090074539185
1618836969.23848,13.94387,21.940720081329346
1618836969.2541,11.60657,21.956340074539185
1618836969.26973,9.483501,21.971970081329346
1618836969.28535,7.556042,21.987590074539185
1618836969.30098,5.651562,22.003220081329346
1618836969.31661,3.527714,22.018850088119507
1618836969.33223,1.024158,22.034470081329346
1618836969.34786,-1.900749,22.050100088119507
1618836969.36348,-5.131641,22.065720081329346
1618836969.37911,-8.518307,22.081350088119507
1618836969.39474,-11.9497,22.096980094909668
1618836969.41036,-15.36035,22.112600088119507
1618836969.42599,-18.74864,22.128230094909668
1618836969.44161,-22.13182,22.143850088119507
1618836969.45724,-25.55223,22.159480094909668
1618836969.47286,-29.13276,22.175100088119507
1618836969.48849,-33.04131,22.190730094909668
1618836969.50412,-37.40356,22.20636010169983
1618836969.51974,-42.16189,22.221980094909668
1618836969.53537,-46.91885,22.23761010169983
1618836969.55099,-50.95573,22.253230094909668
1618836969.56662,-53.429,22.26886010169983
1618836969.58224,-53.65895,22.284480094909668
1618836969.59787,-51.37628,22.30011010169983
1618836969.6135,-46.82065,22.31574010848999
1618836969.62912,-40.59964,22.33136010169983
1618836969.64475,-33.47009,22.34699010848999
1618836969.66037,-26.02745,22.36261010169983
1618836969.676,-18.6534,22.37824010848999
1618836969.69162,-11.51583,22.39386010169983
1618836969.70725,-4.712734,22.40949010848999
1618836969.72288,1.643345,22.425119876861572
1618836969.7385,7.419388,22.44074010848999
1618836969.75413,12.4773,22.456369876861572
1618836969.76975,16.75805,22.47199010848999
1618836969.78538,20.27929,22.487619876861572
1618836969.801,23.14223,22.50324010848999
1618836969.81663,25.43886,22.518869876861572
1618836969.83226,27.23405,22.534499883651733
1618836969.84788,28.55951,22.550119876861572
1618836969.86351,29.44936,22.565749883651733
1618836969.87913,29.93913,22.581369876861572
1618836969.89476,30.10809,22.596999883651733
1618836969.91038,30.08901,22.612619876861572
1618836969.92601,30.01058,22.628249883651733
1618836969.94164,29.97337,22.643879890441895
1618836969.95726,30.00346,22.659499883651733
1618836969.97289,30.06277,22.675129890441895
1618836969.98851,30.03715,22.690749883651733
1618836970.00414,29.8026,22.706379890441895
1618836970.01976,29.26924,22.721999883651733
1618836970.03539,28.43446,22.737629890441895
1618836970.05102,27.36747,22.753259897232056
1618836970.06664,26.15395,22.768879890441895
1618836970.08227,24.85416,22.784509897232056
1618836970.09789,23.42406,22.800129890441895
1618836970.11352,21.76958,22.815759897232056
1618836970.12914,19.7827,22.831379890441895
1618836970.14477,17.41711,22.847009897232056
1618836970.1604,14.72101,22.862639904022217
1618836970.17602,11.85282,22.878259897232056
1618836970.19165,9.032654,22.893889904022217
1618836970.20727,6.425545,22.909509897232056
1618836970.2229,4.122887,22.925139904022217
1618836970.23852,2.080925,22.940759897232056
1618836970.25415,0.1409073,22.956389904022217
1618836970.26978,-1.918465,22.972019910812378
1618836970.2854,-4.282082,22.987639904022217
1618836970.30103,-7.067696,23.003269910812378
1618836970.31665,-10.22806,23.018889904022217
1618836970.33228,-13.62124,23.034519910812378
1618836970.3479,-17.06087,23.050139904022217
1618836970.36353,-20.44631,23.065769910812378
1618836970.37916,-23.80827,23.08139991760254
1618836970.39478,-27.32877,23.097019910812378
1618836970.41041,-31.2364,23.11264991760254
1618836970.42603,-35.64015,23.128269910812378
1618836970.44166,-40.41368,23.14389991760254
1618836970.45728,-45.08849,23.159519910812378
1618836970.47291,-48.94809,23.17514991760254
1618836970.48854,-51.2112,23.1907799243927
1618836970.50416,-51.26125,23.20639991760254
1618836970.51979,-48.87886,23.2220299243927
1618836970.53541,-44.29105,23.23764991760254
1618836970.55104,-38.06951,23.2532799243927
1618836970.56666,-30.92445,23.26889991760254
1618836970.58229,-23.50601,23.2845299243927
1618836970.59792,-16.25542,23.30015993118286
1618836970.61354,-9.434738,23.3157799243927
1618836970.62917,-3.18911,23.33140993118286
1618836970.64479,2.36618,23.3470299243927
1618836970.66042,7.079597,23.36265993118286
1618836970.67604,10.82446,23.3782799243927
1618836970.69167,13.57198,23.39390993118286
1618836970.7073,15.40543,23.409539937973022
1618836970.72292,16.53906,23.42515993118286
1618836970.73855,17.19602,23.440789937973022
1618836970.75417,17.53188,23.45640993118286
1618836970.7698,17.57412,23.472039937973022
1618836970.78542,17.29162,23.48765993118286
1618836970.80105,16.69123,23.503289937973022
1618836970.81668,15.8693,23.518919944763184
1618836970.8323,15.0204,23.534539937973022
1618836970.84793,14.38924,23.550169944763184
1618836970.86355,14.08871,23.565789937973022
1618836970.87918,14.09184,23.581419944763184
1618836970.8948,14.22784,23.597039937973022
1618836970.91043,14.25721,23.612669944763184
1618836970.92606,14.00796,23.628299951553345
1618836970.94168,13.37082,23.643919944763184
1618836970.95731,12.32626,23.659549951553345
1618836970.97293,10.88126,23.675169944763184
1618836970.98856,9.031982,23.690799951553345
1618836971.00418,6.75415,23.706419944763184
1618836971.01981,4.035011,23.722049951553345
1618836971.03544,0.9270477,23.737679958343506
1618836971.05106,-2.488235,23.753299951553345
1618836971.06669,-6.080345,23.768929958343506
1618836971.08231,-9.756363,23.784549951553345
1618836971.09794,-13.50092,23.800179958343506
1618836971.11356,-17.39423,23.815799951553345
1618836971.12919,-21.53006,23.831429958343506
1618836971.14482,-26.02988,23.847059965133667
1618836971.16044,-30.97707,23.862679958343506
1618836971.17607,-36.44639,23.878309965133667
1618836971.19169,-42.5449,23.893929958343506
1618836971.20732,-49.38063,23.909559965133667
1618836971.22294,-57.05727,23.925179958343506
1618836971.23857,-65.59943,23.940809965133667
1618836971.2542,-74.93491,23.956439971923828
1618836971.26982,-84.86304,23.972059965133667
1618836971.28545,-95.13828,23.987689971923828
1618836971.30107,-105.4001,24.003309965133667
1618836971.3167,-115.1734,24.018939971923828
1618836971.33232,-123.8098,24.034559965133667
1618836971.34795,-130.4441,24.050189971923828
1618836971.36358,-134.1082,24.06581997871399
1618836971.3792,-133.9146,24.081439971923828
1618836971.39483,-129.2688,24.09706997871399
1618836971.41045,-120.1619,24.112689971923828
1618836971.42608,-107.1784,24.12831997871399
1618836971.4417,-91.46559,24.143939971923828
1618836971.45733,-74.56285,24.15956997871399
1618836971.47296,-58.06728,24.17519998550415
1618836971.48858,-43.33095,24.19081997871399
1618836971.50421,-31.25676,24.20644998550415
1618836971.51983,-22.24164,24.22206997871399
1618836971.53546,-16.13486,24.23769998550415
1618836971.55109,-12.27036,24.25332999229431
1618836971.56671,-9.309769,24.26894998550415
1618836971.58234,-5.165192,24.28457999229431
1618836971.59796,2.7397,24.30019998550415
1618836971.61359,16.95737,24.31582999229431
1618836971.62921,39.19574,24.33144998550415
1618836971.64484,69.53587,24.34707999229431
1618836971.66047,106.3399,24.362709999084473
1618836971.67609,146.8147,24.37832999229431
1618836971.69172,188.0747,24.393959999084473
1618836971.70734,228.0273,24.40957999229431
1618836971.72297,265.5448,24.425209999084473
1618836971.73859,299.8915,24.44082999229431
1618836971.75422,329.9141,24.456459999084473
1618836971.76985,353.653,24.472090005874634
1618836971.78547,368.722,24.487709999084473
1618836971.8011,373.3352,24.503340005874634
1618836971.81672,367.1804,24.518959999084473
1618836971.83235,351.5233,24.534590005874634
1618836971.84797,328.4871,24.550209999084473
1618836971.8636,299.9684,24.565840005874634
1618836971.87923,267.0119,24.581470012664795
1618836971.89485,230.1603,24.597090005874634
1618836971.91048,190.3873,24.612720012664795
1618836971.9261,149.9748,24.628340005874634
1618836971.94173,112.4873,24.643970012664795
1618836971.95735,81.63863,24.659590005874634
1618836971.97298,59.6619,24.675220012664795
1618836971.98861,46.17035,24.690850019454956
1618836972.00423,38.31693,24.706470012664795
1618836972.01986,32.10472,24.722100019454956
1618836972.03548,24.29706,24.737720012664795
1618836972.05111,13.65459,24.753350019454956
1618836972.06673,1.027115,24.768970012664795
1618836972.08236,-11.63033,24.784600019454956
1618836972.09799,-22.59845,24.800230026245117
1618836972.11361,-31.19951,24.815850019454956
1618836972.12924,-37.76006,24.831480026245117
1618836972.14486,-42.91873,24.847100019454956
1618836972.16049,-46.9891,24.862730026245117
1618836972.17611,-49.72103,24.878350019454956
1618836972.19174,-50.75189,24.893980026245117
1618836972.20737,-50.09896,24.90961003303528
1618836972.22299,-48.50637,24.925230026245117
1618836972.23862,-47.2094,24.94086003303528
1618836972.25424,-47.4378,24.956480026245117
1618836972.26987,-49.81973,24.97211003303528
1618836972.28549,-54.14092,24.987730026245117
1618836972.30112,-59.4719,25.00336003303528
1618836972.31675,-64.63557,25.01899003982544
1618836972.33237,-68.71156,25.03461003303528
1618836972.348,-71.32459,25.05024003982544
1618836972.36362,-72.6757,25.06586003303528
1618836972.37925,-73.29984,25.08149003982544
1618836972.39487,-73.7779,25.09711003303528
1618836972.4105,-74.45342,25.11274003982544
1618836972.42613,-75.37539,25.1283700466156
1618836972.44175,-76.40991,25.14399003982544
1618836972.45738,-77.35121,25.1596200466156
1618836972.473,-78.06613,25.17524003982544
1618836972.48863,-78.51717,25.1908700466156
1618836972.50425,-78.74617,25.20649003982544
1618836972.51988,-78.80054,25.2221200466156
1618836972.53551,-78.76091,25.23775005340576
1618836972.55113,-78.68604,25.2533700466156
1618836972.56676,-78.6254,25.26900005340576
1618836972.58238,-78.5894,25.2846200466156
1618836972.59801,-78.51874,25.30025005340576
1618836972.61363,-78.32574,25.3158700466156
1618836972.62926,-77.91649,25.33150005340576
1618836972.64489,-77.29002,25.347130060195923
1618836972.66051,-76.56848,25.36275005340576
1618836972.67614,-75.97931,25.378380060195923
1618836972.69176,-75.7253,25.39400005340576
1618836972.70739,-75.91911,25.409630060195923
1618836972.72301,-76.56592,25.42525005340576
1618836972.73864,-77.5728,25.440880060195923
1618836972.75427,-78.83707,25.456510066986084
1618836972.76989,-80.30008,25.472130060195923
1618836972.78552,-81.97072,25.487760066986084
1618836972.80114,-83.85335,25.503380060195923
1618836972.81677,-85.99004,25.519010066986084
1618836972.83239,-88.40347,25.534630060195923
1618836972.84802,-91.16299,25.550260066986084
1618836972.86365,-94.35977,25.565890073776245
1618836972.87927,-98.06241,25.581510066986084
1618836972.8949,-102.2197,25.597140073776245
1618836972.91052,-106.4836,25.612760066986084
1618836972.92615,-110.1835,25.628390073776245
1618836972.94177,-112.4071,25.644010066986084
1618836972.9574,-112.2901,25.659640073776245
1618836972.97303,-109.3049,25.675270080566406
1618836972.98865,-103.4376,25.690890073776245
1618836973.00428,-95.22878,25.706520080566406
1618836973.0199,-85.50826,25.722140073776245
1618836973.03553,-75.18022,25.737770080566406
1618836973.05115,-64.91664,25.753390073776245
1618836973.06678,-55.11263,25.769020080566406
1618836973.08241,-45.86679,25.784650087356567
1618836973.09803,-37.15202,25.800270080566406
1618836973.11366,-28.94595,25.815900087356567
1618836973.12928,-21.33003,25.831520080566406
1618836973.14491,-14.48735,25.847150087356567
1618836973.16053,-8.629135,25.862770080566406
1618836973.17616,-3.932236,25.878400087356567
1618836973.19179,-0.4176941,25.89403009414673
1618836973.20741,2.042114,25.909650087356567
1618836973.22304,3.756042,25.92528009414673
1618836973.23866,5.06926,25.940900087356567
1618836973.25429,6.282547,25.95653009414673
1618836973.26991,7.517609,25.972150087356567
1618836973.28554,8.704895,25.98778009414673
1618836973.30117,9.648041,26.00341010093689
1618836973.31679,10.16272,26.01903009414673
1618836973.33242,10.20299,26.03466010093689
1618836973.34804,9.919144,26.05028009414673
1618836973.36367,9.656235,26.06591010093689
1618836973.37929,9.851486,26.08153009414673
1618836973.39492,10.8896,26.09716010093689
1618836973.41055,12.95589,26.11279010772705
1618836973.42617,15.93902,26.12841010093689
1618836973.4418,19.39323,26.14404010772705
1618836973.45742,22.57903,26.15966010093689
1618836973.47305,24.59164,26.17529010772705
1618836973.48867,24.54385,26.19091010093689
1618836973.5043,21.82543,26.20654010772705
1618836973.51993,16.35059,26.222169876098633
1618836973.53555,8.75877,26.23779010772705
1618836973.55118,0.4096031,26.253419876098633
1618836973.5668,-6.892326,26.26904010772705
1618836973.58243,-11.43103,26.284669876098633
1618836973.59805,-12.21647,26.30029010772705
1618836973.61368,-9.328419,26.315919876098633
1618836973.62931,-3.881008,26.331549882888794
1618836973.64493,2.5178,26.347169876098633
1618836973.66056,8.493817,26.362799882888794
1618836973.67618,13.45555,26.378419876098633
1618836973.69181,17.59071,26.394049882888794
1618836973.70743,21.48318,26.409669876098633
1618836973.72306,25.48628,26.425299882888794
1618836973.73869,29.39259,26.440929889678955
1618836973.75431,32.56041,26.456549882888794
1618836973.76994,34.38628,26.472179889678955
1618836973.78556,34.76234,26.487799882888794
1618836973.80119,34.20665,26.503429889678955
1618836973.81681,33.60507,26.519049882888794
1618836973.83244,33.71638,26.534679889678955
1618836973.84807,34.92559,26.550309896469116
1618836973.86369,37.16218,26.565929889678955
1618836973.87932,40.11648,26.581559896469116
1618836973.89494,43.38516,26.597179889678955
1618836973.91057,46.61173,26.612809896469116
1618836973.92619,49.36322,26.628429889678955
1618836973.94182,51.1479,26.644059896469116
1618836973.95745,51.4465,26.659689903259277
1618836973.97307,49.87561,26.675309896469116
1618836973.9887,46.34077,26.690939903259277
1618836974.00432,41.01225,26.706559896469116
1618836974.01995,34.2274,26.722189903259277
1618836974.03557,26.32478,26.737809896469116
1618836974.0512,17.56381,26.753439903259277
1618836974.06683,8.191559,26.76906991004944
1618836974.08245,-1.49707,26.784689903259277
1618836974.09808,-11.08414,26.80031991004944
1618836974.1137,-20.13496,26.815939903259277
1618836974.12933,-28.26271,26.83156991004944
1618836974.14495,-35.26482,26.847189903259277
1618836974.16058,-41.16748,26.86281991004944
1618836974.17621,-46.17189,26.8784499168396
1618836974.19183,-50.54893,26.89406991004944
1618836974.20746,-54.5432,26.9096999168396
1618836974.22308,-58.24825,26.92531991004944
1618836974.23871,-61.61037,26.9409499168396
1618836974.25434,-64.46169,26.95657992362976
1618836974.26996,-66.58014,26.9721999168396
1618836974.28559,-67.87485,26.98782992362976
1618836974.30121,-68.36217,27.0034499168396
1618836974.31684,-68.20523,27.01907992362976
1618836974.33246,-67.63622,27.0346999168396
1618836974.34809,-66.8889,27.05032992362976
1618836974.36372,-66.18784,27.065959930419922
1618836974.37934,-65.73033,27.08157992362976
1618836974.39497,-65.7717,27.097209930419922
1618836974.41059,-66.56546,27.11282992362976
1618836974.42622,-68.25055,27.128459930419922
1618836974.44184,-70.64789,27.14407992362976
1618836974.45747,-73.12665,27.159709930419922
1618836974.4731,-74.61664,27.175339937210083
1618836974.48872,-73.85669,27.190959930419922
1618836974.50435,-69.78363,27.206589937210083
1618836974.51997,-61.95679,27.222209930419922
1618836974.5356,-50.70877,27.237839937210083
1618836974.55122,-37.0676,27.253459930419922
1618836974.56685,-22.39236,27.269089937210083
1618836974.58248,-7.900818,27.284719944000244
1618836974.5981,5.608063,27.300339937210083
1618836974.61373,17.80264,27.315969944000244
1618836974.62935,28.64917,27.331589937210083
1618836974.64498,38.14731,27.347219944000244
1618836974.6606,46.17032,27.362839937210083
1618836974.67623,52.50403,27.378469944000244
1618836974.69186,57.00137,27.394099950790405
1618836974.70748,59.72583,27.409719944000244
1618836974.72311,60.99667,27.425349950790405
1618836974.73873,61.2789,27.440969944000244
1618836974.75436,60.9791,27.456599950790405
1618836974.76998,60.37775,27.472219944000244
1618836974.78561,59.59451,27.487849950790405
1618836974.80124,58.65759,27.503479957580566
1618836974.81686,57.61011,27.519099950790405
1618836974.83249,56.5007,27.534729957580566
1618836974.84811,55.39459,27.550349950790405
1618836974.86374,54.30179,27.565979957580566
1618836974.87936,53.19632,27.581599950790405
1618836974.89499,52.03958,27.597229957580566
1618836974.91062,50.77005,27.612859964370728
1618836974.92624,49.31207,27.628479957580566
1618836974.94187,47.53351,27.644109964370728
1618836974.95749,45.25964,27.659729957580566
1618836974.97312,42.28558,27.675359964370728
1618836974.98874,38.49396,27.690979957580566
1618836975.00437,33.91663,27.706609964370728
1618836975.02,28.76794,27.72223997116089
1618836975.03562,23.36981,27.737859964370728
1618836975.05125,18.0368,27.75348997116089
1618836975.06687,12.97321,27.769109964370728
1618836975.0825,8.19989,27.78473997116089
1618836975.09812,3.579041,27.800359964370728
1618836975.11375,-1.174866,27.81598997116089
1618836975.12938,-6.417053,27.83161997795105
1618836975.145,-12.48682,27.84723997116089
1618836975.16063,-19.62964,27.86286997795105
1618836975.17625,-27.88519,27.87848997116089
1618836975.19188,-36.97388,27.89411997795105
1618836975.2075,-46.24316,27.90973997116089
1618836975.22313,-54.66742,27.92536997795105
1618836975.23876,-60.9726,27.94099998474121
1618836975.25438,-63.92529,27.95661997795105
1618836975.27001,-62.64838,27.97224998474121
1618836975.28563,-56.86444,27.98786997795105
1618836975.30126,-47.04987,28.00349998474121
1618836975.31688,-34.29346,28.01911997795105
1618836975.33251,-20.03149,28.03474998474121
1618836975.34814,-5.633118,28.050379991531372
1618836975.36376,7.878357,28.06599998474121
1618836975.37939,19.97064,28.081629991531372
1618836975.39501,30.54608,28.09724998474121
1618836975.41064,39.75909,28.112879991531372
1618836975.42626,47.83185,28.12849998474121
1618836975.44189,54.86108,28.144129991531372
1618836975.45752,60.84229,28.159759998321533
1618836975.47314,65.6554,28.175379991531372
1618836975.48877,69.17267,28.191009998321533
1618836975.50439,71.31702,28.206629991531372
1618836975.52002,72.13257,28.222259998321533
1618836975.53564,71.79614,28.237879991531372
1618836975.55127,70.57758,28.253509998321533
1618836975.5669,68.81555,28.269140005111694
1618836975.58252,66.80048,28.284759998321533
1618836975.59815,64.75702,28.300390005111694
1618836975.61377,62.82159,28.316009998321533
1618836975.6294,61.05896,28.331640005111694
1618836975.64502,59.47577,28.347259998321533
1618836975.66065,58.00562,28.362890005111694
1618836975.67628,56.51294,28.378520011901855
1618836975.6919,54.75751,28.394140005111694
1618836975.70753,52.52057,28.409770011901855
1618836975.72315,49.61304,28.425390005111694
1618836975.73878,45.96887,28.441020011901855
1618836975.7544,41.67023,28.456640005111694
1618836975.77003,36.90131,28.472270011901855
1618836975.78566,31.86975,28.487900018692017
1618836975.80128,26.78845,28.503520011901855
1618836975.81691,21.81799,28.519150018692017
1618836975.83253,17.05786,28.534770011901855
1618836975.84816,12.6015,28.550400018692017
1618836975.86378,8.44928,28.566020011901855
1618836975.87941,4.552612,28.581650018692017
1618836975.89504,0.7320557,28.597280025482178
1618836975.91066,-3.276978,28.612900018692017
1618836975.92629,-7.824402,28.628530025482178
1618836975.94191,-13.27246,28.644150018692017
1618836975.95754,-19.91956,28.659780025482178
1618836975.97316,-27.83569,28.675400018692017
1618836975.98879,-36.68164,28.691030025482178
1618836976.00442,-45.62451,28.70666003227234
1618836976.02004,-53.34167,28.722280025482178
1618836976.03567,-58.35089,28.73791003227234
1618836976.05129,-59.40918,28.753530025482178
1618836976.06692,-55.91705,28.76916003227234
1618836976.08254,-48.12512,28.784780025482178
1618836976.09817,-37.01367,28.80041003227234
1618836976.1138,-23.96796,28.8160400390625
1618836976.12942,-10.28925,28.83166003227234
1618836976.14505,3.032898,28.8472900390625
1618836976.16067,15.44556,28.86291003227234
1618836976.1763,26.75378,28.8785400390625
1618836976.19192,36.88953,28.89416003227234
1618836976.20755,45.82068,28.9097900390625
1618836976.22318,53.49469,28.92542004585266
1618836976.2388,59.84949,28.9410400390625
1618836976.25443,64.89642,28.95667004585266
1618836976.27005,68.70532,28.9722900390625
1618836976.28568,71.3399,28.98792004585266
1618836976.3013,72.88007,29.0035400390625
1618836976.31693,73.35437,29.01917004585266
1618836976.33256,72.79333,29.034800052642822
1618836976.34818,71.28564,29.05042004585266
1618836976.36381,69.02094,29.066050052642822
1618836976.37943,66.31122,29.08167004585266
1618836976.39506,63.53418,29.097300052642822
1618836976.41069,61.0766,29.112930059432983
1618836976.42631,59.1673,29.128550052642822
1618836976.44194,57.86053,29.144180059432983
1618836976.45756,56.97583,29.159800052642822
1618836976.47319,56.15472,29.175430059432983
1618836976.48881,54.99896,29.191050052642822
1618836976.50444,53.17792,29.206680059432983
1618836976.52007,50.55878,29.222310066223145
1618836976.53569,47.2113,29.237930059432983
1618836976.55132,43.3642,29.253560066223145
1618836976.56694,39.30835,29.269180059432983
1618836976.58257,35.23041,29.284810066223145
1618836976.59819,31.18408,29.300430059432983
1618836976.61382,27.06189,29.316060066223145
1618836976.62945,22.69354,29.331690073013306
1618836976.64507,17.97369,29.347310066223145
1618836976.6607,12.93848,29.362940073013306
1618836976.67632,7.761047,29.378560066223145
1618836976.69195,2.680054,29.394190073013306
1618836976.70757,-2.127869,29.409810066223145
1618836976.7232,-6.650513,29.425440073013306
1618836976.73883,-11.07867,29.441070079803467
1618836976.75445,-15.73395,29.456690073013306
1618836976.77008,-20.98517,29.472320079803467
1618836976.7857,-27.15381,29.487940073013306
1618836976.80133,-34.36414,29.503570079803467
1618836976.81695,-42.36377,29.519190073013306
1618836976.83258,-50.59827,29.534820079803467
1618836976.84821,-58.22144,29.550450086593628
1618836976.86383,-64.22278,29.566070079803467
1618836976.87946,-67.57465,29.581700086593628
1618836976.89508,-67.4704,29.597320079803467
1618836976.91071,-63.58539,29.612950086593628
1618836976.92633,-56.2536,29.628570079803467
1618836976.94196,-46.41479,29.644200086593628
1618836976.95759,-35.20129,29.65983009338379
1618836976.97321,-23.73773,29.675450086593628
1618836976.98884,-12.8858,29.69108009338379
1618836977.00446,-3.148621,29.706700086593628
1618836977.02009,5.286316,29.72233009338379
1618836977.03571,12.44,29.737950086593628
1618836977.05134,18.33264,29.75358009338379
1618836977.06697,22.93195,29.76921010017395
1618836977.08259,26.1604,29.78483009338379
1618836977.09822,28.26917,29.80046010017395
1618836977.11384,29.5694,29.81608009338379
1618836977.12947,30.31104,29.83171010017395
1618836977.14509,30.61853,29.84733009338379
1618836977.16072,30.52136,29.86296010017395
1618836977.17635,30.09192,29.87859010696411
1618836977.19197,29.42072,29.89421010017395
1618836977.2076,28.6391,29.90984010696411
1618836977.22322,27.82495,29.92546010017395
1618836977.23885,27.77789,29.94109010696411
1618836977.25447,29.00049,29.95671010017395
1618836977.2701,31.37891,29.97234010696411
1618836977.28573,34.17657,29.987969875335693
1618836977.30135,36.48071,30.00359010696411
1618836977.31698,37.7395,30.019219875335693
1618836977.3326,37.86212,30.03484010696411
1618836977.34823,36.98242,30.050469875335693
1618836977.36385,35.20099,30.06609010696411
1618836977.37948,34.07495,30.081719875335693
1618836977.39511,34.6438,30.097349882125854
1618836977.41073,36.8017,30.112969875335693
1618836977.42636,39.28424,30.128599882125854
1618836977.44198,40.63702,30.144219875335693
1618836977.45761,40.18036,30.159849882125854
1618836977.47323,38.18512,30.175469875335693
1618836977.48886,35.42719,30.191099882125854
1618836977.50449,32.65356,30.206729888916016
1618836977.52011,32.83337,30.222349882125854
1618836977.53574,37.79236,30.237979888916016
1618836977.55136,47.1272,30.253599882125854
1618836977.56699,58.23798,30.269229888916016
1618836977.58261,68.07767,30.284849882125854
1618836977.59824,75.04398,30.300479888916016
1618836977.61387,79.60336,30.316109895706177
1618836977.62949,83.68149,30.331729888916016
1618836977.64512,89.72128,30.347359895706177
1618836977.66074,103.0847,30.362979888916016
1618836977.67637,127.2353,30.378609895706177
1618836977.69199,161.8885,30.394229888916016
1618836977.70762,202.8361,30.409859895706177
1618836977.72325,244.1717,30.425489902496338
1618836977.73887,281.0139,30.441109895706177
1618836977.7545,310.8105,30.456739902496338
1618836977.77012,333.1524,30.472359895706177
1618836977.78575,328.1765,30.487989902496338
1618836977.80137,285.6781,30.503609895706177
1618836977.817,209.8909,30.519239902496338
1618836977.83263,119.3862,30.5348699092865
1618836977.84825,34.98843,30.550489902496338
1618836977.86388,-31.27985,30.5661199092865
1618836977.8795,-77.56081,30.581739902496338
1618836977.89513,-107.7402,30.5973699092865
1618836977.91075,-127.3441,30.612989902496338
1618836977.92638,-141.17,30.6286199092865
1618836977.94201,-149.0144,30.64424991607666
1618836977.95763,-150.1853,30.6598699092865
1618836977.97326,-145.3092,30.67549991607666
1618836977.98888,-137.3178,30.6911199092865
1618836978.00451,-129.8153,30.70674991607666
1618836978.02013,-125.8481,30.7223699092865
1618836978.03576,-125.9857,30.73799991607666
1618836978.05139,-128.9641,30.75362992286682
1618836978.06701,-132.7018,30.76924991607666
1618836978.08264,-132.6889,30.78487992286682
1618836978.09826,-126.2503,30.80049991607666
1618836978.11389,-113.3898,30.81612992286682
1618836978.12951,-96.74662,30.83174991607666
1618836978.14514,-79.65663,30.84737992286682
1618836978.16077,-64.33816,30.863009929656982
1618836978.17639,-51.42215,30.87862992286682
1618836978.19202,-41.01489,30.894259929656982
1618836978.20764,-33.7522,30.90987992286682
1618836978.22327,-27.03688,30.925509929656982
1618836978.23889,-20.44973,30.94112992286682
1618836978.25452,-14.75134,30.956759929656982
1618836978.27015,-11.30042,30.972389936447144
1618836978.28577,-10.9653,30.988009929656982
1618836978.3014,-13.49867,31.003639936447144
1618836978.31702,-17.81863,31.019259929656982
1618836978.33265,-22.94621,31.034889936447144
1618836978.34827,-28.50125,31.050509929656982
1618836978.3639,-33.92577,31.066139936447144
1618836978.37953,-39.55614,31.081769943237305
1618836978.39515,-46.06401,31.097389936447144
1618836978.41078,-54.26256,31.113019943237305
1618836978.4264,-64.55684,31.128639936447144
1618836978.44203,-76.5152,31.144269943237305
1618836978.45765,-88.84045,31.159889936447144
1618836978.47328,-99.88882,31.175519943237305
1618836978.48891,-108.1952,31.191149950027466
1618836978.50453,-112.545,31.206769943237305
1618836978.52016,-112.7973,31.222399950027466
1618836978.53578,-109.4586,31.238019943237305
1618836978.55141,-103.5396,31.253649950027466
1618836978.56703,-96.1322,31.269269943237305
1618836978.58266,-88.0932,31.284899950027466
1618836978.59829,-79.94293,31.300529956817627
1618836978.61391,-72.0238,31.316149950027466
1618836978.62954,-64.58099,31.331779956817627
1618836978.64516,-57.81674,31.347399950027466
1618836978.66079,-52.02167,31.363029956817627
1618836978.67641,-47.26221,31.378649950027466
1618836978.69204,-43.44995,31.394279956817627
1618836978.70767,-40.45825,31.409909963607788
1618836978.72329,-38.27853,31.425529956817627
1618836978.73892,-36.99493,31.441159963607788
1618836978.75454,-36.81088,31.456779956817627
1618836978.77017,-37.82965,31.472409963607788
1618836978.78579,-39.92963,31.488029956817627
1618836978.80142,-42.80701,31.503659963607788
1618836978.81705,-45.86798,31.51928997039795
1618836978.83267,-48.45038,31.534909963607788
1618836978.8483,-49.9783,31.55053997039795
1618836978.86392,-50.12405,31.566159963607788
1618836978.87955,-48.83902,31.58178997039795
1618836978.89517,-46.36838,31.597409963607788
1618836978.9108,-43.14941,31.61303997039795
1618836978.92643,-39.68561,31.62866997718811
1618836978.94205,-36.43863,31.64428997039795
1618836978.95768,-33.7103,31.65991997718811
1618836978.9733,-31.63733,31.67553997039795
1618836978.98893,-30.18829,31.69116997718811
1618836979.00455,-29.25928,31.70678997039795
1618836979.02018,-28.71002,31.72241997718811
1618836979.03581,-28.42612,31.73804998397827
1618836979.05143,-28.25546,31.75366997718811
1618836979.06706,-28.07016,31.76929998397827
1618836979.08268,-27.7431,31.78491997718811
1618836979.09831,-27.19775,31.80054998397827
1618836979.11394,-26.51477,31.816179990768433
1618836979.12956,-25.90247,31.83179998397827
1618836979.14519,-25.62946,31.847429990768433
1618836979.16081,-25.93195,31.86304998397827
1618836979.17644,-26.95041,31.878679990768433
1618836979.19206,-28.72888,31.89429998397827
1618836979.20769,-31.27509,31.909929990768433
1618836979.22332,-34.66141,31.925559997558594
1618836979.23894,-38.93997,31.941179990768433
1618836979.25457,-44.06561,31.956809997558594
1618836979.27019,-49.68542,31.972429990768433
1618836979.28582,-55.06494,31.988059997558594
1618836979.30144,-59.17722,32.00367999076843
1618836979.31707,-60.97943,32.019309997558594
1618836979.3327,-59.73349,32.034940004348755
1618836979.34832,-55.27087,32.050559997558594
1618836979.36395,-48.0462,32.066190004348755
1618836979.37957,-38.94141,32.081809997558594
1618836979.3952,-28.98392,32.097440004348755
1618836979.41082,-19.05414,32.113059997558594
1618836979.42645,-9.770081,32.128690004348755
1618836979.44208,-1.469971,32.144320011138916
1618836979.4577,5.707642,32.159940004348755
1618836979.47333,11.74628,32.175570011138916
1618836979.48895,16.72513,32.191190004348755
1618836979.50458,20.78348,32.206820011138916
1618836979.5202,24.07938,32.222440004348755
1618836979.53583,26.70901,32.238070011138916
1618836979.55146,28.66214,32.25370001792908
1618836979.56708,29.80405,32.269320011138916
1618836979.58271,29.9635,32.28495001792908
1618836979.59833,29.0614,32.300570011138916
1618836979.61396,27.23871,32.31620001792908
1618836979.62958,24.81659,32.331820011138916
1618836979.64521,22.25903,32.34745001792908
1618836979.66084,19.97952,32.36308002471924
1618836979.67646,18.20508,32.37870001792908
1618836979.69209,16.93741,32.39433002471924
1618836979.70771,15.99661,32.40995001792908
1618836979.72334,15.15561,32.42558002471924
1618836979.73896,14.26254,32.44120001792908
1618836979.75459,13.26651,32.45683002471924
1618836979.77022,12.22684,32.4724600315094
1618836979.78584,11.19525,32.48808002471924
1618836979.80147,10.15808,32.5037100315094
1618836979.81709,9.033142,32.51933002471924
1618836979.83272,7.709442,32.5349600315094
1618836979.84834,6.103119,32.55058002471924
1618836979.86397,4.20697,32.5662100315094
1618836979.8796,2.100128,32.58184003829956
1618836979.89522,-0.1290283,32.5974600315094
1618836979.91085,-2.408539,32.61309003829956
1618836979.92647,-4.655884,32.6287100315094
1618836979.9421,-6.815277,32.64434003829956
1618836979.95772,-8.808319,32.6599600315094
1618836979.97335,-10.63766,32.67559003829956
1618836979.98898,-12.41507,32.69122004508972
1618836980.0046,-14.39304,32.70684003829956
1618836980.02023,-16.87897,32.72247004508972
1618836980.03585,-20.10593,32.73809003829956
1618836980.05148,-24.04977,32.75372004508972
1618836980.0671,-28.30087,32.76934003829956
1618836980.08273,-32.13184,32.78497004508972
1618836980.09836,-34.67102,32.80060005187988
1618836980.11398,-35.19696,32.81622004508972
1618836980.12961,-33.34583,32.83185005187988
1618836980.14523,-29.22821,32.84747004508972
1618836980.16086,-23.35239,32.86310005187988
1618836980.17648,-16.44293,32.87872004508972
1618836980.19211,-9.229156,32.89435005187988
1618836980.20774,-2.312469,32.909980058670044
1618836980.22336,3.9021,32.92560005187988
1618836980.23899,9.219208,32.941230058670044
1618836980.25461,13.58041,32.95685005187988
1618836980.27024,17.02838,32.972480058670044
1618836980.28586,19.63776,32.98810005187988
1618836980.30149,21.4794,33.003730058670044
1618836980.31712,22.62669,33.019360065460205
1618836980.33274,23.12859,33.034980058670044
1618836980.34837,23.08031,33.050610065460205
1618836980.36399,22.59969,33.066230058670044
1618836980.37962,21.84167,33.081860065460205
1618836980.39524,20.97362,33.097480058670044
1618836980.41087,20.09288,33.113110065460205
1618836980.4265,19.23137,33.128740072250366
1618836980.44212,18.36179,33.144360065460205
1618836980.45775,17.46547,33.159990072250366
1618836980.47337,16.53928,33.175610065460205
1618836980.489,15.64645,33.191240072250366
1618836980.50462,14.82098,33.206860065460205
1618836980.52025,14.02173,33.222490072250366
1618836980.53588,13.10774,33.23812007904053
1618836980.5515,11.87654,33.253740072250366
1618836980.56713,10.16287,33.26937007904053
1618836980.58275,7.956299,33.284990072250366
1618836980.59838,5.423553,33.30062007904053
1618836980.614,2.839981,33.316240072250366
1618836980.62963,0.4559174,33.33187007904053
1618836980.64526,-1.643646,33.34750008583069
1618836980.66088,-3.610733,33.36312007904053
1618836980.67651,-5.728348,33.37875008583069
1618836980.69213,-8.229462,33.39437007904053
1618836980.70776,-11.11974,33.41000008583069
1618836980.72338,-14.16728,33.42562007904053
1618836980.73901,-17.02144,33.44125008583069
1618836980.75464,-19.42448,33.45688009262085
1618836980.77026,-21.38614,33.47250008583069
1618836980.78589,-23.22963,33.48813009262085
1618836980.80151,-25.47551,33.50375008583069
1618836980.81714,-28.57007,33.51938009262085
1618836980.83276,-32.63559,33.53500008583069
1618836980.84839,-37.34343,33.55063009262085
1618836980.86402,-41.91945,33.56626009941101
1618836980.87964,-45.39124,33.58188009262085
1618836980.89527,-46.84168,33.59751009941101
1618836980.91089,-45.72405,33.61313009262085
1618836980.92652,-41.95901,33.62876009941101
1618836980.94214,-35.92439,33.64438009262085
1618836980.95777,-28.3072,33.66001009941101
1618836980.9734,-19.93259,33.67564010620117
1618836980.98902,-11.52431,33.69126009941101
1618836981.00465,-3.666496,33.70689010620117
1618836981.02027,3.296341,33.72251009941101
1618836981.0359,9.201263,33.73814010620117
1618836981.05152,14.08349,33.75376009941101
1618836981.06715,18.13367,33.76939010620117
1618836981.08278,21.64624,33.785019874572754
1618836981.0984,24.93214,33.80064010620117
1618836981.11403,28.15493,33.816269874572754
1618836981.12965,31.27528,33.83189010620117
1618836981.14528,34.04522,33.847519874572754
1618836981.1609,36.16349,33.86314010620117
1618836981.17653,37.40534,33.878769874572754
1618836981.19216,37.7824,33.894399881362915
1618836981.20778,37.51085,33.910019874572754
1618836981.22341,36.91328,33.925649881362915
1618836981.23903,36.27443,33.941269874572754
1618836981.25466,35.74793,33.956899881362915
1618836981.27029,35.34743,33.972529888153076
1618836981.28591,35.0544,33.988149881362915
1618836981.30154,34.83678,34.003779888153076
1618836981.31716,34.70048,34.019399881362915
1618836981.33279,34.59999,34.035029888153076
1618836981.34841,34.38702,34.050649881362915
1618836981.36404,33.83313,34.066279888153076
1618836981.37967,32.73657,34.08190989494324
1618836981.39529,31.03963,34.097529888153076
1618836981.41092,28.88155,34.11315989494324
1618836981.42654,26.50599,34.128779888153076
1618836981.44217,24.15768,34.14440989494324
1618836981.45779,21.90702,34.160029888153076
1618836981.47342,19.60415,34.17565989494324
1618836981.48905,17.00803,34.1912899017334
1618836981.50467,13.91164,34.20690989494324
1618836981.5203,10.29378,34.2225399017334
1618836981.53592,6.348453,34.23815989494324
1618836981.55155,2.374195,34.2537899017334
1618836981.56717,-1.40461,34.26940989494324
1618836981.5828,-4.937951,34.2850399017334
1618836981.59843,-8.353349,34.30066990852356
1618836981.61405,-11.93546,34.3162899017334
1618836981.62968,-15.98409,34.33191990852356
1618836981.6453,-20.70326,34.3475399017334
1618836981.66093,-26.10835,34.36316990852356
1618836981.67655,-31.9771,34.3787899017334
1618836981.69218,-37.80733,34.39441990852356
1618836981.70781,-42.85829,34.41004991531372
1618836981.72343,-46.28249,34.42566990852356
1618836981.73906,-47.33045,34.44129991531372
1618836981.75468,-45.59941,34.45691990852356
1618836981.77031,-41.17591,34.47254991531372
1618836981.78593,-34.64787,34.48816990852356
1618836981.80156,-26.93103,34.50379991531372
1618836981.81719,-18.95555,34.51942992210388
1618836981.83281,-11.42039,34.53504991531372
1618836981.84844,-4.625378,34.55067992210388
1618836981.86406,1.438915,34.56629991531372
1618836981.87969,6.948849,34.58192992210388
1618836981.89531,12.03072,34.59754991531372
1618836981.91094,16.68521,34.61317992210388
1618836981.92657,20.80263,34.62880992889404
1618836981.94219,24.24599,34.64442992210388
1618836981.95782,26.96804,34.66005992889404
1618836981.97344,29.02319,34.67567992210388
1618836981.98907,30.54683,34.69130992889404
1618836982.00469,31.64374,34.70692992210388
1618836982.02032,32.37914,34.72255992889404
1618836982.03595,32.74512,34.738189935684204
1618836982.05157,32.74861,34.75380992889404
1618836982.0672,32.4731,34.769439935684204
1618836982.08282,32.09747,34.78505992889404
1618836982.09845,31.85112,34.800689935684204
1618836982.11407,31.86272,34.81630992889404
1618836982.1297,32.10139,34.831939935684204
1618836982.14533,32.30137,34.847569942474365
1618836982.16095,32.10833,34.863189935684204
1618836982.17658,31.20045,34.878819942474365
1618836982.1922,29.4613,34.894439935684204
1618836982.20783,26.9957,34.910069942474365
1618836982.22345,24.09438,34.925689935684204
1618836982.23908,21.0601,34.941319942474365
1618836982.25471,18.08445,34.956949949264526
1618836982.27033,15.20151,34.972569942474365
1618836982.28596,12.31663,34.988199949264526
1618836982.30158,9.304413,35.003819942474365
1618836982.31721,6.081276,35.019449949264526
1618836982.33283,2.630547,35.035069942474365
1618836982.34846,-0.9815674,35.050699949264526
1618836982.36409,-4.65741,35.06632995605469
1618836982.37971,-8.286369,35.081949949264526
1618836982.39534,-11.77615,35.09757995605469
1618836982.41096,-15.08269,35.113199949264526
1618836982.42659,-18.2852,35.12882995605469
1618836982.44221,-21.57584,35.144449949264526
1618836982.45784,-25.24938,35.16007995605469
1618836982.47347,-29.58092,35.17570996284485
1618836982.48909,-34.69198,35.19132995605469
1618836982.50472,-40.37245,35.20695996284485
1618836982.52034,-46.03384,35.22257995605469
1618836982.53597,-50.84529,35.23820996284485
1618836982.55159,-53.86445,35.25382995605469
1618836982.56722,-54.36349,35.26945996284485
1618836982.58285,-51.99899,35.28508996963501
1618836982.59847,-46.92741,35.30070996284485
1618836982.6141,-39.71063,35.31633996963501
1618836982.62972,-31.14455,35.33195996284485
1618836982.64535,-22.05997,35.34758996963501
1618836982.66097,-13.13336,35.36320996284485
1618836982.6766,-4.814072,35.37883996963501
1618836982.69223,2.70842,35.39446997642517
1618836982.70785,9.391556,35.41008996963501
1618836982.72348,15.33826,35.42571997642517
1618836982.7391,20.63263,35.44133996963501
1618836982.75473,25.33257,35.45696997642517
1618836982.77035,29.42798,35.47258996963501
1618836982.78598,32.86478,35.48821997642517
1618836982.80161,35.55653,35.50384998321533
1618836982.81723,37.46329,35.51946997642517
1618836982.83286,38.60326,35.53509998321533
1618836982.84848,39.05971,35.55071997642517
1618836982.86411,38.98587,35.56634998321533
1618836982.87973,38.53337,35.58196997642517
1618836982.89536,37.8228,35.59759998321533
1618836982.91099,36.93788,35.61322999000549
1618836982.92661,35.9398,35.62884998321533
1618836982.94224,34.85089,35.64447999000549
1618836982.95786,33.7097,35.66009998321533
1618836982.97349,32.54451,35.67572999000549
1618836982.98911,31.30936,35.69134998321533
1618836983.00474,29.94675,35.70697999000549
1618836983.02037,28.35014,35.722609996795654
1618836983.03599,26.431,35.73822999000549
1618836983.05162,24.17201,35.753859996795654
1618836983.06724,21.62206,35.76947999000549
1618836983.08287,18.89223,35.785109996795654
1618836983.09849,16.10623,35.80072999000549
1618836983.11412,13.36229,35.816359996795654
1618836983.12975,10.70335,35.831990003585815
1618836983.14537,8.099136,35.847609996795654
1618836983.161,5.442841,35.863240003585815
1618836983.17662,2.556641,35.878859996795654
1618836983.19225,-0.7133636,35.894490003585815
1618836983.20787,-4.448746,35.910109996795654
1618836983.2235,-8.588089,35.925740003585815
1618836983.23913,-12.88872,35.94137001037598
1618836983.25475,-17.0562,35.956990003585815
1618836983.27038,-20.87828,35.97262001037598
1618836983.286,-24.37807,35.988240003585815
1618836983.30163,-27.84842,36.00387001037598
1618836983.31725,-31.74823,36.019490003585815
1618836983.33288,-36.51073,36.03512001037598
1618836983.34851,-42.34094,36.05075001716614
1618836983.36413,-49.05968,36.06637001037598
1618836983.37976,-56.11186,36.08200001716614
1618836983.39538,-62.65906,36.09762001037598
1618836983.41101,-67.72981,36.11325001716614
1618836983.42663,-70.40929,36.12887001037598
1618836983.44226,-70.05229,36.14450001716614
1618836983.45789,-66.43243,36.1601300239563
1618836983.47351,-59.78761,36.17575001716614
1618836983.48914,-50.77007,36.1913800239563
1618836983.50476,-40.26892,36.20700001716614
1618836983.52039,-29.19926,36.2226300239563
1618836983.53602,-18.32309,36.23826003074646
1618836983.55164,-8.143158,36.2538800239563
1618836983.56727,1.05455,36.26951003074646
1618836983.58289,9.163559,36.2851300239563
1618836983.59852,16.19032,36.30076003074646
1618836983.61414,22.22372,36.3163800239563
1618836983.62977,27.358,36.33201003074646
1618836983.6454,31.68637,36.34764003753662
1618836983.66102,35.27602,36.36326003074646
1618836983.67665,38.11484,36.37889003753662
1618836983.69227,40.16214,36.39451003074646
1618836983.7079,41.39806,36.41014003753662
1618836983.72352,41.86618,36.42576003074646
1618836983.73915,41.67737,36.44139003753662
1618836983.75478,41.02838,36.45702004432678
1618836983.7704,40.14044,36.47264003753662
1618836983.78603,39.24232,36.48827004432678
1618836983.80165,38.55795,36.50389003753662
1618836983.81728,38.22229,36.51952004432678
1618836983.8329,38.2856,36.53514003753662
1618836983.84853,38.62842,36.55077004432678
1618836983.86416,39.01819,36.56640005111694
1618836983.87978,39.1152,36.58202004432678
1618836983.89541,38.60817,36.59765005111694
1618836983.91103,37.30846,36.61327004432678
1618836983.92666,35.20563,36.62890005111694
1618836983.94228,32.46674,36.64452004432678
1618836983.95791,29.35612,36.66015005111694
1618836983.97354,26.13879,36.675780057907104
1618836983.98916,22.96136,36.69140005111694
1618836984.00479,19.78528,36.707030057907104
1618836984.02041,16.39984,36.72265005111694
1618836984.03604,12.46379,36.738280057907104
1618836984.05166,7.696503,36.75390005111694
1618836984.06729,2.047791,36.769530057907104
1618836984.08292,-4.22728,36.785160064697266
1618836984.09854,-10.65956,36.800780057907104
1618836984.11417,-16.73465,36.816410064697266
1618836984.12979,-22.12347,36.832030057907104
1618836984.14542,-26.82234,36.847660064697266
1618836984.16104,-31.09906,36.863280057907104
1618836984.17667,-35.35646,36.878910064697266
1618836984.1923,-39.98573,36.89454007148743
1618836984.20792,-45.23616,36.910160064697266
1618836984.22355,-51.17813,36.92579007148743
1618836984.23917,-57.67732,36.941410064697266
1618836984.2548,-64.35748,36.95704007148743
1618836984.27042,-70.57387,36.972660064697266
1618836984.28605,-75.44414,36.98829007148743
1618836984.30168,-77.98256,37.00392007827759
1618836984.3173,-77.39751,37.01954007148743
1618836984.33293,-73.35207,37.03517007827759
1618836984.34855,-66.09589,37.05079007148743
1618836984.36418,-56.39853,37.06642007827759
1618836984.3798,-45.30064,37.08204007148743
1618836984.39543,-33.81149,37.09767007827759
1618836984.41106,-22.66025,37.11330008506775
1618836984.42668,-12.24875,37.12892007827759
1618836984.44231,-2.714874,37.14455008506775
1618836984.45793,5.972137,37.16017007827759
1618836984.47356,13.85706,37.17580008506775
1618836984.48918,20.96153,37.19142007827759
1618836984.50481,27.23521,37.20705008506775
1618836984.52044,32.6178,37.22268009185791
1618836984.53606,37.03604,37.23830008506775
1618836984.55169,40.43192,37.25393009185791
1618836984.56731,42.82249,37.26955008506775
1618836984.58294,44.26422,37.28518009185791
1618836984.59856,44.8472,37.30080008506775
1618836984.61419,44.69553,37.31643009185791
1618836984.62982,43.96397,37.33206009864807
1618836984.64544,42.87268,37.34768009185791
1618836984.66107,41.70155,37.36331009864807
1618836984.67669,40.76727,37.37893009185791
1618836984.69232,40.32707,37.39456009864807
1618836984.70794,40.42851,37.41018009185791
1618836984.72357,40.89972,37.42581009864807
1618836984.7392,41.38632,37.44144010543823
1618836984.75482,41.46594,37.45706009864807
1618836984.77045,40.85318,37.47269010543823
1618836984.78607,39.46173,37.48831009864807
1618836984.8017,37.4129,37.50394010543823
1618836984.81732,34.93069,37.51956009864807
1618836984.83295,32.19144,37.53519010543823
1618836984.84858,29.27219,37.550819873809814
1618836984.8642,26.13504,37.56644010543823
1618836984.87983,22.71414,37.582069873809814
1618836984.89545,18.96631,37.59769010543823
1618836984.91108,14.90161,37.613319873809814
1618836984.9267,10.56604,37.62894010543823
1618836984.94233,6.079224,37.644569873809814
1618836984.95796,1.553101,37.660199880599976
1618836984.97358,-2.872833,37.675819873809814
1618836984.98921,-7.080048,37.691449880599976
1618836985.00483,-11.01385,37.707069873809814
1618836985.02046,-14.70169,37.722699880599976
1618836985.03608,-18.2663,37.738319873809814
1618836985.05171,-21.96274,37.753949880599976
1618836985.06734,-26.11093,37.76957988739014
1618836985.08296,-31.03189,37.785199880599976
1618836985.09859,-36.90378,37.80082988739014
1618836985.11421,-43.55664,37.816449880599976
1618836985.12984,-50.38821,37.83207988739014
1618836985.14546,-56.41476,37.847699880599976
1618836985.16109,-60.47464,37.86332988739014
1618836985.17672,-61.58325,37.8789598941803
1618836985.19234,-59.25235,37.89457988739014
1618836985.20797,-53.63318,37.9102098941803
1618836985.22359,-45.40375,37.92582988739014
1618836985.23922,-35.53204,37.9414598941803
1618836985.25484,-24.92542,37.95707988739014
1618836985.27047,-14.26447,37.9727098941803
1618836985.2861,-3.927185,37.98833990097046
1618836985.30172,5.881653,38.0039598941803
1618836985.31735,15.02097,38.01958990097046
1618836985.33297,23.34372,38.0352098941803
1618836985.3486,30.71106,38.05083990097046
1618836985.36422,37.02448,38.0664598941803
1618836985.37985,42.27515,38.08208990097046
1618836985.39548,46.50256,38.09771990776062
1618836985.4111,49.74927,38.11333990097046
1618836985.42673,51.98996,38.12896990776062
1618836985.44235,53.19379,38.14458990097046
1618836985.45798,53.33917,38.16021990776062
1618836985.4736,52.52493,38.17583990097046
1618836985.48923,51.02237,38.19146990776062
1618836985.50486,49.18527,38.20709991455078
1618836985.52048,47.38727,38.22271990776062
1618836985.53611,45.84964,38.23834991455078
1618836985.55173,44.58511,38.25396990776062
1618836985.56736,43.43347,38.26959991455078
1618836985.58298,42.17862,38.28521990776062
1618836985.59861,40.66766,38.30084991455078
1618836985.61424,38.87546,38.31647992134094
1618836985.62986,36.87987,38.33209991455078
1618836985.64549,34.75717,38.34772992134094
1618836985.66111,32.51611,38.36334991455078
1618836985.67674,30.08679,38.37897992134094
1618836985.69236,27.39485,38.39459991455078
1618836985.70799,24.43114,38.41022992134094
1618836985.72362,21.30647,38.4258599281311
1618836985.73924,18.16599,38.44147992134094
1618836985.75487,15.10143,38.4571099281311
1618836985.77049,12.13109,38.47272992134094
1618836985.78612,9.151596,38.4883599281311
1618836985.80174,6.019424,38.50397992134094
1618836985.81737,2.65509,38.5196099281311
1618836985.833,-0.9530182,38.535239934921265
1618836985.84862,-4.734543,38.5508599281311
1618836985.86425,-8.604645,38.566489934921265
1618836985.87987,-12.49799,38.5821099281311
1618836985.8955,-16.40118,38.597739934921265
1618836985.91112,-20.37129,38.6133599281311
1618836985.92675,-24.58784,38.628989934921265
1618836985.94238,-29.30341,38.644619941711426
1618836985.958,-34.7588,38.660239934921265
1618836985.97363,-41.04378,38.675869941711426
1618836985.98925,-47.86871,38.691489934921265
1618836986.00488,-54.49596,38.707119941711426
1618836986.0205,-59.83006,38.722739934921265
1618836986.03613,-62.71634,38.738369941711426
1618836986.05176,-62.34396,38.75399994850159
1618836986.06738,-58.53322,38.769619941711426
1618836986.08301,-51.77383,38.78524994850159
1618836986.09863,-42.99783,38.800869941711426
1618836986.11426,-33.23372,38.81649994850159
1618836986.12989,-23.31024,38.83212995529175
1618836986.14551,-13.74597,38.84774994850159
1618836986.16114,-4.791016,38.86337995529175
1618836986.17676,3.409225,38.87899994850159
1618836986.19239,10.73218,38.89462995529175
1618836986.20801,17.05605,38.91024994850159
1618836986.22364,22.30528,38.92587995529175
1618836986.23927,26.50385,38.94150996208191
1618836986.25489,29.75739,38.95712995529175
1618836986.27052,32.20801,38.97275996208191
1618836986.28614,34.01262,38.98837995529175
1618836986.30177,35.26678,39.00400996208191
1618836986.31739,36.03874,39.01962995529175
1618836986.33302,36.38048,39.03525996208191
1618836986.34865,36.32367,39.05088996887207
1618836986.36427,35.91466,39.06650996208191
1618836986.3799,35.21938,39.08213996887207
1618836986.39552,34.33672,39.09775996208191
1618836986.41115,33.41139,39.11338996887207
1618836986.42677,32.60437,39.12900996208191
1618836986.4424,32.04482,39.14463996887207
1618836986.45803,31.73236,39.16026997566223
1618836986.47365,31.54907,39.17588996887207
1618836986.48928,31.23833,39.19151997566223
1618836986.5049,30.54597,39.20713996887207
1618836986.52053,29.26567,39.22276997566223
1618836986.53615,27.34837,39.23838996887207
1618836986.55178,24.89087,39.25401997566223
1618836986.56741,22.10948,39.26964998245239
1618836986.58303,19.24443,39.28526997566223
1618836986.59866,16.46503,39.30089998245239
1618836986.61428,13.78262,39.31651997566223
1618836986.62991,11.07295,39.33214998245239
1618836986.64553,8.128784,39.34776997566223
1618836986.66116,4.771538,39.36339998245239
1618836986.67679,0.9609528,39.379029989242554
1618836986.69241,-3.197144,39.39464998245239
1618836986.70804,-7.457642,39.410279989242554
1618836986.72366,-11.56569,39.42589998245239
1618836986.73929,-15.3508,39.441529989242554
1618836986.75491,-18.77499,39.45714998245239
1618836986.77054,-21.96895,39.472779989242554
1618836986.78617,-25.12463,39.488409996032715
1618836986.80179,-28.47356,39.504029989242554
1618836986.81742,-32.22304,39.519659996032715
1618836986.83304,-36.4917,39.535279989242554
1618836986.84867,-41.31989,39.550909996032715
1618836986.86429,-46.56227,39.566529989242554
1618836986.87992,-51.82266,39.582159996032715
1618836986.89555,-56.42176,39.597790002822876
1618836986.91117,-59.48619,39.613409996032715
1618836986.9268,-60.1808,39.629040002822876
1618836986.94242,-57.96961,39.644659996032715
1618836986.95805,-52.85865,39.660290002822876
1618836986.97367,-45.40793,39.675909996032715
1618836986.9893,-36.58623,39.691540002822876
1618836987.00493,-27.43672,39.70717000961304
1618836987.02055,-18.80135,39.722790002822876
1618836987.03618,-11.13409,39.73842000961304
1618836987.0518,-4.576206,39.754040002822876
1618836987.06743,0.9302711,39.76967000961304
1618836987.08305,5.483881,39.785290002822876
1618836987.09868,9.113651,39.80092000961304
1618836987.11431,11.80221,39.8165500164032
1618836987.12993,13.55465,39.83217000961304
1618836987.14556,14.45516,39.8478000164032
1618836987.16118,14.64899,39.86342000961304
1618836987.17681,14.34619,39.8790500164032
1618836987.19243,13.75718,39.89467000961304
1618836987.20806,13.07737,39.9103000164032
1618836987.22369,12.44231,39.92593002319336
1618836987.23931,11.94437,39.9415500164032
1618836987.25494,11.65733,39.95718002319336
1618836987.27056,11.57053,39.9728000164032
1618836987.28619,11.68359,39.98843002319336
1618836987.30181,11.94643,40.0040500164032
1618836987.31744,12.27285,40.01968002319336
1618836987.33307,12.55876,40.03531002998352
1618836987.34869,12.6916,40.05093002319336
1618836987.36432,12.56716,40.06656002998352
1618836987.37994,12.13294,40.08218002319336
1618836987.39557,11.38776,40.09781002998352
1618836987.41119,10.36982,40.11343002319336
1618836987.42682,9.143017,40.12906002998352
1618836987.44245,7.701655,40.14469003677368
1618836987.45807,6.010583,40.16031002998352
1618836987.4737,3.984744,40.17594003677368
1618836987.48932,1.603309,40.19156002998352
1618836987.50495,-1.112041,40.20719003677368
1618836987.52057,-4.062845,40.22281002998352
1618836987.5362,-7.07835,40.23844003677368
1618836987.55183,-10.04563,40.25407004356384
1618836987.56745,-12.91326,40.26969003677368
1618836987.58308,-15.76301,40.28532004356384
1618836987.5987,-18.74597,40.30094003677368
1618836987.61433,-22.09654,40.31657004356384
1618836987.62995,-25.98727,40.33219003677368
1618836987.64558,-30.50552,40.34782004356384
1618836987.66121,-35.53313,40.363450050354004
1618836987.67683,-40.69844,40.37907004356384
1618836987.69246,-45.42132,40.394700050354004
1618836987.70808,-48.96521,40.41032004356384
1618836987.72371,-50.59002,40.425950050354004
1618836987.73933,-49.74563,40.44157004356384
1618836987.75496,-46.20392,40.457200050354004
1618836987.77059,-40.1661,40.472830057144165
1618836987.78621,-32.25382,40.488450050354004
1618836987.80184,-23.32624,40.504080057144165
1618836987.81746,-14.28677,40.519700050354004
1618836987.83309,-5.860138,40.535330057144165
1618836987.84871,1.557816,40.550950050354004
1618836987.86434,7.881607,40.566580057144165
1618836987.87997,13.22688,40.582210063934326
1618836987.89559,17.72264,40.597830057144165
1618836987.91122,21.45261,40.613460063934326
1618836987.92684,24.39096,40.629080057144165
1618836987.94247,26.48872,40.644710063934326
1618836987.95809,27.75189,40.660330057144165
1618836987.97372,28.24948,40.675960063934326
1618836987.98935,28.14212,40.69159007072449
1618836988.00497,27.61239,40.707210063934326
1618836988.0206,26.81409,40.72284007072449
1618836988.03622,25.89456,40.738460063934326
1618836988.05185,24.95985,40.75409007072449
1618836988.06747,24.12975,40.769710063934326
1618836988.0831,23.52343,40.78534007072449
1618836988.09873,23.21859,40.80097007751465
1618836988.11435,23.22899,40.81659007072449
1618836988.12998,23.46579,40.83222007751465
1618836988.1456,23.75616,40.84784007072449
1618836988.16123,23.84446,40.86347007751465
1618836988.17685,23.50989,40.87909007072449
1618836988.19248,22.60204,40.89472007751465
1618836988.20811,21.1056,40.91035008430481
1618836988.22373,19.19241,40.92597007751465
1618836988.23936,17.10786,40.94160008430481
1618836988.25498,15.069,40.95722007751465
1618836988.27061,13.17115,40.97285008430481
1618836988.28623,11.31965,40.98847007751465
1618836988.30186,9.29763,41.00410008430481
1618836988.31749,6.892014,41.01973009109497
1618836988.33311,3.972435,41.03535008430481
1618836988.34874,0.5472183,41.05098009109497
1618836988.36436,-3.241913,41.06660008430481
1618836988.37999,-7.208344,41.08223009109497
1618836988.39562,-11.18662,41.09786009788513
1618836988.41124,-15.0828,41.11348009109497
1618836988.42687,-18.91242,41.12911009788513
1618836988.44249,-22.77657,41.14473009109497
1618836988.45812,-26.84361,41.16036009788513
1618836988.47374,-31.28464,41.17598009109497
1618836988.48937,-36.21634,41.19161009788513
1618836988.505,-41.60516,41.20724010467529
1618836988.52062,-47.17899,41.22286009788513
1618836988.53625,-52.41852,41.23849010467529
1618836988.55187,-56.58533,41.25411009788513
1618836988.5675,-58.89639,41.26974010467529
1618836988.58312,-58.71648,41.28536009788513
1618836988.59875,-55.77415,41.30099010467529
1618836988.61438,-50.27995,41.316619873046875
1618836988.63,-42.85986,41.33224010467529
1618836988.64563,-34.37511,41.347869873046875
1618836988.66125,-25.68848,41.36349010467529
1618836988.67688,-17.46095,41.379119873046875
1618836988.6925,-10.02466,41.39474010467529
1618836988.70813,-3.450386,41.410369873046875
1618836988.72376,2.356705,41.425999879837036
1618836988.73938,7.539169,41.441619873046875
1618836988.75501,12.16139,41.457249879837036
1618836988.77063,16.23241,41.472869873046875
1618836988.78626,19.70123,41.488499879837036
1618836988.80188,22.48681,41.504119873046875
1618836988.81751,24.5559,41.519749879837036
1618836988.83314,25.89858,41.5353798866272
1618836988.84876,26.58593,41.550999879837036
1618836988.86439,26.72693,41.5666298866272
1618836988.88001,26.45791,41.582249879837036
1618836988.89564,25.90126,41.5978798866272
1618836988.91126,25.2037,41.613499879837036
1618836988.92689,24.48586,41.6291298866272
1618836988.94252,23.89098,41.64475989341736
1618836988.95814,23.52602,41.6603798866272
1618836988.97377,23.43007,41.67600989341736
1618836988.98939,23.49792,41.6916298866272
1618836989.00502,23.45929,41.70725989341736
1618836989.02064,22.95748,41.7228798866272
1618836989.03627,21.70776,41.73850989341736
1618836989.0519,19.59975,41.75413990020752
1618836989.06752,16.777,41.76975989341736
1618836989.08315,13.56282,41.78538990020752
1618836989.09877,10.29896,41.80100989341736
1618836989.1144,7.21611,41.81663990020752
1618836989.13002,4.313545,41.83225989341736
1618836989.14565,1.4795,41.84788990020752
1618836989.16128,-1.463104,41.86351990699768
1618836989.1769,-4.583969,41.87913990020752
1618836989.19253,-7.853394,41.89476990699768
1618836989.20815,-11.14479,41.91038990020752
1618836989.22378,-14.35345,41.92601990699768
1618836989.2394,-17.43604,41.94163990020752
1618836989.25503,-20.46578,41.95726990699768
1618836989.27066,-23.58739,41.97289991378784
1618836989.28628,-26.96545,41.98851990699768
1618836989.30191,-30.75475,42.00414991378784
1618836989.31753,-35.05243,42.01976990699768
1618836989.33316,-39.85031,42.03539991378784
1618836989.34878,-44.95738,42.05101990699768
1618836989.36441,-49.96581,42.06664991378784
1618836989.38004,-54.23758,42.082279920578
1618836989.39566,-57.0163,42.09789991378784
1618836989.41129,-57.58955,42.113529920578
1618836989.42691,-55.50858,42.12914991378784
1618836989.44254,-50.7592,42.144779920578
1618836989.45816,-43.74886,42.16039991378784
1618836989.47379,-35.235,42.176029920578
1618836989.48942,-26.04874,42.191659927368164
1618836989.50504,-16.89771,42.207279920578
1618836989.52067,-8.267654,42.222909927368164
1618836989.53629,-0.3884583,42.238529920578
1618836989.55192,6.63414,42.254159927368164
1618836989.56754,12.72418,42.269779920578
1618836989.58317,17.79645,42.285409927368164
1618836989.5988,21.78535,42.301039934158325
1618836989.61442,24.70327,42.316659927368164
1618836989.63005,26.67329,42.332289934158325
1618836989.64567,27.93699,42.347909927368164
1618836989.6613,28.75182,42.363539934158325
1618836989.67692,29.33018,42.379159927368164
1618836989.69255,29.7417,42.394789934158325
1618836989.70818,29.96684,42.410419940948486
1618836989.7238,29.91668,42.426039934158325
1618836989.73943,29.57795,42.441669940948486
1618836989.75505,29.00706,42.457289934158325
1618836989.77068,28.37067,42.472919940948486
1618836989.7863,27.83007,42.488539934158325
1618836989.80193,27.45193,42.504169940948486
1618836989.81756,27.12408,42.51979994773865
1618836989.83318,26.60833,42.535419940948486
1618836989.84881,25.61467,42.55104994773865
1618836989.86443,23.98118,42.566669940948486
1618836989.88006,21.73035,42.58229994773865
1618836989.89568,19.05312,42.597919940948486
1618836989.91131,16.2235,42.61354994773865
1618836989.92694,13.4599,42.62917995452881
1618836989.94256,10.82902,42.64479994773865
1618836989.95819,8.264526,42.66042995452881
1618836989.97381,5.613762,42.67604994773865
1618836989.98944,2.719521,42.69167995452881
1618836990.00506,-0.4818344,42.70729994773865
1618836990.02069,-3.989304,42.72292995452881
1618836990.03632,-7.707947,42.73855996131897
1618836990.05194,-11.51718,42.75417995452881
1618836990.06757,-15.29328,42.76980996131897
1618836990.08319,-18.93479,42.78542995452881
1618836990.09882,-22.41978,42.80105996131897
1618836990.11444,-25.81981,42.81667995452881
1618836990.13007,-29.35236,42.83230996131897
1618836990.1457,-33.32733,42.84793996810913
1618836990.16132,-38.04496,42.86355996131897
1618836990.17695,-43.63998,42.87918996810913
1618836990.19257,-49.89532,42.89480996131897
1618836990.2082,-56.17448,42.91043996810913
1618836990.22382,-61.53841,42.92605996131897
1618836990.23945,-64.94424,42.94168996810913
1618836990.25508,-65.57505,42.95731997489929
1618836990.2707,-63.09724,42.97293996810913
1618836990.28633,-57.71278,42.98856997489929
1618836990.30195,-50.07088,43.00418996810913
1618836990.31758,-41.05591,43.01981997489929
1618836990.3332,-31.52823,43.03543996810913
1618836990.34883,-22.17813,43.05106997489929
1618836990.36446,-13.42226,43.06669998168945
1618836990.38008,-5.455833,43.08231997489929
1618836990.39571,1.709991,43.09794998168945
1618836990.41133,8.131432,43.11356997489929
1618836990.42696,13.88103,43.12919998168945
1618836990.44258,18.9667,43.14481997489929
1618836990.45821,23.32695,43.16044998168945
1618836990.47384,26.85251,43.176079988479614
1618836990.48946,29.48239,43.19169998168945
1618836990.50509,31.25185,43.207329988479614
1618836990.52071,32.31146,43.22294998168945
1618836990.53634,32.89596,43.238579988479614
1618836990.55197,33.18506,43.254209995269775
1618836990.56759,33.24339,43.269829988479614
1618836990.58322,33.03294,43.285459995269775
1618836990.59884,32.50248,43.301079988479614
1618836990.61447,31.70394,43.316709995269775
1618836990.63009,30.83837,43.332329988479614
1618836990.64572,30.17802,43.347959995269775
1618836990.66135,29.8899,43.36359000205994
1618836990.67697,29.88369,43.379209995269775
1618836990.6926,29.84449,43.39484000205994
1618836990.70822,29.38315,43.410459995269775
1618836990.72385,28.21754,43.42609000205994
1618836990.73947,26.33713,43.441709995269775
1618836990.7551,23.98321,43.45734000205994
1618836990.77073,21.49695,43.4729700088501
1618836990.78635,19.12283,43.48859000205994
1618836990.80198,16.90574,43.5042200088501
1618836990.8176,14.68967,43.51984000205994
1618836990.83323,12.22475,43.5354700088501
1618836990.84885,9.315125,43.55109000205994
1618836990.86448,5.868774,43.5667200088501
1618836990.88011,1.922028,43.58235001564026
1618836990.89573,-2.387039,43.5979700088501
1618836990.91136,-6.874496,43.61360001564026
1618836990.92698,-11.33675,43.6292200088501
1618836990.94261,-15.61861,43.64485001564026
1618836990.95823,-19.65632,43.6604700088501
1618836990.97386,-23.58743,43.67610001564026
1618836990.98949,-27.73459,43.69173002243042
1618836991.00511,-32.52942,43.70735001564026
1618836991.02074,-38.31199,43.72298002243042
1618836991.03636,-45.06859,43.73860001564026
1618836991.05199,-52.31676,43.75423002243042
1618836991.06761,-59.12965,43.76985001564026
1618836991.08324,-64.38548,43.78548002243042
1618836991.09887,-67.08992,43.80111002922058
1618836991.11449,-66.67351,43.81673002243042
1618836991.13012,-63.13382,43.83236002922058
1618836991.14574,-56.95793,43.84798002243042
1618836991.16137,-48.92561,43.86361002922058
1618836991.17699,-39.8829,43.87923002243042
1618836991.19262,-30.59129,43.89486002922058
1618836991.20825,-21.63377,43.91049003601074
1618836991.22387,-13.37335,43.92611002922058
1618836991.2395,-5.986355,43.94174003601074
1618836991.25512,0.5325127,43.95736002922058
1618836991.27075,6.321793,43.97299003601074
1618836991.28637,11.55996,43.98861002922058
1618836991.302,16.40876,44.00424003601074
1618836991.31763,20.93599,44.0198700428009
1618836991.33325,25.11037,44.03549003601074
1618836991.34888,28.82317,44.0511200428009
1618836991.3645,31.96152,44.06674003601074
1618836991.38013,34.43606,44.0823700428009
1618836991.39575,36.24507,44.09799003601074
1618836991.41138,37.45361,44.1136200428009
1618836991.42701,38.2,44.129250049591064
1618836991.44263,38.64405,44.1448700428009
1618836991.45826,38.92783,44.160500049591064
1618836991.47388,39.11391,44.1761200428009
1618836991.48951,39.16782,44.191750049591064
1618836991.50513,38.98363,44.2073700428009
1618836991.52076,38.39725,44.223000049591064
1618836991.53639,37.28659,44.238630056381226
1618836991.55201,35.5835,44.254250049591064
1618836991.56764,33.3453,44.269880056381226
1618836991.58326,30.70337,44.285500049591064
1618836991.59889,27.8754,44.301130056381226
1618836991.61451,25.07494,44.316750049591064
1618836991.63014,22.46832,44.332380056381226
1618836991.64577,20.07391,44.34801006317139
1618836991.66139,17.75251,44.363630056381226
1618836991.67702,15.2576,44.37926006317139
1618836991.69264,12.33535,44.394880056381226
1618836991.70827,8.883089,44.41051006317139
1618836991.72389,4.961515,44.426130056381226
1618836991.73952,0.8114309,44.44176006317139
1618836991.75515,-3.331026,44.45739006996155
1618836991.77077,-7.339931,44.47301006317139
1618836991.7864,-11.32508,44.48864006996155
1618836991.80202,-15.53012,44.50426006317139
1618836991.81765,-20.22905,44.51989006996155
1618836991.83327,-25.56147,44.53551006317139
1618836991.8489,-31.43962,44.55114006996155
1618836991.86453,-37.51807,44.56677007675171
1618836991.88015,-43.22756,44.58239006996155
1618836991.89578,-47.85408,44.59802007675171
1618836991.9114,-50.61329,44.61364006996155
1618836991.92703,-50.84106,44.62927007675171
1618836991.94265,-48.15255,44.64489006996155
1618836991.95828,-42.63085,44.66052007675171
1618836991.97391,-34.83894,44.67615008354187
1618836991.98953,-25.70509,44.69177007675171
1618836992.00516,-16.24587,44.70740008354187
1618836992.02078,-7.275885,44.72302007675171
1618836992.03641,0.7108026,44.73865008354187
1618836992.05203,7.614045,44.75427007675171
1618836992.06766,13.51072,44.76990008354187
1618836992.08329,18.53851,44.78553009033203
1618836992.09891,22.76513,44.80115008354187
1618836992.11454,26.12836,44.81678009033203
1618836992.13016,28.54124,44.83240008354187
1618836992.14579,29.94734,44.84803009033203
1618836992.16141,30.39208,44.86365008354187
1618836992.17704,30.05834,44.87928009033203
1618836992.19267,29.20805,44.89491009712219
1618836992.20829,28.15162,44.91053009033203
1618836992.22392,27.12848,44.92616009712219
1618836992.23954,26.30322,44.94178009033203
1618836992.25517,25.73754,44.95741009712219
1618836992.27079,25.41704,44.97303009033203
1618836992.28642,25.28471,44.98866009712219
1618836992.30205,25.26909,45.00429010391235
1618836992.31767,25.26674,45.01991009712219
1618836992.3333,25.14572,45.03554010391235
1618836992.34892,24.72822,45.05116009712219
1618836992.36455,23.81394,45.06679010391235
1618836992.38017,22.27213,45.08241009712219
1618836992.3958,20.07367,45.09804010391235
1618836992.41143,17.33423,45.113669872283936
1618836992.42705,14.32186,45.12929010391235
1618836992.44268,11.34433,45.144919872283936
1618836992.4583,8.650187,45.16054010391235
1618836992.47393,6.295801,45.176169872283936
1618836992.48955,4.159376,45.19179010391235
1618836992.50518,1.948067,45.207419872283936
1618836992.52081,-0.6620398,45.2230498790741
1618836992.53643,-3.846151,45.238669872283936
1618836992.55206,-7.583368,45.2542998790741
1618836992.56768,-11.64031,45.269919872283936
1618836992.58331,-15.7047,45.2855498790741
1618836992.59893,-19.50815,45.301169872283936
1618836992.61456,-22.986,45.3167998790741
1618836992.63019,-26.28919,45.33242988586426
1618836992.64581,-29.72613,45.3480498790741
1618836992.66144,-33.66413,45.36367988586426
1618836992.67706,-38.39947,45.3792998790741
1618836992.69269,-43.98301,45.39492988586426
1618836992.70831,-50.1306,45.4105498790741
1618836992.72394,-56.17613,45.42617988586426
1618836992.73957,-61.18956,45.44180989265442
1618836992.75519,-64.16267,45.45742988586426
1618836992.77082,-64.3559,45.47305989265442
1618836992.78644,-61.49945,45.48867988586426
1618836992.80207,-55.8663,45.50430989265442
1618836992.81769,-48.17384,45.51992988586426
1618836992.83332,-39.30122,45.53555989265442
1618836992.84895,-30.03106,45.55118989944458
1618836992.86457,-20.90761,45.56680989265442
1618836992.8802,-12.18463,45.58243989944458
1618836992.89582,-3.946482,45.59805989265442
1618836992.91145,3.772345,45.61368989944458
1618836992.92707,10.92273,45.62930989265442
1618836992.9427,17.40282,45.64493989944458
1618836992.95833,23.13026,45.66056990623474
1618836992.97395,28.04335,45.67618989944458
1618836992.98958,32.09927,45.69181990623474
1618836993.0052,35.28101,45.70743989944458
1618836993.02083,37.60006,45.72306990623474
1618836993.03645,39.09352,45.73868989944458
1618836993.05208,39.84209,45.75431990623474
