timestamp,value,norm_ts
1617991893.19171,24.20489,3.1421499252319336
1617991893.20734,21.03614,3.1577799320220947
1617991893.22297,17.67873,3.173409938812256
1617991893.23859,14.32632,3.1890299320220947
1617991893.25422,11.27421,3.204659938812256
1617991893.26984,8.784721,3.2202799320220947
1617991893.28547,6.992546,3.235909938812256
1617991893.30109,5.976768,3.2515299320220947
1617991893.31672,5.599075,3.267159938812256
1617991893.33235,5.724335,3.282789945602417
1617991893.34797,6.200714,3.298409938812256
1617991893.3636,6.983788,3.314039945602417
1617991893.37922,8.019279,3.329659938812256
1617991893.39485,9.243752,3.345289945602417
1617991893.41047,10.52752,3.360909938812256
1617991893.4261,11.53954,3.376539945602417
1617991893.44173,11.94412,3.392169952392578
1617991893.45735,11.36843,3.407789945602417
1617991893.47298,9.64196,3.423419952392578
1617991893.4886,6.80027,3.439039945602417
1617991893.50423,3.151718,3.454669952392578
1617991893.51985,-0.8495789,3.470289945602417
1617991893.53548,-4.741974,3.485919952392578
1617991893.55111,-8.142883,3.5015499591827393
1617991893.56673,-10.92672,3.517169952392578
1617991893.58236,-13.09583,3.5327999591827393
1617991893.59798,-14.82167,3.548419952392578
1617991893.61361,-16.27446,3.5640499591827393
1617991893.62923,-17.49117,3.579669952392578
1617991893.64486,-18.48139,3.5952999591827393
1617991893.66049,-19.17853,3.6109299659729004
1617991893.67611,-19.60511,3.6265499591827393
1617991893.69174,-19.9368,3.6421799659729004
1617991893.70736,-20.65646,3.6577999591827393
1617991893.72299,-22.20672,3.6734299659729004
1617991893.73861,-25.06586,3.6890499591827393
1617991893.75424,-29.40075,3.7046799659729004
1617991893.76987,-34.86698,3.7203099727630615
1617991893.78549,-40.68202,3.7359299659729004
1617991893.80112,-45.51433,3.7515599727630615
1617991893.81674,-47.89871,3.7671799659729004
1617991893.83237,-46.57117,3.7828099727630615
1617991893.84799,-41.03577,3.7984299659729004
1617991893.86362,-31.6134,3.8140599727630615
1617991893.87925,-19.57626,3.8296899795532227
1617991893.89487,-6.761696,3.8453099727630615
1617991893.9105,5.035362,3.8609399795532227
1617991893.92612,14.33781,3.8765599727630615
1617991893.94175,20.43479,3.8921899795532227
1617991893.95737,23.33264,3.9078099727630615
1617991893.973,23.66272,3.9234399795532227
1617991893.98863,22.30212,3.939069986343384
1617991894.00425,20.22442,3.9546899795532227
1617991894.01988,18.21306,3.970319986343384
1617991894.0355,16.82697,3.9859399795532227
1617991894.05113,16.22953,4.001569986343384
1617991894.06675,16.22666,4.017189979553223
1617991894.08238,16.50594,4.032819986343384
1617991894.09801,16.75854,4.048449993133545
1617991894.11363,16.93124,4.064069986343384
1617991894.12926,17.22211,4.079699993133545
1617991894.14488,18.01105,4.095319986343384
1617991894.16051,19.52873,4.110949993133545
1617991894.17613,21.72778,4.126569986343384
1617991894.19176,24.28857,4.142199993133545
1617991894.20739,26.68076,4.157829999923706
1617991894.22301,28.46587,4.173449993133545
1617991894.23864,29.48065,4.189079999923706
1617991894.25426,29.69256,4.204699993133545
1617991894.26989,29.25574,4.220329999923706
1617991894.28551,28.22061,4.235949993133545
1617991894.30114,26.52904,4.251579999923706
1617991894.31677,23.98538,4.267210006713867
1617991894.33239,20.57369,4.282829999923706
1617991894.34802,16.39308,4.298460006713867
1617991894.36364,11.69049,4.314079999923706
1617991894.37927,6.85096,4.329710006713867
1617991894.39489,2.062996,4.345329999923706
1617991894.41052,-2.478355,4.360960006713867
1617991894.42615,-6.749168,4.376590013504028
1617991894.44177,-10.67074,4.392210006713867
1617991894.4574,-14.17667,4.407840013504028
1617991894.47302,-17.15953,4.423460006713867
1617991894.48865,-19.60859,4.439090013504028
1617991894.50427,-21.71863,4.454710006713867
1617991894.5199,-23.80616,4.470340013504028
1617991894.53553,-26.20604,4.4859700202941895
1617991894.55115,-29.08157,4.501590013504028
1617991894.56678,-32.2561,4.5172200202941895
1617991894.5824,-35.11249,4.532840013504028
1617991894.59803,-36.69788,4.5484700202941895
1617991894.61365,-35.94848,4.564090013504028
1617991894.62928,-32.14487,4.5797200202941895
1617991894.64491,-25.16441,4.595350027084351
1617991894.66053,-15.58201,4.6109700202941895
1617991894.67616,-4.565529,4.626600027084351
1617991894.69178,6.476028,4.6422200202941895
1617991894.70741,16.25896,4.657850027084351
1617991894.72304,23.86927,4.673480033874512
1617991894.73866,28.99844,4.689100027084351
1617991894.75429,31.74059,4.704730033874512
1617991894.76991,32.44421,4.720350027084351
1617991894.78554,31.50994,4.735980033874512
1617991894.80116,29.25165,4.751600027084351
1617991894.81679,25.95292,4.767230033874512
1617991894.83242,21.909,4.782860040664673
1617991894.84804,17.49635,4.798480033874512
1617991894.86367,13.12596,4.814110040664673
1617991894.87929,9.233086,4.829730033874512
1617991894.89492,6.159523,4.845360040664673
1617991894.91054,4.147789,4.860980033874512
1617991894.92617,3.24205,4.876610040664673
1617991894.9418,3.336174,4.892240047454834
1617991894.95742,4.223907,4.907860040664673
1617991894.97305,5.610359,4.923490047454834
1617991894.98867,7.190994,4.939110040664673
1617991895.0043,8.638298,4.954740047454834
1617991895.01992,9.701149,4.970360040664673
1617991895.03555,10.21416,4.985990047454834
1617991895.05118,10.11233,5.001619815826416
1617991895.0668,9.47821,5.017240047454834
1617991895.08243,8.389999,5.032869815826416
1617991895.09805,6.989944,5.048490047454834
1617991895.11368,5.386063,5.064119815826416
1617991895.1293,3.60704,5.079740047454834
1617991895.14493,1.548187,5.095369815826416
1617991895.16056,-0.889679,5.110999822616577
1617991895.17618,-3.804504,5.126619815826416
1617991895.19181,-7.12999,5.142249822616577
1617991895.20743,-10.63675,5.157869815826416
1617991895.22306,-14.0251,5.173499822616577
1617991895.23868,-17.05934,5.189119815826416
1617991895.25431,-19.67296,5.204749822616577
1617991895.26994,-22.00096,5.220379829406738
1617991895.28556,-24.27556,5.235999822616577
1617991895.30119,-26.75645,5.251629829406738
1617991895.31681,-29.72023,5.267249822616577
1617991895.33244,-33.33168,5.282879829406738
1617991895.34806,-37.66701,5.298499822616577
1617991895.36369,-42.49576,5.314129829406738
1617991895.37932,-47.10959,5.329759836196899
1617991895.39494,-50.33324,5.345379829406738
1617991895.41057,-50.81631,5.361009836196899
1617991895.42619,-47.38408,5.376629829406738
1617991895.44182,-39.75233,5.392259836196899
1617991895.45744,-28.65454,5.407879829406738
1617991895.47307,-15.71054,5.423509836196899
1617991895.4887,-2.965607,5.4391398429870605
1617991895.50432,7.807831,5.454759836196899
1617991895.51995,15.57594,5.4703898429870605
1617991895.53557,20.18855,5.486009836196899
1617991895.5512,22.12477,5.5016398429870605
1617991895.56682,22.23112,5.517259836196899
1617991895.58245,21.36932,5.5328898429870605
1617991895.59808,20.19177,5.548519849777222
1617991895.6137,19.17484,5.5641398429870605
1617991895.62933,18.60352,5.579769849777222
1617991895.64495,18.54771,5.5953898429870605
1617991895.66058,18.97293,5.611019849777222
1617991895.6762,19.66554,5.6266398429870605
1617991895.69183,20.31807,5.642269849777222
1617991895.70746,20.61734,5.657899856567383
1617991895.72308,20.33762,5.673519849777222
1617991895.73871,19.4769,5.689149856567383
1617991895.75433,18.21661,5.704769849777222
1617991895.76996,16.96346,5.720399856567383
1617991895.78558,16.11784,5.736019849777222
1617991895.80121,15.94637,5.751649856567383
1617991895.81684,16.44354,5.767279863357544
1617991895.83246,17.27538,5.782899856567383
1617991895.84809,17.97205,5.798529863357544
1617991895.86371,18.05525,5.814149856567383
1617991895.87934,17.30763,5.829779863357544
1617991895.89496,15.76198,5.845399856567383
1617991895.91059,13.62592,5.861029863357544
1617991895.92622,11.12134,5.876659870147705
1617991895.94184,8.399673,5.892279863357544
1617991895.95747,5.370651,5.907909870147705
1617991895.97309,1.917953,5.923529863357544
1617991895.98872,-2.033035,5.939159870147705
1617991896.00434,-6.45517,5.954779863357544
1617991896.01997,-11.12381,5.970409870147705
1617991896.0356,-15.75966,5.986039876937866
1617991896.05122,-20.04904,6.001659870147705
1617991896.06685,-23.85518,6.017289876937866
1617991896.08247,-27.13431,6.032909870147705
1617991896.0981,-30.00037,6.048539876937866
1617991896.11372,-32.68085,6.064159870147705
1617991896.12935,-35.38963,6.079789876937866
1617991896.14498,-38.25569,6.095419883728027
1617991896.1606,-41.08343,6.111039876937866
1617991896.17623,-43.33663,6.126669883728027
1617991896.19185,-44.06834,6.142289876937866
1617991896.20748,-42.1981,6.157919883728027
1617991896.2231,-36.90489,6.173539876937866
1617991896.23873,-27.98714,6.189169883728027
1617991896.25436,-16.15988,6.2047998905181885
1617991896.26998,-2.844101,6.220419883728027
1617991896.28561,10.14209,6.2360498905181885
1617991896.30123,21.11425,6.251669883728027
1617991896.31686,28.98105,6.2672998905181885
1617991896.33248,33.45042,6.282919883728027
1617991896.34811,34.80701,6.2985498905181885
1617991896.36374,33.78394,6.31417989730835
1617991896.37936,31.2018,6.3297998905181885
1617991896.39499,27.75165,6.34542989730835
1617991896.41061,24.05545,6.3610498905181885
1617991896.42624,20.50474,6.37667989730835
1617991896.44186,17.41946,6.3922998905181885
1617991896.45749,14.92114,6.40792989730835
1617991896.47312,13.06957,6.423559904098511
1617991896.48874,11.77748,6.43917989730835
1617991896.50437,10.96638,6.454809904098511
1617991896.51999,10.64153,6.47042989730835
1617991896.53562,10.80647,6.486059904098511
1617991896.55124,11.51374,6.50167989730835
1617991896.56687,12.68193,6.517309904098511
1617991896.5825,14.07661,6.532939910888672
1617991896.59812,15.29105,6.548559904098511
1617991896.61375,15.93211,6.564189910888672
1617991896.62937,15.61383,6.579809904098511
1617991896.645,14.22951,6.595439910888672
1617991896.66062,11.91072,6.611059904098511
1617991896.67625,8.851883,6.626689910888672
1617991896.69188,5.374603,6.642319917678833
1617991896.7075,1.74968,6.657939910888672
1617991896.72313,-1.770859,6.673569917678833
1617991896.73875,-4.956207,6.689189910888672
1617991896.75438,-7.605804,6.704819917678833
1617991896.77,-9.597244,6.720439910888672
1617991896.78563,-10.82489,6.736069917678833
1617991896.80126,-11.24396,6.751699924468994
1617991896.81688,-10.99594,6.767319917678833
1617991896.83251,-10.17531,6.782949924468994
1617991896.84813,-9.009705,6.798569917678833
1617991896.86376,-7.766739,6.814199924468994
1617991896.87938,-6.835464,6.829819917678833
1617991896.89501,-6.709335,6.845449924468994
1617991896.91064,-7.882919,6.861079931259155
1617991896.92626,-10.67387,6.876699924468994
1617991896.94189,-14.89038,6.892329931259155
1617991896.95751,-19.79849,6.907949924468994
1617991896.97314,-24.02856,6.923579931259155
1617991896.98877,-26.11017,6.939209938049316
1617991897.00439,-24.86424,6.954829931259155
1617991897.02002,-19.94586,6.970459938049316
1617991897.03564,-11.99084,6.986079931259155
1617991897.05127,-2.427139,7.001709938049316
1617991897.06689,6.946777,7.017329931259155
1617991897.08252,14.59747,7.032959938049316
1617991897.09815,19.5869,7.0485899448394775
1617991897.11377,21.8273,7.064209938049316
1617991897.1294,21.77348,7.0798399448394775
1617991897.14502,20.18704,7.095459938049316
1617991897.16065,17.90324,7.1110899448394775
1617991897.17627,15.5238,7.126709938049316
1617991897.1919,13.37703,7.1423399448394775
1617991897.20753,11.55862,7.157969951629639
1617991897.22315,10.00096,7.1735899448394775
1617991897.23878,8.597626,7.189219951629639
1617991897.2544,7.334152,7.2048399448394775
1617991897.27003,6.250916,7.220469951629639
1617991897.28565,5.469788,7.2360899448394775
1617991897.30128,5.225327,7.251719951629639
1617991897.31691,5.645493,7.2673499584198
1617991897.33253,6.679367,7.282969951629639
1617991897.34816,8.184464,7.2985999584198
1617991897.36378,9.901535,7.314219951629639
1617991897.37941,11.57669,7.3298499584198
1617991897.39503,12.97867,7.345469951629639
1617991897.41066,13.96417,7.3610999584198
1617991897.42629,14.3862,7.376729965209961
1617991897.44191,14.18765,7.3923499584198
1617991897.45754,13.28848,7.407979965209961
1617991897.47316,11.62112,7.4235999584198
1617991897.48879,9.252869,7.439229965209961
1617991897.50441,6.329849,7.4548499584198
1617991897.52004,3.060425,7.470479965209961
1617991897.53567,-0.3859406,7.486109972000122
1617991897.55129,-3.952362,7.501729965209961
1617991897.56692,-7.690567,7.517359972000122
1617991897.58254,-11.7207,7.532979965209961
1617991897.59817,-16.06242,7.548609972000122
1617991897.61379,-20.61325,7.564229965209961
1617991897.62942,-25.06218,7.579859972000122
1617991897.64505,-29.04816,7.595489978790283
1617991897.66067,-32.30566,7.611109972000122
1617991897.6763,-34.82951,7.626739978790283
1617991897.69192,-36.89445,7.642359972000122
1617991897.70755,-38.92595,7.657989978790283
1617991897.72317,-41.27434,7.673609972000122
1617991897.7388,-43.80836,7.689239978790283
1617991897.75443,-45.87306,7.704869985580444
1617991897.77005,-46.30415,7.720489978790283
1617991897.78568,-43.97746,7.736119985580444
1617991897.8013,-38.11865,7.751739978790283
1617991897.81693,-28.76881,7.767369985580444
1617991897.83255,-16.76685,7.782989978790283
1617991897.84818,-3.59584,7.798619985580444
1617991897.86381,9.028214,7.8142499923706055
1617991897.87943,19.70227,7.829869985580444
1617991897.89506,27.5038,7.8454999923706055
1617991897.91068,32.21568,7.861119985580444
1617991897.92631,34.07997,7.8767499923706055
1617991897.94193,33.60181,7.892369985580444
1617991897.95756,31.39783,7.9079999923706055
1617991897.97319,28.0313,7.923629999160767
1617991897.98881,23.96169,7.9392499923706055
1617991898.00444,19.5627,7.954879999160767
1617991898.02006,15.11864,7.9704999923706055
1617991898.03569,10.9939,7.986129999160767
1617991898.05131,7.545456,8.001749992370605
1617991898.06694,5.08989,8.017379999160767
1617991898.08257,3.676895,8.033010005950928
1617991898.09819,3.233444,8.048629999160767
1617991898.11382,3.431564,8.064260005950928
1617991898.12944,3.961548,8.079879999160767
1617991898.14507,4.594315,8.095510005950928
1617991898.16069,5.342529,8.111129999160767
1617991898.17632,6.317703,8.126760005950928
1617991898.19195,7.595627,8.142390012741089
1617991898.20757,9.107819,8.158010005950928
1617991898.2232,10.521,8.173640012741089
1617991898.23882,11.49483,8.189260005950928
1617991898.25445,11.69023,8.204890012741089
1617991898.27007,10.99829,8.220510005950928
1617991898.2857,9.42543,8.236140012741089
1617991898.30133,7.110489,8.25177001953125
1617991898.31695,4.140747,8.267390012741089
1617991898.33258,0.5654144,8.28302001953125
1617991898.3482,-3.499802,8.298640012741089
1617991898.36383,-7.855469,8.31427001953125
1617991898.37945,-12.1011,8.329890012741089
1617991898.39508,-15.86575,8.34552001953125
1617991898.41071,-18.80859,8.361150026321411
1617991898.42633,-20.88518,8.37677001953125
1617991898.44196,-22.21735,8.392400026321411
1617991898.45758,-23.23294,8.40802001953125
1617991898.47321,-24.39989,8.423650026321411
1617991898.48883,-26.11694,8.43927001953125
1617991898.50446,-28.51451,8.454900026321411
1617991898.52009,-31.25647,8.470530033111572
1617991898.53571,-33.61998,8.486150026321411
1617991898.55134,-34.52078,8.501780033111572
1617991898.56696,-32.85025,8.517400026321411
1617991898.58259,-27.9704,8.533030033111572
1617991898.59821,-19.98309,8.548650026321411
1617991898.61384,-9.866699,8.564280033111572
1617991898.62947,0.8345032,8.579910039901733
1617991898.64509,10.42921,8.595530033111572
1617991898.66072,17.67336,8.611160039901733
1617991898.67634,22.03915,8.626780033111572
1617991898.69197,23.76376,8.642410039901733
1617991898.70759,23.60019,8.658030033111572
1617991898.72322,22.3486,8.673660039901733
1617991898.73885,20.51205,8.689290046691895
1617991898.75447,18.21855,8.704910039901733
1617991898.7701,15.41879,8.720540046691895
1617991898.78572,12.02573,8.736160039901733
1617991898.80135,8.292633,8.751790046691895
1617991898.81697,4.723755,8.767410039901733
1617991898.8326,1.983841,8.783040046691895
1617991898.84823,0.5738831,8.798669815063477
1617991898.86385,0.6164856,8.814290046691895
1617991898.87948,1.76796,8.829919815063477
1617991898.8951,3.386002,8.845540046691895
1617991898.91073,4.969162,8.861169815063477
1617991898.92635,6.15271,8.876790046691895
1617991898.94198,6.979935,8.892419815063477
1617991898.95761,7.594574,8.908049821853638
1617991898.97323,8.251556,8.923669815063477
1617991898.98886,8.963898,8.939299821853638
1617991899.00448,9.477905,8.954919815063477
1617991899.02011,9.470276,8.970549821853638
1617991899.03573,8.617874,8.986169815063477
1617991899.05136,6.8396,9.001799821853638
1617991899.06699,4.26828,9.017429828643799
1617991899.08261,1.330429,9.033049821853638
1617991899.09824,-1.582077,9.048679828643799
1617991899.11386,-4.187622,9.064299821853638
1617991899.12949,-6.514053,9.079929828643799
1617991899.14511,-8.920822,9.095549821853638
1617991899.16074,-11.80495,9.111179828643799
1617991899.17637,-15.47694,9.12680983543396
1617991899.19199,-20.0079,9.142429828643799
1617991899.20762,-25.21556,9.15805983543396
1617991899.22324,-30.59497,9.173679828643799
1617991899.23887,-35.55051,9.18930983543396
1617991899.25449,-39.27434,9.204929828643799
1617991899.27012,-40.91035,9.22055983543396
1617991899.28575,-39.6595,9.236189842224121
1617991899.30137,-34.98315,9.25180983543396
1617991899.317,-26.90919,9.267439842224121
1617991899.33262,-16.15401,9.28305983543396
1617991899.34825,-4.116135,9.298689842224121
1617991899.36387,7.642868,9.31430983543396
1617991899.3795,17.7309,9.329939842224121
1617991899.39513,25.28289,9.345569849014282
1617991899.41075,30.07561,9.361189842224121
1617991899.42638,32.44489,9.376819849014282
1617991899.442,32.90273,9.392439842224121
1617991899.45763,31.83138,9.408069849014282
1617991899.47325,29.52152,9.423689842224121
1617991899.48888,26.07522,9.439319849014282
1617991899.50451,21.64511,9.454949855804443
1617991899.52013,16.50888,9.470569849014282
1617991899.53576,11.17377,9.486199855804443
1617991899.55138,6.227806,9.501819849014282
1617991899.56701,2.260796,9.517449855804443
1617991899.58264,-0.3549042,9.533079862594604
1617991899.59826,-1.544731,9.548699855804443
1617991899.61389,-1.51239,9.564329862594604
1617991899.62951,-0.5898132,9.579949855804443
1617991899.64514,0.8966064,9.595579862594604
1617991899.66076,2.714195,9.611199855804443
1617991899.67639,4.688797,9.626829862594604
1617991899.69202,6.594467,9.642459869384766
1617991899.70764,8.079926,9.658079862594604
1617991899.72327,8.690102,9.673709869384766
1617991899.73889,8.017227,9.689329862594604
1617991899.75452,5.870552,9.704959869384766
1617991899.77014,2.453423,9.720579862594604
1617991899.78577,-1.605309,9.736209869384766
1617991899.8014,-5.632683,9.751839876174927
1617991899.81702,-8.975166,9.767459869384766
1617991899.83265,-11.33897,9.783089876174927
1617991899.84827,-12.85235,9.798709869384766
1617991899.8639,-13.97178,9.814339876174927
1617991899.87952,-15.30036,9.829959869384766
1617991899.89515,-17.34673,9.845589876174927
1617991899.91078,-20.52055,9.861219882965088
1617991899.9264,-24.81611,9.876839876174927
1617991899.94203,-29.89196,9.892469882965088
1617991899.95765,-34.90061,9.908089876174927
1617991899.97328,-38.63879,9.923719882965088
1617991899.9889,-39.81212,9.939339876174927
1617991900.00453,-37.4082,9.954969882965088
1617991900.02016,-31.12556,9.970599889755249
1617991900.03578,-21.53577,9.986219882965088
1617991900.05141,-10.12528,10.001849889755249
1617991900.06703,1.276665,10.017469882965088
1617991900.08266,10.96511,10.033099889755249
1617991900.09828,17.90766,10.048719882965088
1617991900.11391,21.96597,10.064349889755249
1617991900.12954,23.69361,10.07997989654541
1617991900.14516,23.95895,10.095599889755249
1617991900.16079,23.51807,10.11122989654541
1617991900.17641,22.73099,10.126849889755249
1617991900.19204,21.53213,10.14247989654541
1617991900.20766,19.75645,10.158099889755249
1617991900.22329,17.29002,10.17372989654541
1617991900.23892,14.28313,10.189359903335571
1617991900.25454,11.15237,10.20497989654541
1617991900.27017,8.290916,10.220609903335571
1617991900.28579,6.042801,10.23622989654541
1617991900.30142,4.497986,10.251859903335571
1617991900.31704,3.525719,10.26747989654541
1617991900.33267,2.982368,10.283109903335571
1617991900.3483,2.740021,10.298739910125732
1617991900.36392,2.706795,10.314359903335571
1617991900.37955,2.762207,10.329989910125732
1617991900.39517,2.892372,10.345609903335571
1617991900.4108,2.994331,10.361239910125732
1617991900.42642,3.008057,10.376859903335571
1617991900.44205,2.697182,10.392489910125732
1617991900.45768,1.768562,10.408119916915894
1617991900.4733,0.04118347,10.423739910125732
1617991900.48893,-2.575752,10.439369916915894
1617991900.50455,-6.033951,10.454989910125732
1617991900.52018,-10.12786,10.470619916915894
1617991900.5358,-14.40434,10.486239910125732
1617991900.55143,-18.44413,10.501869916915894
1617991900.56706,-21.89893,10.517499923706055
1617991900.58268,-24.66686,10.533119916915894
1617991900.59831,-27.0432,10.548749923706055
1617991900.61393,-29.4353,10.564369916915894
1617991900.62956,-32.40184,10.579999923706055
1617991900.64518,-36.58344,10.595619916915894
1617991900.66081,-42.42748,10.611249923706055
1617991900.67644,-49.81982,10.626879930496216
1617991900.69206,-57.98689,10.642499923706055
1617991900.70769,-65.46017,10.658129930496216
1617991900.72331,-70.49076,10.673749923706055
1617991900.73894,-71.61886,10.689379930496216
1617991900.75456,-67.57897,10.704999923706055
1617991900.77019,-58.23061,10.720629930496216
1617991900.78582,-44.86812,10.736259937286377
1617991900.80144,-29.90549,10.751879930496216
1617991900.81707,-15.88292,10.767509937286377
1617991900.83269,-4.575533,10.783129930496216
1617991900.84832,3.218408,10.798759937286377
1617991900.86394,7.553153,10.814379930496216
1617991900.87957,8.768033,10.830009937286377
1617991900.8952,8.286089,10.845639944076538
1617991900.91082,7.1314,10.861259937286377
1617991900.92645,5.37909,10.876889944076538
1617991900.94207,2.208162,10.892509937286377
1617991900.9577,-3.023753,10.908139944076538
1617991900.97332,-10.18402,10.923759937286377
1617991900.98895,-18.48958,10.939389944076538
1617991901.00458,-26.96104,10.9550199508667
1617991901.0202,-34.99864,10.970639944076538
1617991901.03583,-40.62649,10.9862699508667
1617991901.05145,-42.46293,11.001889944076538
1617991901.06708,-40.74786,11.0175199508667
1617991901.0827,-37.5172,11.033139944076538
1617991901.09833,-34.99073,11.0487699508667
1617991901.11396,-34.50503,11.06439995765686
1617991901.12958,-35.8139,11.0800199508667
1617991901.14521,-37.18784,11.09564995765686
1617991901.16083,-35.65464,11.1112699508667
1617991901.17646,-25.53001,11.12689995765686
1617991901.19208,-2.078575,11.1425199508667
1617991901.20771,35.85567,11.15814995765686
1617991901.22334,84.96767,11.173779964447021
1617991901.23896,139.5875,11.18939995765686
1617991901.25459,193.7419,11.205029964447021
1617991901.27021,242.713,11.22064995765686
1617991901.28584,283.4403,11.236279964447021
1617991901.30146,299.89,11.25189995765686
1617991901.31709,280.8152,11.267529964447021
1617991901.33272,227.2799,11.283159971237183
1617991901.34834,152.9356,11.298779964447021
1617991901.36397,73.57478,11.314409971237183
1617991901.37959,-0.7819519,11.330029964447021
1617991901.39522,-66.62053,11.345659971237183
1617991901.41084,-123.9144,11.361279964447021
1617991901.42647,-173.8968,11.376909971237183
1617991901.4421,-217.581,11.392539978027344
1617991901.45772,-253.6674,11.408159971237183
1617991901.47335,-280.7607,11.423789978027344
1617991901.48897,-299.0419,11.439409971237183
1617991901.5046,-312.2355,11.455039978027344
1617991901.52022,-322.0399,11.470659971237183
1617991901.53585,-328.7167,11.486289978027344
1617991901.55148,-331.4678,11.501919984817505
1617991901.5671,-329.3163,11.517539978027344
1617991901.58273,-321.0606,11.533169984817505
1617991901.59835,-304.5577,11.548789978027344
1617991901.61398,-278.7206,11.564419984817505
1617991901.6296,-244.5807,11.580039978027344
1617991901.64523,-205.1327,11.595669984817505
1617991901.66086,-163.4545,11.611299991607666
1617991901.67648,-121.5373,11.626919984817505
1617991901.69211,-79.41211,11.642549991607666
1617991901.70773,-40.90137,11.658169984817505
1617991901.72336,-8.347626,11.673799991607666
1617991901.73899,17.64862,11.689429998397827
1617991901.75461,37.08182,11.705049991607666
1617991901.77024,49.77756,11.720679998397827
1617991901.78586,55.18207,11.736299991607666
1617991901.80149,53.54825,11.751929998397827
1617991901.81711,45.62503,11.767549991607666
1617991901.83274,32.50281,11.783179998397827
1617991901.84837,15.13242,11.798810005187988
1617991901.86399,-4.937012,11.814429998397827
1617991901.87962,-25.87897,11.830060005187988
1617991901.89524,-45.79993,11.845679998397827
1617991901.91087,-63.37146,11.861310005187988
1617991901.92649,-78.03644,11.876929998397827
1617991901.94212,-89.16669,11.892560005187988
1617991901.95775,-96.41821,11.90819001197815
1617991901.97337,-99.78656,11.923810005187988
1617991901.989,-99.75549,11.93944001197815
1617991902.00462,-96.43463,11.955060005187988
1617991902.02025,-89.87848,11.97069001197815
1617991902.03587,-79.66235,11.986310005187988
1617991902.0515,-65.28345,12.00194001197815
1617991902.06713,-46.49457,12.01757001876831
1617991902.08275,-22.54218,12.03319001197815
1617991902.09838,6.641418,12.04882001876831
1617991902.114,39.80011,12.06444001197815
1617991902.12963,74.28241,12.08007001876831
1617991902.14525,107.0123,12.09569001197815
1617991902.16088,134.5958,12.11132001876831
1617991902.17651,155.1255,12.126950025558472
1617991902.19213,167.7986,12.14257001876831
1617991902.20776,172.7064,12.158200025558472
1617991902.22338,172.7872,12.17382001876831
1617991902.23901,170.7158,12.189450025558472
1617991902.25463,167.3615,12.20507001876831
1617991902.27026,161.5167,12.220700025558472
1617991902.28589,151.2115,12.236330032348633
1617991902.30151,134.1487,12.251950025558472
1617991902.31714,111.4857,12.267580032348633
1617991902.33276,86.08447,12.283200025558472
1617991902.34839,61.45361,12.298830032348633
1617991902.36401,45.49194,12.314450025558472
1617991902.37964,44.21118,12.330080032348633
1617991902.39527,58.66052,12.345710039138794
1617991902.41089,84.57361,12.361330032348633
1617991902.42652,115.077,12.376960039138794
1617991902.44214,141.9092,12.392580032348633
1617991902.45777,163.2161,12.408210039138794
1617991902.47339,180.0476,12.423830032348633
1617991902.48902,194.6765,12.439460039138794
1617991902.50465,217.0353,12.455090045928955
1617991902.52027,255.3646,12.470710039138794
1617991902.5359,311.7988,12.486340045928955
1617991902.55152,381.4478,12.501960039138794
1617991902.56715,455.5587,12.517590045928955
1617991902.58277,521.9229,12.533210039138794
1617991902.5984,576.0228,12.548840045928955
1617991902.61403,615.6652,12.564469814300537
1617991902.62965,640.213,12.580090045928955
1617991902.64528,661.08,12.595719814300537
1617991902.6609,691.2362,12.611340045928955
1617991902.67653,738.9775,12.626969814300537
1617991902.69215,804.6753,12.642590045928955
1617991902.70778,882.2695,12.658219814300537
1617991902.72341,958.3483,12.673849821090698
1617991902.73903,1026.504,12.689469814300537
1617991902.75466,1081.469,12.705099821090698
1617991902.77028,1060.058,12.720719814300537
1617991902.78591,926.6223,12.736349821090698
1617991902.80153,687.9332,12.751969814300537
1617991902.81716,392.3051,12.767599821090698
1617991902.83279,99.12744,12.78322982788086
1617991902.84841,-122.5909,12.798849821090698
1617991902.86404,-282.054,12.81447982788086
1617991902.87966,-398.1951,12.830099821090698
1617991902.89529,-487.0266,12.84572982788086
1617991902.91091,-559.8174,12.861349821090698
1617991902.92654,-618.7924,12.87697982788086
1617991902.94217,-659.7974,12.89260983467102
1617991902.95779,-681.2632,12.90822982788086
1617991902.97342,-686.4378,12.92385983467102
1617991902.98904,-681.0744,12.93947982788086
1617991903.00467,-674.8275,12.95510983467102
1617991903.02029,-668.5416,12.97072982788086
1617991903.03592,-662.1425,12.98635983467102
1617991903.05155,-656.2643,13.001989841461182
1617991903.06717,-643.8557,13.01760983467102
1617991903.0828,-617.6429,13.033239841461182
1617991903.09842,-575.29,13.04885983467102
1617991903.11405,-521.1394,13.064489841461182
1617991903.12967,-463.7644,13.08010983467102
1617991903.1453,-415.0839,13.095739841461182
1617991903.16093,-378.1627,13.111369848251343
1617991903.17655,-352.0748,13.126989841461182
1617991903.19218,-333.6983,13.142619848251343
1617991903.2078,-314.4023,13.158239841461182
1617991903.22343,-286.4411,13.173869848251343
1617991903.23905,-247.2449,13.189489841461182
1617991903.25468,-199.9163,13.205119848251343
1617991903.27031,-150.7519,13.220749855041504
1617991903.28593,-107.7917,13.236369848251343
1617991903.30156,-73.20444,13.251999855041504
1617991903.31718,-46.76212,13.267619848251343
1617991903.33281,-27.4451,13.283249855041504
1617991903.34843,-11.91925,13.298869848251343
1617991903.36406,2.663635,13.314499855041504
1617991903.37969,16.81308,13.330129861831665
1617991903.39531,28.89136,13.345749855041504
1617991903.41094,36.46225,13.361379861831665
1617991903.42656,37.05261,13.376999855041504
1617991903.44219,31.73563,13.392629861831665
1617991903.45781,23.03165,13.408249855041504
1617991903.47344,13.61874,13.423879861831665
1617991903.48907,6.355194,13.439509868621826
1617991903.50469,2.910767,13.455129861831665
1617991903.52032,3.103943,13.470759868621826
1617991903.53594,5.314575,13.486379861831665
1617991903.55157,7.369049,13.502009868621826
1617991903.56719,7.33725,13.517629861831665
1617991903.58282,4.95578,13.533259868621826
1617991903.59845,0.8233643,13.548889875411987
1617991903.61407,-4.066711,13.564509868621826
1617991903.6297,-8.690399,13.580139875411987
1617991903.64532,-12.20007,13.595759868621826
1617991903.66095,-14.17935,13.611389875411987
1617991903.67657,-14.63315,13.627009868621826
1617991903.6922,-14.04666,13.642639875411987
1617991903.70783,-13.08466,13.658269882202148
1617991903.72345,-12.38428,13.673889875411987
1617991903.73908,-12.34262,13.689519882202148
1617991903.7547,-12.89572,13.705139875411987
1617991903.77033,-13.60678,13.720769882202148
1617991903.78595,-13.83118,13.736389875411987
1617991903.80158,-12.98413,13.752019882202148
1617991903.81721,-10.78821,13.76764988899231
1617991903.83283,-7.393097,13.783269882202148
1617991903.84846,-3.368652,13.79889988899231
1617991903.86408,0.6663208,13.814519882202148
1617991903.87971,4.172974,13.83014988899231
1617991903.89533,7.170197,13.845769882202148
1617991903.91096,10.20175,13.86139988899231
1617991903.92659,14.17398,13.87702989578247
1617991903.94221,20.04382,13.89264988899231
1617991903.95784,28.28088,13.90827989578247
1617991903.97346,38.58862,13.92389988899231
1617991903.98909,49.94086,13.93952989578247
1617991904.00471,60.91803,13.95514988899231
1617991904.02034,69.99164,13.97077989578247
1617991904.03597,76.20215,13.986409902572632
1617991904.05159,79.11218,14.00202989578247
1617991904.06722,78.85052,14.017659902572632
1617991904.08284,75.88861,14.03327989578247
1617991904.09847,70.85321,14.048909902572632
1617991904.11409,64.39215,14.06452989578247
1617991904.12972,57.21259,14.080159902572632
1617991904.14535,50.12244,14.095789909362793
1617991904.16097,43.75024,14.111409902572632
1617991904.1766,38.6272,14.127039909362793
1617991904.19222,34.90558,14.142659902572632
1617991904.20785,32.35284,14.158289909362793
1617991904.22347,30.38202,14.173909902572632
1617991904.2391,28.37219,14.189539909362793
1617991904.25473,25.88434,14.205169916152954
1617991904.27035,22.87463,14.220789909362793
1617991904.28598,19.67957,14.236419916152954
1617991904.3016,16.81775,14.252039909362793
1617991904.31723,14.70801,14.267669916152954
1617991904.33285,13.56763,14.283289909362793
1617991904.34848,13.2124,14.298919916152954
1617991904.36411,13.15875,14.314549922943115
1617991904.37973,12.69757,14.330169916152954
1617991904.39536,11.07312,14.345799922943115
1617991904.41098,7.794189,14.361419916152954
1617991904.42661,2.738281,14.377049922943115
1617991904.44224,-3.755859,14.392679929733276
1617991904.45786,-10.93329,14.408299922943115
1617991904.47349,-17.97156,14.423929929733276
1617991904.48911,-24.18323,14.439549922943115
1617991904.50474,-29.25714,14.455179929733276
1617991904.52036,-33.3562,14.470799922943115
1617991904.53599,-36.99731,14.486429929733276
1617991904.55162,-40.84821,14.502059936523438
1617991904.56724,-45.42065,14.517679929733276
1617991904.58287,-50.84918,14.533309936523438
1617991904.59849,-56.67926,14.548929929733276
1617991904.61412,-61.95038,14.564559936523438
1617991904.62974,-65.36395,14.580179929733276
1617991904.64537,-65.57532,14.595809936523438
1617991904.661,-61.66199,14.611439943313599
1617991904.67662,-53.43146,14.627059936523438
1617991904.69225,-41.54456,14.642689943313599
1617991904.70787,-27.27625,14.658309936523438
1617991904.7235,-12.17041,14.673939943313599
1617991904.73912,2.496277,14.689559936523438
1617991904.75475,15.88257,14.705189943313599
1617991904.77038,27.64545,14.72081995010376
1617991904.786,37.7674,14.736439943313599
1617991904.80163,46.37506,14.75206995010376
1617991904.81725,53.56122,14.767689943313599
1617991904.83288,59.2915,14.78331995010376
1617991904.8485,63.56201,14.798939943313599
1617991904.86413,66.31683,14.81456995010376
1617991904.87976,67.70612,14.830199956893921
1617991904.89538,67.91364,14.84581995010376
1617991904.91101,67.21021,14.861449956893921
1617991904.92663,65.86707,14.87706995010376
1617991904.94226,64.05579,14.892699956893921
1617991904.95788,61.96002,14.90831995010376
1617991904.97351,59.61316,14.923949956893921
1617991904.98914,57.05835,14.939579963684082
1617991905.00476,54.26898,14.955199956893921
1617991905.02039,51.2572,14.970829963684082
1617991905.03601,48.12311,14.986449956893921
1617991905.05164,45.06702,15.002079963684082
1617991905.06726,42.25336,15.017699956893921
1617991905.08289,39.72565,15.033329963684082
1617991905.09852,37.38635,15.048959970474243
1617991905.11414,34.92206,15.064579963684082
1617991905.12977,32.07983,15.080209970474243
1617991905.14539,28.65326,15.095829963684082
1617991905.16102,24.53033,15.111459970474243
1617991905.17664,19.65271,15.127079963684082
1617991905.19227,13.85162,15.142709970474243
1617991905.2079,6.747803,15.158339977264404
1617991905.22352,-2.127014,15.173959970474243
1617991905.23915,-13.10449,15.189589977264404
1617991905.25477,-26.0863,15.205209970474243
1617991905.2704,-40.42383,15.220839977264404
1617991905.28602,-55.06934,15.236459970474243
1617991905.30165,-68.8559,15.252089977264404
1617991905.31728,-80.70856,15.267719984054565
1617991905.3329,-89.82019,15.283339977264404
1617991905.34853,-95.55115,15.298969984054565
1617991905.36415,-97.4057,15.314589977264404
1617991905.37978,-95.00238,15.330219984054565
1617991905.3954,-88.20111,15.345839977264404
1617991905.41103,-77.30573,15.361469984054565
1617991905.42666,-63.09167,15.377099990844727
1617991905.44228,-46.74835,15.392719984054565
1617991905.45791,-29.53625,15.408349990844727
1617991905.47353,-12.52771,15.423969984054565
1617991905.48916,3.487671,15.439599990844727
1617991905.50478,18.03485,15.455219984054565
1617991905.52041,30.7713,15.470849990844727
1617991905.53604,41.35059,15.486479997634888
1617991905.55166,49.42029,15.502099990844727
1617991905.56729,54.67291,15.517729997634888
1617991905.58291,57.00146,15.533349990844727
1617991905.59854,56.57605,15.548979997634888
1617991905.61416,53.91028,15.564599990844727
1617991905.62979,49.7439,15.580229997634888
1617991905.64542,44.95392,15.595860004425049
1617991905.66104,40.27472,15.611479997634888
1617991905.67667,36.23004,15.627110004425049
1617991905.69229,33.08655,15.642729997634888
1617991905.70792,30.84692,15.658360004425049
1617991905.72354,29.44702,15.673979997634888
1617991905.73917,28.68805,15.689610004425049
1617991905.7548,28.42059,15.70524001121521
1617991905.77042,28.38519,15.720860004425049
1617991905.78605,28.35199,15.73649001121521
1617991905.80167,27.99799,15.752110004425049
1617991905.8173,27.0766,15.76774001121521
1617991905.83292,25.46387,15.783360004425049
1617991905.84855,23.12628,15.79899001121521
1617991905.86418,20.2392,15.814620018005371
1617991905.8798,17.02966,15.83024001121521
1617991905.89543,13.85785,15.845870018005371
1617991905.91105,10.92407,15.86149001121521
1617991905.92668,8.391174,15.877120018005371
1617991905.9423,6.160339,15.89274001121521
1617991905.95793,3.789246,15.908370018005371
1617991905.97356,0.7461548,15.924000024795532
1617991905.98918,-3.531372,15.939620018005371
1617991906.00481,-9.205017,15.955250024795532
1617991906.02043,-15.86877,15.970870018005371
1617991906.03606,-22.42877,15.986500024795532
1617991906.05168,-27.40741,16.00212001800537
1617991906.06731,-29.39783,16.017750024795532
1617991906.08294,-27.4408,16.033380031585693
1617991906.09856,-21.52838,16.049000024795532
1617991906.11419,-12.51093,16.064630031585693
1617991906.12981,-1.841003,16.080250024795532
1617991906.14544,8.89032,16.095880031585693
1617991906.16106,18.31317,16.111500024795532
1617991906.17669,25.53406,16.127130031585693
1617991906.19232,30.18616,16.142760038375854
1617991906.20794,32.19019,16.158380031585693
1617991906.22357,31.81708,16.174010038375854
1617991906.23919,29.48077,16.189630031585693
1617991906.25482,25.70563,16.205260038375854
1617991906.27044,21.15033,16.220880031585693
1617991906.28607,16.47028,16.236510038375854
1617991906.3017,12.29413,16.252140045166016
1617991906.31732,9.026367,16.267760038375854
1617991906.33295,6.85083,16.283390045166016
1617991906.34857,5.689697,16.299010038375854
1617991906.3642,5.328613,16.314640045166016
1617991906.37982,5.504944,16.330260038375854
1617991906.39545,6.09021,16.345890045166016
1617991906.41108,7.033997,16.361519813537598
1617991906.4267,8.203796,16.377140045166016
1617991906.44233,9.552612,16.392769813537598
1617991906.45795,10.83746,16.408390045166016
1617991906.47358,11.76587,16.424019813537598
1617991906.4892,12.06958,16.439640045166016
1617991906.50483,11.58112,16.455269813537598
1617991906.52046,10.25757,16.47089982032776
1617991906.53608,8.200378,16.486519813537598
1617991906.55171,5.57312,16.50214982032776
1617991906.56733,2.418884,16.517769813537598
1617991906.58296,-1.189941,16.53339982032776
1617991906.59859,-5.299866,16.54902982711792
1617991906.61421,-10.01587,16.56464982032776
1617991906.62984,-15.38202,16.58027982711792
1617991906.64546,-21.46069,16.59589982032776
1617991906.66109,-28.15997,16.61152982711792
1617991906.67671,-35.18774,16.62714982032776
1617991906.69234,-41.82562,16.64277982711792
1617991906.70797,-47.09351,16.65840983390808
1617991906.72359,-49.85016,16.67402982711792
1617991906.73922,-49.08124,16.68965983390808
1617991906.75484,-44.32129,16.70527982711792
1617991906.77047,-35.74023,16.72090983390808
1617991906.78609,-24.36682,16.73652982711792
1617991906.80172,-11.62335,16.75215983390808
1617991906.81735,1.009644,16.767789840698242
1617991906.83297,12.34198,16.78340983390808
1617991906.8486,21.67157,16.799039840698242
1617991906.86422,28.76611,16.81465983390808
1617991906.87985,33.68829,16.830289840698242
1617991906.89547,36.55115,16.84590983390808
1617991906.9111,37.68268,16.861539840698242
1617991906.92673,37.25934,16.877169847488403
1617991906.94235,35.60107,16.892789840698242
1617991906.95798,33.08038,16.908419847488403
1617991906.9736,30.06836,16.924039840698242
1617991906.98923,26.96082,16.939669847488403
1617991907.00485,24.11987,16.955289840698242
1617991907.02048,21.7915,16.970919847488403
1617991907.03611,20.02808,16.986549854278564
1617991907.05173,18.87335,17.002169847488403
1617991907.06736,18.1767,17.017799854278564
1617991907.08298,17.81342,17.033419847488403
1617991907.09861,17.66943,17.049049854278564
1617991907.11423,17.66162,17.064669847488403
1617991907.12986,17.75818,17.080299854278564
1617991907.14549,17.93353,17.095929861068726
1617991907.16111,18.08026,17.111549854278564
1617991907.17674,17.88074,17.127179861068726
1617991907.19236,16.96124,17.142799854278564
1617991907.20799,14.89508,17.158429861068726
1617991907.22361,11.49078,17.174049854278564
1617991907.23924,6.81488,17.189679861068726
1617991907.25487,1.226563,17.205309867858887
1617991907.27049,-4.718445,17.220929861068726
1617991907.28612,-10.49847,17.236559867858887
1617991907.30174,-15.77374,17.252179861068726
1617991907.31737,-20.55005,17.267809867858887
1617991907.33299,-25.08984,17.283429861068726
1617991907.34862,-29.82123,17.299059867858887
1617991907.36425,-35.11237,17.314689874649048
1617991907.37987,-41.06689,17.330309867858887
1617991907.3955,-47.44409,17.345939874649048
1617991907.41112,-53.51758,17.361559867858887
1617991907.42675,-58.19263,17.377189874649048
1617991907.44237,-60.24438,17.392809867858887
1617991907.458,-58.59961,17.408439874649048
1617991907.47363,-52.78546,17.42406988143921
1617991907.48925,-43.08478,17.439689874649048
1617991907.50488,-30.54559,17.45531988143921
1617991907.5205,-16.66193,17.470939874649048
1617991907.53613,-3.082031,17.48656988143921
1617991907.55175,8.846619,17.502189874649048
1617991907.56738,18.36572,17.51781988143921
1617991907.58301,25.29437,17.53344988822937
1617991907.59863,29.88556,17.54906988143921
1617991907.61426,32.64502,17.56469988822937
1617991907.62988,34.05066,17.58031988143921
1617991907.64551,34.40936,17.59594988822937
1617991907.66113,33.987,17.61156988143921
1617991907.67676,32.98328,17.62719988822937
1617991907.69239,31.6319,17.64282989501953
1617991907.70801,30.1955,17.65844988822937
1617991907.72364,28.89777,17.67407989501953
1617991907.73926,27.83508,17.68969988822937
1617991907.75489,27.02307,17.70532989501953
1617991907.77051,26.36176,17.72094988822937
1617991907.78614,25.70599,17.73657989501953
1617991907.80177,25.03625,17.752209901809692
1617991907.81739,24.42529,17.76782989501953
1617991907.83302,23.97247,17.783459901809692
1617991907.84864,23.70947,17.79907989501953
1617991907.86427,23.50745,17.814709901809692
1617991907.87989,23.09338,17.83032989501953
1617991907.89552,22.17291,17.845959901809692
1617991907.91115,20.51489,17.861589908599854
1617991907.92677,18.01166,17.877209901809692
1617991907.9424,14.68274,17.892839908599854
1617991907.95802,10.66968,17.908459901809692
1617991907.97365,6.109619,17.924089908599854
1617991907.98927,1.12323,17.939709901809692
1617991908.0049,-4.130859,17.955339908599854
1617991908.02053,-9.480774,17.970969915390015
1617991908.03615,-14.70288,17.986589908599854
1617991908.05178,-19.5658,18.002219915390015
1617991908.0674,-23.91174,18.017839908599854
1617991908.08303,-27.7038,18.033469915390015
1617991908.09865,-31.10193,18.049089908599854
1617991908.11428,-34.44403,18.064719915390015
1617991908.12991,-38.20844,18.080349922180176
1617991908.14553,-42.80792,18.095969915390015
1617991908.16116,-48.50183,18.111599922180176
1617991908.17678,-55.02521,18.127219915390015
1617991908.19241,-61.5755,18.142849922180176
1617991908.20803,-66.91962,18.158469915390015
1617991908.22366,-69.58521,18.174099922180176
1617991908.23929,-68.40759,18.189729928970337
1617991908.25491,-62.87762,18.205349922180176
1617991908.27054,-53.42731,18.220979928970337
1617991908.28616,-41.21075,18.236599922180176
1617991908.30179,-27.83466,18.252229928970337
1617991908.31741,-14.81665,18.267849922180176
1617991908.33304,-3.30304,18.283479928970337
1617991908.34867,6.006042,18.299109935760498
1617991908.36429,12.88593,18.314729928970337
1617991908.37992,17.52081,18.330359935760498
1617991908.39554,20.38049,18.345979928970337
1617991908.41117,22.15527,18.361609935760498
1617991908.42679,23.65997,18.377229928970337
1617991908.44242,25.49921,18.392859935760498
1617991908.45805,27.95355,18.40848994255066
1617991908.47367,30.83453,18.424109935760498
1617991908.4893,33.52179,18.43973994255066
1617991908.50492,35.32654,18.455359935760498
1617991908.52055,35.78668,18.47098994255066
1617991908.53617,34.83289,18.486609935760498
1617991908.5518,32.87048,18.50223994255066
1617991908.56743,30.51312,18.51786994934082
1617991908.58305,28.27631,18.53348994255066
1617991908.59868,26.36829,18.54911994934082
1617991908.6143,24.65344,18.56473994255066
1617991908.62993,22.68457,18.58036994934082
1617991908.64555,20.07806,18.59598994255066
1617991908.66118,16.59338,18.61161994934082
1617991908.67681,12.25079,18.62724995613098
1617991908.69243,7.36084,18.64286994934082
1617991908.70806,2.224426,18.65849995613098
1617991908.72368,-2.881714,18.67411994934082
1617991908.73931,-7.817017,18.68974995613098
1617991908.75493,-12.52362,18.70536994934082
1617991908.77056,-16.92639,18.72099995613098
1617991908.78619,-20.83459,18.736629962921143
1617991908.80181,-24.06897,18.75224995613098
1617991908.81744,-26.53986,18.767879962921143
1617991908.83306,-28.23578,18.78349995613098
1617991908.84869,-29.30103,18.799129962921143
1617991908.86432,-29.97943,18.814759969711304
1617991908.87994,-30.479,18.830379962921143
1617991908.89557,-31.08673,18.846009969711304
1617991908.91119,-32.09076,18.861629962921143
1617991908.92682,-33.82166,18.877259969711304
1617991908.94244,-36.62659,18.892879962921143
1617991908.95807,-40.76703,18.908509969711304
1617991908.9737,-46.22522,18.924139976501465
1617991908.98932,-52.52484,18.939759969711304
1617991909.00495,-58.77887,18.955389976501465
1617991909.02057,-63.68787,18.971009969711304
1617991909.0362,-65.92395,18.986639976501465
1617991909.05182,-64.40277,19.002259969711304
1617991909.06745,-58.6394,19.017889976501465
1617991909.08308,-48.93549,19.033519983291626
1617991909.0987,-36.30365,19.049139976501465
1617991909.11433,-22.2196,19.064769983291626
1617991909.12995,-8.26825,19.080389976501465
1617991909.14558,4.168335,19.096019983291626
1617991909.1612,14.21741,19.111639976501465
1617991909.17683,21.55621,19.127269983291626
1617991909.19246,26.37329,19.142899990081787
1617991909.20808,29.15942,19.158519983291626
1617991909.22371,30.49347,19.174149990081787
1617991909.23933,30.95569,19.189769983291626
1617991909.25496,30.97729,19.205399990081787
1617991909.27058,30.78308,19.221019983291626
1617991909.28621,30.46716,19.236649990081787
1617991909.30184,30.09979,19.25227999687195
1617991909.31746,29.65076,19.267899990081787
1617991909.33309,29.20892,19.28352999687195
1617991909.34871,28.82727,19.299149990081787
1617991909.36434,28.5191,19.31477999687195
1617991909.37996,28.31927,19.330399990081787
1617991909.39559,28.20386,19.34602999687195
1617991909.41122,28.14069,19.36166000366211
1617991909.42684,28.11267,19.37727999687195
1617991909.44247,28.1322,19.39291000366211
1617991909.45809,28.11292,19.40852999687195
1617991909.47372,27.91321,19.42416000366211
1617991909.48934,27.30029,19.43977999687195
1617991909.50497,26.09357,19.45541000366211
1617991909.5206,24.23132,19.47104001045227
1617991909.53622,21.79413,19.48666000366211
1617991909.55185,18.87921,19.50229001045227
1617991909.56747,15.57458,19.51791000366211
1617991909.5831,11.91229,19.53354001045227
1617991909.59872,7.843567,19.54916000366211
1617991909.61435,3.34259,19.56479001045227
1617991909.62998,-1.555481,19.58042001724243
1617991909.6456,-6.619263,19.59604001045227
1617991909.66123,-11.60852,19.61167001724243
1617991909.67685,-16.32544,19.62729001045227
1617991909.69248,-20.77966,19.64292001724243
1617991909.7081,-25.1601,19.65854001045227
1617991909.72373,-29.72406,19.67417001724243
1617991909.73936,-34.7644,19.689800024032593
1617991909.75498,-40.43341,19.70542001724243
1617991909.77061,-46.7218,19.721050024032593
1617991909.78623,-53.38019,19.73667001724243
1617991909.80186,-59.8407,19.752300024032593
1617991909.81748,-65.23279,19.76792001724243
1617991909.83311,-68.40308,19.783550024032593
1617991909.84874,-68.198,19.799180030822754
1617991909.86436,-63.79956,19.814800024032593
1617991909.87999,-55.16034,19.830430030822754
1617991909.89561,-42.98761,19.846050024032593
1617991909.91124,-28.73474,19.861680030822754
1617991909.92686,-14.16577,19.877300024032593
1617991909.94249,-0.9022827,19.892930030822754
1617991909.95812,9.967163,19.908560037612915
1617991909.97374,17.9715,19.924180030822754
1617991909.98937,23.22235,19.939810037612915
1617991910.00499,26.18347,19.955430030822754
1617991910.02062,27.36841,19.971060037612915
1617991910.03624,27.34686,19.986680030822754
1617991910.05187,26.5661,20.002310037612915
1617991910.0675,25.46283,20.017940044403076
1617991910.08312,24.38867,20.033560037612915
1617991910.09875,23.72772,20.049190044403076
1617991910.11437,23.84155,20.064810037612915
1617991910.13,24.93311,20.080440044403076
1617991910.14562,27.07343,20.096060037612915
1617991910.16125,30.17795,20.111690044403076
1617991910.17688,34.24411,20.127319812774658
1617991910.1925,39.39868,20.142940044403076
1617991910.20813,46.07953,20.158569812774658
1617991910.22375,54.76102,20.174190044403076
1617991910.23938,65.711,20.189819812774658
1617991910.255,78.67557,20.205440044403076
1617991910.27063,92.62137,20.221069812774658
1617991910.28626,105.9832,20.23669981956482
1617991910.30188,117.0247,20.252319812774658
1617991910.31751,124.4129,20.26794981956482
1617991910.33313,127.4925,20.283569812774658
1617991910.34876,126.3355,20.29919981956482
1617991910.36438,121.4018,20.314819812774658
1617991910.38001,113.2006,20.33044981956482
1617991910.39564,102.1937,20.34607982635498
1617991910.41126,88.74289,20.36169981956482
1617991910.42689,73.34647,20.37732982635498
1617991910.44251,56.7226,20.39294981956482
1617991910.45814,39.85992,20.40857982635498
1617991910.47376,23.70444,20.42419981956482
1617991910.48939,8.879578,20.43982982635498
1617991910.50502,-4.539978,20.45545983314514
1617991910.52064,-16.83929,20.47107982635498
1617991910.53627,-28.18881,20.48670983314514
1617991910.55189,-38.32147,20.50232982635498
1617991910.56752,-46.22485,20.51795983314514
1617991910.58314,-50.29614,20.53357982635498
1617991910.59877,-48.72861,20.54920983314514
1617991910.6144,-40.14651,20.564839839935303
1617991910.63002,-24.30731,20.58045983314514
1617991910.64565,-2.453064,20.596089839935303
1617991910.66127,23.06992,20.61170983314514
1617991910.6769,49.64139,20.627339839935303
1617991910.69252,74.92542,20.64295983314514
1617991910.70815,97.4122,20.658589839935303
1617991910.72378,116.3438,20.674219846725464
1617991910.7394,131.5169,20.689839839935303
1617991910.75503,143.1556,20.705469846725464
1617991910.77065,151.4305,20.721089839935303
1617991910.78628,156.2871,20.736719846725464
1617991910.8019,157.6576,20.752339839935303
1617991910.81753,155.7162,20.767969846725464
1617991910.83316,150.6442,20.783599853515625
1617991910.84878,142.3333,20.799219846725464
1617991910.86441,130.0887,20.814849853515625
1617991910.88003,112.9137,20.830469846725464
1617991910.89566,90.08305,20.846099853515625
1617991910.91128,61.44243,20.861719846725464
1617991910.92691,27.388,20.877349853515625
1617991910.94254,-10.76202,20.892979860305786
1617991910.95816,-50.79747,20.908599853515625
1617991910.97379,-90.08131,20.924229860305786
1617991910.98941,-126.2259,20.939849853515625
1617991911.00504,-157.7223,20.955479860305786
1617991911.02066,-183.8849,20.971099853515625
1617991911.03629,-203.8478,20.986729860305786
1617991911.05192,-215.0932,21.002359867095947
1617991911.06754,-216.0298,21.017979860305786
1617991911.08317,-207.8418,21.033609867095947
1617991911.09879,-194.0803,21.049229860305786
1617991911.11442,-178.3059,21.064859867095947
1617991911.13004,-162.6684,21.080479860305786
1617991911.14567,-147.7841,21.096109867095947
1617991911.1613,-133.2758,21.11173987388611
1617991911.17692,-118.4712,21.127359867095947
1617991911.19255,-103.4753,21.14298987388611
1617991911.20817,-89.50864,21.158609867095947
1617991911.2238,-78.10645,21.17423987388611
1617991911.23942,-70.064,21.189859867095947
1617991911.25505,-64.81963,21.20548987388611
1617991911.27068,-60.79077,21.22111988067627
1617991911.2863,-56.04284,21.23673987388611
1617991911.30193,-48.92207,21.25236988067627
1617991911.31755,-38.96382,21.26798987388611
1617991911.33318,-26.78646,21.28361988067627
1617991911.3488,-14.62819,21.29923987388611
1617991911.36443,-5.17809,21.31486988067627
1617991911.38006,-0.04209518,21.33049988746643
1617991911.39568,1.003839,21.34611988067627
1617991911.41131,-0.1880617,21.36174988746643
1617991911.42693,-1.250404,21.37736988067627
1617991911.44256,-0.1644297,21.39299988746643
1617991911.45819,4.068769,21.408629894256592
1617991911.47381,10.28734,21.42424988746643
1617991911.48944,15.70533,21.439879894256592
1617991911.50506,16.99671,21.45549988746643
1617991911.52069,11.48281,21.471129894256592
1617991911.53631,-2.317806,21.48674988746643
1617991911.55194,-24.93695,21.502379894256592
1617991911.56757,-56.10397,21.518009901046753
1617991911.58319,-94.80018,21.533629894256592
1617991911.59882,-133.215,21.549259901046753
1617991911.61444,-161.053,21.564879894256592
1617991911.63007,-168.5843,21.580509901046753
1617991911.64569,-151.8688,21.596129894256592
1617991911.66132,-115.3026,21.611759901046753
1617991911.67695,-69.56757,21.627389907836914
1617991911.69257,-26.62229,21.643009901046753
1617991911.7082,5.048098,21.658639907836914
1617991911.72382,22.90659,21.674259901046753
1617991911.73945,29.93384,21.689889907836914
1617991911.75507,30.86903,21.705509901046753
1617991911.7707,29.42823,21.721139907836914
1617991911.78633,26.7679,21.736769914627075
1617991911.80195,22.31709,21.752389907836914
1617991911.81758,15.45379,21.768019914627075
1617991911.8332,6.919319,21.783639907836914
1617991911.84883,-1.132929,21.799269914627075
1617991911.86445,-6.322639,21.814889907836914
1617991911.88008,-7.017193,21.830519914627075
1617991911.89571,-4.021404,21.846149921417236
1617991911.91133,0.1307735,21.861769914627075
1617991911.92696,2.112833,21.877399921417236
1617991911.94258,-0.4529114,21.893019914627075
1617991911.95821,-8.070559,21.908649921417236
1617991911.97383,-19.35197,21.924269914627075
1617991911.98946,-31.66041,21.939899921417236
1617991912.00509,-42.33211,21.955529928207397
1617991912.02071,-49.45485,21.971149921417236
1617991912.03634,-52.85781,21.986779928207397
1617991912.05196,-53.69822,22.002399921417236
1617991912.06759,-54.21183,22.018029928207397
1617991912.08321,-55.57692,22.033649921417236
1617991912.09884,-57.91883,22.049279928207397
1617991912.11447,-60.21553,22.06490993499756
1617991912.13009,-60.70677,22.080529928207397
1617991912.14572,-57.72865,22.09615993499756
1617991912.16134,-50.09956,22.111779928207397
1617991912.17697,-37.47551,22.12740993499756
1617991912.19259,-20.2133,22.143029928207397
1617991912.20822,0.6201706,22.15865993499756
1617991912.22385,23.27287,22.17428994178772
1617991912.23947,45.06461,22.18990993499756
1617991912.2551,62.69356,22.20553994178772
1617991912.27072,73.21616,22.22115993499756
1617991912.28635,74.88622,22.23678994178772
1617991912.30197,68.24594,22.25240993499756
1617991912.3176,56.36786,22.26803994178772
1617991912.33323,43.88567,22.28366994857788
1617991912.34885,35.33392,22.29928994178772
1617991912.36448,33.48467,22.31491994857788
1617991912.3801,38.24422,22.33053994178772
1617991912.39573,47.07747,22.34616994857788
1617991912.41135,56.52809,22.36178994178772
1617991912.42698,63.23875,22.37741994857788
1617991912.44261,65.13912,22.393049955368042
1617991912.45823,62.02047,22.40866994857788
1617991912.47386,55.11388,22.424299955368042
1617991912.48948,46.42863,22.43991994857788
1617991912.50511,38.04948,22.455549955368042
1617991912.52073,31.77277,22.47116994857788
1617991912.53636,26.85426,22.486799955368042
1617991912.55199,23.70094,22.502429962158203
1617991912.56761,22.49925,22.518049955368042
1617991912.58324,22.83828,22.533679962158203
1617991912.59886,23.78516,22.549299955368042
1617991912.61449,24.24563,22.564929962158203
1617991912.63011,23.73601,22.580549955368042
1617991912.64574,23.05852,22.596179962158203
1617991912.66137,24.37684,22.611809968948364
1617991912.67699,30.55652,22.627429962158203
1617991912.69262,44.12998,22.643059968948364
1617991912.70824,65.44489,22.658679962158203
1617991912.72387,92.19608,22.674309968948364
1617991912.73949,120.1378,22.689929962158203
1617991912.75512,144.7045,22.705559968948364
1617991912.77075,162.7652,22.721189975738525
1617991912.78637,173.5925,22.736809968948364
1617991912.802,178.5609,22.752439975738525
1617991912.81762,179.9517,22.768059968948364
1617991912.83325,179.8286,22.783689975738525
1617991912.84887,178.9794,22.799309968948364
1617991912.8645,177.2184,22.814939975738525
1617991912.88013,174.1164,22.830569982528687
1617991912.89575,169.7104,22.846189975738525
1617991912.91138,164.5525,22.861819982528687
1617991912.927,159.272,22.877439975738525
1617991912.94263,153.8369,22.893069982528687
1617991912.95825,147.3531,22.908689975738525
1617991912.97388,138.6231,22.924319982528687
1617991912.98951,126.6961,22.939949989318848
1617991913.00513,111.639,22.955569982528687
1617991913.02076,94.57705,22.971199989318848
1617991913.03638,77.28957,22.986819982528687
1617991913.05201,61.526,23.002449989318848
1617991913.06763,48.74313,23.018069982528687
1617991913.08326,40.11858,23.033699989318848
1617991913.09889,36.72935,23.04932999610901
1617991913.11451,39.40106,23.064949989318848
1617991913.13014,47.87762,23.08057999610901
1617991913.14576,60.27666,23.096199989318848
1617991913.16139,73.13632,23.11182999610901
1617991913.17701,82.49707,23.127449989318848
1617991913.19264,85.42404,23.14307999610901
1617991913.20827,81.49408,23.15871000289917
1617991913.22389,72.98022,23.17432999610901
1617991913.23952,63.80084,23.18996000289917
1617991913.25514,57.68234,23.20557999610901
1617991913.27077,56.3782,23.22121000289917
1617991913.28639,58.92618,23.23682999610901
1617991913.30202,62.2269,23.25246000289917
1617991913.31765,62.36496,23.26809000968933
1617991913.33327,55.94635,23.28371000289917
1617991913.3489,41.12244,23.29934000968933
1617991913.36452,17.91837,23.31496000289917
1617991913.38015,-11.98773,23.33059000968933
1617991913.39577,-45.79129,23.34621000289917
1617991913.4114,-80.25461,23.36184000968933
1617991913.42703,-112.517,23.377470016479492
1617991913.44265,-140.5479,23.39309000968933
1617991913.45828,-163.4657,23.408720016479492
1617991913.4739,-181.549,23.42434000968933
1617991913.48953,-196.1171,23.439970016479492
1617991913.50515,-209.2554,23.45559000968933
1617991913.52078,-222.9895,23.471220016479492
1617991913.53641,-238.0973,23.486850023269653
1617991913.55203,-252.7363,23.502470016479492
1617991913.56766,-262.0782,23.518100023269653
1617991913.58328,-259.4968,23.533720016479492
1617991913.59891,-239.6402,23.549350023269653
1617991913.61453,-201.7259,23.564970016479492
1617991913.63016,-151.4051,23.580600023269653
1617991913.64579,-99.5661,23.596230030059814
1617991913.66141,-58.29718,23.611850023269653
1617991913.67704,-36.06494,23.627480030059814
1617991913.69266,-34.60187,23.643100023269653
1617991913.70829,-49.02783,23.658730030059814
1617991913.72392,-70.9624,23.674360036849976
1617991913.73954,-92.63947,23.689980030059814
1617991913.75517,-109.4759,23.705610036849976
1617991913.77079,-120.3199,23.721230030059814
1617991913.78642,-125.7082,23.736860036849976
1617991913.80204,-125.9278,23.752480030059814
1617991913.81767,-120.3311,23.768110036849976
1617991913.8333,-108.1382,23.783740043640137
1617991913.84892,-89.76447,23.799360036849976
1617991913.86455,-67.69965,23.814990043640137
1617991913.88017,-45.9873,23.830610036849976
1617991913.8958,-28.71637,23.846240043640137
1617991913.91142,-18.37,23.861860036849976
1617991913.92705,-15.06171,23.877490043640137
1617991913.94268,-16.92957,23.89311981201172
1617991913.9583,-21.27454,23.908740043640137
1617991913.97393,-26.12457,23.92436981201172
1617991913.98955,-30.99823,23.939990043640137
1617991914.00518,-36.98615,23.95561981201172
1617991914.0208,-45.86353,23.971240043640137
1617991914.03643,-58.94824,23.98686981201172
1617991914.05206,-76.04443,24.00249981880188
1617991914.06768,-95.14093,24.01811981201172
1617991914.08331,-113.0389,24.03374981880188
1617991914.09893,-126.3268,24.04936981201172
1617991914.11456,-132.773,24.06499981880188
1617991914.13018,-131.9567,24.08061981201172
1617991914.14581,-125.4196,24.09624981880188
1617991914.16144,-115.8671,24.11187982559204
1617991914.17706,-106.1049,24.12749981880188
1617991914.19269,-98.06451,24.14312982559204
1617991914.20831,-92.2981,24.15874981880188
1617991914.22394,-88.36816,24.17437982559204
1617991914.23956,-85.37677,24.18999981880188
1617991914.25519,-82.76648,24.20562982559204
1617991914.27082,-80.59387,24.221259832382202
1617991914.28644,-79.42419,24.23687982559204
1617991914.30207,-79.8775,24.252509832382202
1617991914.31769,-82.17694,24.26812982559204
1617991914.33332,-85.98022,24.283759832382202
1617991914.34894,-90.42444,24.29937982559204
1617991914.36457,-94.60889,24.315009832382202
1617991914.3802,-97.77008,24.330639839172363
1617991914.39582,-99.49597,24.346259832382202
1617991914.41145,-99.65631,24.361889839172363
1617991914.42707,-98.22028,24.377509832382202
1617991914.4427,-95.28088,24.393139839172363
1617991914.45832,-90.7923,24.408759832382202
1617991914.47395,-84.5697,24.424389839172363
1617991914.48958,-76.21613,24.440019845962524
1617991914.5052,-65.29297,24.455639839172363
1617991914.52083,-51.362,24.471269845962524
1617991914.53645,-34.39624,24.486889839172363
1617991914.55208,-14.99786,24.502519845962524
1617991914.5677,5.620117,24.518139839172363
1617991914.58333,25.75085,24.533769845962524
1617991914.59896,43.84448,24.549399852752686
1617991914.61458,58.86255,24.565019845962524
1617991914.63021,70.63184,24.580649852752686
1617991914.64583,79.64209,24.596269845962524
1617991914.66146,86.8418,24.611899852752686
1617991914.67708,93.07007,24.627519845962524
1617991914.69271,98.78772,24.643149852752686
1617991914.70834,104.0338,24.658779859542847
1617991914.72396,108.3382,24.674399852752686
1617991914.73959,111.0713,24.690029859542847
1617991914.75521,111.5472,24.705649852752686
1617991914.77084,109.284,24.721279859542847
1617991914.78646,104.2148,24.736899852752686
1617991914.80209,96.7915,24.752529859542847
1617991914.81772,87.80621,24.768159866333008
1617991914.83334,78.26379,24.783779859542847
1617991914.84897,69.17059,24.799409866333008
1617991914.86459,61.25708,24.815029859542847
1617991914.88022,54.97198,24.830659866333008
1617991914.89584,50.4718,24.846279859542847
1617991914.91147,47.64322,24.861909866333008
1617991914.9271,46.18228,24.87753987312317
1617991914.94272,45.647,24.893159866333008
1617991914.95835,45.34094,24.90878987312317
1617991914.97397,44.49792,24.924409866333008
1617991914.9896,42.39331,24.94003987312317
1617991915.00522,38.43781,24.955659866333008
1617991915.02085,32.42624,24.97128987312317
1617991915.03648,24.56516,24.98691987991333
1617991915.0521,15.45297,25.00253987312317
1617991915.06773,6.008362,25.01816987991333
1617991915.08335,-2.849487,25.03378987312317
1617991915.09898,-10.5332,25.04941987991333
1617991915.1146,-16.82449,25.06503987312317
1617991915.13023,-22.04398,25.08066987991333
1617991915.14586,-26.85873,25.09629988670349
1617991915.16148,-32.08539,25.11191987991333
1617991915.17711,-38.39578,25.12754988670349
1617991915.19273,-46.1506,25.14316987991333
1617991915.20836,-54.948,25.15879988670349
1617991915.22398,-63.64337,25.17441987991333
1617991915.23961,-70.42627,25.19004988670349
1617991915.25524,-73.08511,25.205679893493652
1617991915.27086,-69.77753,25.22129988670349
1617991915.28649,-59.62897,25.236929893493652
1617991915.30211,-43.1918,25.25254988670349
1617991915.31774,-22.43399,25.268179893493652
1617991915.33336,-0.2330627,25.28379988670349
1617991915.34899,20.52756,25.299429893493652
1617991915.36462,37.69055,25.315059900283813
1617991915.38024,50.15936,25.330679893493652
1617991915.39587,58.03882,25.346309900283813
1617991915.41149,62.06726,25.361929893493652
1617991915.42712,63.26758,25.377559900283813
1617991915.44274,62.61108,25.393179893493652
1617991915.45837,60.75012,25.408809900283813
1617991915.474,58.1088,25.424439907073975
1617991915.48962,54.95773,25.440059900283813
1617991915.50525,51.45688,25.455689907073975
1617991915.52087,47.73444,25.471309900283813
1617991915.5365,44.0405,25.486939907073975
1617991915.55212,40.55096,25.502559900283813
1617991915.56775,37.52182,25.518189907073975
1617991915.58338,35.2218,25.533819913864136
1617991915.599,33.77011,25.549439907073975
1617991915.61463,33.30344,25.565069913864136
1617991915.63025,33.77081,25.580689907073975
1617991915.64588,34.9583,25.596319913864136
1617991915.6615,36.4099,25.611939907073975
1617991915.67713,37.63078,25.627569913864136
1617991915.69276,37.97339,25.643199920654297
1617991915.70838,36.99622,25.658819913864136
1617991915.72401,34.5538,25.674449920654297
1617991915.73963,30.69255,25.690069913864136
1617991915.75526,25.73042,25.705699920654297
1617991915.77088,20.02112,25.721319913864136
1617991915.78651,13.82977,25.736949920654297
1617991915.80214,7.350311,25.752579927444458
1617991915.81776,0.8158417,25.768199920654297
1617991915.83339,-5.58931,25.783829927444458
1617991915.84901,-11.62596,25.799449920654297
1617991915.86464,-17.06914,25.815079927444458
1617991915.88027,-21.97293,25.83070993423462
1617991915.89589,-26.46062,25.846329927444458
1617991915.91152,-30.88567,25.86195993423462
1617991915.92714,-35.75929,25.877579927444458
1617991915.94277,-41.54773,25.89320993423462
1617991915.95839,-48.5442,25.908829927444458
1617991915.97402,-56.79597,25.92445993423462
1617991915.98965,-65.72769,25.94008994102478
1617991916.00527,-73.99843,25.95570993423462
1617991916.0209,-79.71582,25.97133994102478
1617991916.03652,-80.64967,25.98695993423462
1617991916.05215,-74.96432,26.00258994102478
1617991916.06777,-61.96526,26.01820993423462
1617991916.0834,-42.41429,26.03383994102478
1617991916.09903,-18.52031,26.04946994781494
1617991916.11465,6.626938,26.06508994102478
1617991916.13028,29.99719,26.08071994781494
1617991916.1459,49.37924,26.09633994102478
1617991916.16153,63.80418,26.11196994781494
1617991916.17715,73.45599,26.12758994102478
1617991916.19278,79.24419,26.14321994781494
1617991916.20841,82.2486,26.158849954605103
1617991916.22403,83.37988,26.17446994781494
1617991916.23966,83.23485,26.190099954605103
1617991916.25528,82.15697,26.20571994781494
1617991916.27091,80.4635,26.221349954605103
1617991916.28653,78.47177,26.23696994781494
1617991916.30216,76.52286,26.252599954605103
1617991916.31779,74.86902,26.268229961395264
1617991916.33341,73.69739,26.283849954605103
1617991916.34904,73.08922,26.299479961395264
1617991916.36466,73.25281,26.315099954605103
1617991916.38029,74.4455,26.330729961395264
1617991916.39591,76.96577,26.346349954605103
1617991916.41154,81.08611,26.361979961395264
1617991916.42717,86.75331,26.377609968185425
1617991916.44279,93.50139,26.393229961395264
1617991916.45842,100.6531,26.408859968185425
1617991916.47404,107.4659,26.424479961395264
1617991916.48967,113.3055,26.440109968185425
1617991916.50529,117.9761,26.455729961395264
1617991916.52092,121.5848,26.471359968185425
1617991916.53655,124.32,26.486989974975586
1617991916.55217,126.4194,26.502609968185425
1617991916.5678,127.9071,26.518239974975586
1617991916.58342,128.6092,26.533859968185425
1617991916.59905,128.2707,26.549489974975586
1617991916.61467,126.7555,26.565109968185425
1617991916.6303,124.1065,26.580739974975586
1617991916.64593,120.7006,26.596369981765747
1617991916.66155,117.118,26.611989974975586
1617991916.67718,113.9948,26.627619981765747
1617991916.6928,111.8095,26.643239974975586
1617991916.70843,110.7049,26.658869981765747
1617991916.72405,110.2422,26.674489974975586
1617991916.73968,109.378,26.690119981765747
1617991916.75531,106.7683,26.705749988555908
1617991916.77093,101.1685,26.721369981765747
1617991916.78656,92.13434,26.736999988555908
1617991916.80218,80.49707,26.752619981765747
1617991916.81781,68.28021,26.768249988555908
1617991916.83343,58.27115,26.783869981765747
1617991916.84906,53.0784,26.799499988555908
1617991916.86469,54.07233,26.81512999534607
1617991916.88031,60.93219,26.830749988555908
1617991916.89594,71.78131,26.84637999534607
1617991916.91156,83.86517,26.861999988555908
1617991916.92719,94.56757,26.87762999534607
1617991916.94281,102.0877,26.893249988555908
1617991916.95844,105.697,26.90887999534607
1617991916.97407,105.5874,26.92451000213623
1617991916.98969,102.47,26.94012999534607
1617991917.00532,97.32056,26.95576000213623
1617991917.02094,91.31635,26.97137999534607
1617991917.03657,85.77393,26.98701000213623
1617991917.05219,81.9588,27.00262999534607
1617991917.06782,80.70898,27.01826000213623
1617991917.08345,81.97888,27.03389000892639
1617991917.09907,84.62457,27.04951000213623
1617991917.1147,86.57257,27.06514000892639
1617991917.13032,85.46704,27.08076000213623
1617991917.14595,79.60413,27.09639000892639
1617991917.16157,68.60504,27.11201000213623
1617991917.1772,53.60083,27.12764000892639
1617991917.19283,36.73401,27.143270015716553
1617991917.20845,20.22821,27.15889000892639
1617991917.22408,5.499146,27.174520015716553
1617991917.2397,-7.334106,27.19014000892639
1617991917.25533,-19.25366,27.205770015716553
1617991917.27095,-31.71167,27.22139000892639
1617991917.28658,-45.85272,27.237020015716553
1617991917.30221,-61.92352,27.252650022506714
1617991917.31783,-79.39294,27.268270015716553
1617991917.33346,-97.34967,27.283900022506714
1617991917.34908,-115.0487,27.299520015716553
1617991917.36471,-132.3722,27.315150022506714
1617991917.38033,-149.839,27.330770015716553
1617991917.39596,-168.0756,27.346400022506714
1617991917.41159,-187.1798,27.362030029296875
1617991917.42721,-206.3179,27.377650022506714
1617991917.44284,-223.5667,27.393280029296875
1617991917.45846,-236.6703,27.408900022506714
1617991917.47409,-243.6265,27.424530029296875
1617991917.48971,-243.5808,27.440150022506714
1617991917.50534,-237.1083,27.455780029296875
1617991917.52097,-226.0792,27.471410036087036
1617991917.53659,-213.1605,27.487030029296875
1617991917.55222,-201.6046,27.502660036087036
1617991917.56784,-195.1255,27.518280029296875
1617991917.58347,-197.4443,27.533910036087036
1617991917.59909,-211.2983,27.549530029296875
1617991917.61472,-236.9305,27.565160036087036
1617991917.63035,-271.0219,27.580790042877197
1617991917.64597,-306.7112,27.596410036087036
1617991917.6616,-335.6514,27.612040042877197
1617991917.67722,-350.8986,27.627660036087036
1617991917.69285,-349.6013,27.643290042877197
1617991917.70847,-333.9988,27.658910036087036
1617991917.7241,-309.9116,27.674540042877197
1617991917.73973,-284.0083,27.69016981124878
1617991917.75535,-261.0417,27.705790042877197
1617991917.77098,-242.5311,27.72141981124878
1617991917.7866,-227.3679,27.737040042877197
1617991917.80223,-213.5183,27.75266981124878
1617991917.81785,-199.3348,27.768290042877197
1617991917.83348,-184.0443,27.78391981124878
1617991917.84911,-167.1984,27.79954981803894
1617991917.86473,-147.663,27.81516981124878
1617991917.88036,-123.4467,27.83079981803894
1617991917.89598,-92.61548,27.84641981124878
1617991917.91161,-54.67737,27.86204981803894
1617991917.92723,-11.75867,27.87766981124878
1617991917.94286,31.4447,27.89329981803894
1617991917.95849,68.90723,27.9089298248291
1617991917.97411,95.61963,27.92454981803894
1617991917.98974,109.4568,27.9401798248291
1617991918.00536,112.0701,27.95579981803894
1617991918.02099,107.9127,27.9714298248291
1617991918.03661,102.2927,27.98704981803894
1617991918.05224,99.23242,28.0026798248291
1617991918.06787,100.1312,28.018309831619263
1617991918.08349,103.9495,28.0339298248291
1617991918.09912,108.3146,28.049559831619263
1617991918.11474,111.0928,28.0651798248291
1617991918.13037,111.1198,28.080809831619263
1617991918.14599,108.4542,28.0964298248291
1617991918.16162,103.6074,28.112059831619263
1617991918.17725,96.95435,28.127689838409424
1617991918.19287,88.58569,28.143309831619263
1617991918.2085,78.36523,28.158939838409424
1617991918.22412,66.40747,28.174559831619263
1617991918.23975,53.19946,28.190189838409424
1617991918.25537,39.64319,28.205809831619263
1617991918.271,26.73132,28.221439838409424
1617991918.28663,15.35352,28.237069845199585
1617991918.30225,5.967651,28.252689838409424
1617991918.31788,-1.348755,28.268319845199585
1617991918.3335,-6.595764,28.283939838409424
1617991918.34913,-9.957642,28.299569845199585
1617991918.36475,-11.60468,28.315189838409424
1617991918.38038,-11.88019,28.330819845199585
1617991918.39601,-11.2207,28.346449851989746
1617991918.41163,-10.29773,28.362069845199585
1617991918.42726,-9.923706,28.377699851989746
1617991918.44288,-11.00555,28.393319845199585
1617991918.45851,-14.49011,28.408949851989746
1617991918.47413,-21.16376,28.424569845199585
1617991918.48976,-31.53229,28.440199851989746
1617991918.50539,-45.3299,28.455829858779907
1617991918.52101,-61.27948,28.471449851989746
1617991918.53664,-76.87042,28.487079858779907
1617991918.55226,-88.71539,28.502699851989746
1617991918.56789,-93.4527,28.518329858779907
1617991918.58352,-88.75183,28.53395986557007
1617991918.59914,-74.24017,28.549579858779907
1617991918.61477,-51.68103,28.56520986557007
1617991918.63039,-24.53564,28.580829858779907
1617991918.64602,3.205627,28.59645986557007
1617991918.66164,28.11151,28.612079858779907
1617991918.67727,48.18317,28.62770986557007
1617991918.6929,62.94025,28.64333987236023
1617991918.70852,72.86584,28.65895986557007
1617991918.72415,78.82581,28.67458987236023
1617991918.73977,81.42853,28.69020986557007
1617991918.7554,80.90515,28.70583987236023
1617991918.77102,77.28668,28.72145986557007
1617991918.78665,70.83282,28.73708987236023
1617991918.80228,62.185,28.75271987915039
1617991918.8179,52.41772,28.76833987236023
1617991918.83353,42.82538,28.78396987915039
1617991918.84915,34.47156,28.79958987236023
1617991918.86478,28.07043,28.81521987915039
1617991918.8804,23.84912,28.83083987236023
1617991918.89603,21.64264,28.84646987915039
1617991918.91166,21.19159,28.86209988594055
1617991918.92728,22.15552,28.87771987915039
1617991918.94291,24.18158,28.89334988594055
1617991918.95853,26.78687,28.90896987915039
1617991918.97416,29.29565,28.92459988594055
1617991918.98978,30.87836,28.94021987915039
1617991919.00541,30.81616,28.95584988594055
1617991919.02104,28.71405,28.971479892730713
1617991919.03666,24.54565,28.98709988594055
1617991919.05229,18.78668,29.002729892730713
1617991919.06791,12.03076,29.01834988594055
1617991919.08354,4.85553,29.033979892730713
1617991919.09916,-2.343994,29.04959988594055
1617991919.11479,-9.358276,29.065229892730713
1617991919.13042,-16.09283,29.080859899520874
1617991919.14604,-22.35626,29.096479892730713
1617991919.16167,-28.11316,29.112109899520874
1617991919.17729,-33.52448,29.127729892730713
1617991919.19292,-38.98285,29.143359899520874
1617991919.20854,-45.24481,29.158979892730713
1617991919.22417,-53.12292,29.174609899520874
1617991919.2398,-63.07587,29.190239906311035
1617991919.25542,-74.74994,29.205859899520874
1617991919.27105,-86.78766,29.221489906311035
1617991919.28667,-96.8053,29.237109899520874
1617991919.3023,-102.0967,29.252739906311035
1617991919.31792,-100.3988,29.268359899520874
1617991919.33355,-90.61951,29.283989906311035
1617991919.34918,-73.30707,29.299619913101196
1617991919.3648,-50.52423,29.315239906311035
1617991919.38043,-25.10522,29.330869913101196
1617991919.39605,0.07989502,29.346489906311035
1617991919.41168,22.84027,29.362119913101196
1617991919.4273,41.9397,29.377739906311035
1617991919.44293,56.94153,29.393369913101196
1617991919.45856,67.91974,29.408999919891357
1617991919.47418,75.10791,29.424619913101196
1617991919.48981,78.7832,29.440249919891357
1617991919.50543,79.27417,29.455869913101196
1617991919.52106,77.0871,29.471499919891357
1617991919.53668,72.86597,29.487119913101196
1617991919.55231,67.37067,29.502749919891357
1617991919.56794,61.41107,29.51837992668152
1617991919.58356,55.59616,29.533999919891357
1617991919.59919,50.36716,29.54962992668152
1617991919.61481,45.89032,29.565249919891357
1617991919.63044,42.05344,29.58087992668152
1617991919.64606,38.71136,29.596499919891357
1617991919.66169,35.78638,29.61212992668152
1617991919.67732,33.34738,29.62775993347168
1617991919.69294,31.61636,29.64337992668152
1617991919.70857,30.82269,29.65900993347168
1617991919.72419,30.92206,29.67462992668152
1617991919.73982,31.58057,29.69025993347168
1617991919.75544,32.09592,29.70587992668152
1617991919.77107,31.62701,29.72150993347168
1617991919.7867,29.44614,29.73713994026184
1617991919.80232,25.16949,29.75275993347168
1617991919.81795,18.82523,29.76838994026184
1617991919.83357,10.87866,29.78400993347168
1617991919.8492,2.111023,29.79963994026184
1617991919.86482,-6.683777,29.81525993347168
1617991919.88045,-14.80777,29.83088994026184
1617991919.89608,-21.9816,29.846519947052002
1617991919.9117,-28.30487,29.86213994026184
1617991919.92733,-34.22696,29.877769947052002
1617991919.94295,-40.34323,29.89338994026184
1617991919.95858,-47.27527,29.909019947052002
1617991919.9742,-55.41779,29.92463994026184
1617991919.98983,-64.73181,29.940269947052002
1617991920.00546,-74.66013,29.955899953842163
1617991920.02108,-83.85266,29.971519947052002
1617991920.03671,-90.31531,29.987149953842163
1617991920.05233,-91.72733,30.002769947052002
1617991920.06796,-86.20746,30.018399953842163
1617991920.08358,-72.97302,30.034019947052002
1617991920.09921,-52.89658,30.049649953842163
1617991920.11484,-28.35126,30.065279960632324
1617991920.13046,-2.496063,30.080899953842163
1617991920.14609,21.51703,30.096529960632324
1617991920.16171,41.4267,30.112149953842163
1617991920.17734,56.22079,30.127779960632324
1617991920.19296,66.0459,30.143399953842163
1617991920.20859,71.71317,30.159029960632324
1617991920.22422,74.21609,30.174659967422485
1617991920.23984,74.44135,30.190279960632324
1617991920.25547,73.01343,30.205909967422485
1617991920.27109,70.45563,30.221529960632324
1617991920.28672,67.09372,30.237159967422485
1617991920.30234,63.27405,30.252779960632324
1617991920.31797,59.2818,30.268409967422485
1617991920.3336,55.36165,30.284039974212646
1617991920.34922,51.67122,30.299659967422485
1617991920.36485,48.26651,30.315289974212646
1617991920.38047,45.20972,30.330909967422485
1617991920.3961,42.48792,30.346539974212646
1617991920.41172,40.14302,30.362159967422485
1617991920.42735,38.13257,30.377789974212646
1617991920.44298,36.4953,30.393419981002808
1617991920.4586,35.22694,30.409039974212646
1617991920.47423,34.25075,30.424669981002808
1617991920.48985,33.40419,30.440289974212646
1617991920.50548,32.43077,30.455919981002808
1617991920.5211,31.04143,30.471539974212646
1617991920.53673,28.82788,30.487169981002808
1617991920.55236,25.52234,30.50279998779297
1617991920.56798,20.83762,30.518419981002808
1617991920.58361,14.7193,30.53404998779297
1617991920.59923,7.347641,30.549669981002808
1617991920.61486,-0.9347992,30.56529998779297
1617991920.63048,-9.613022,30.580919981002808
1617991920.64611,-18.12793,30.59654998779297
1617991920.66174,-26.05162,30.61217999458313
1617991920.67736,-33.25626,30.62779998779297
1617991920.69299,-39.81113,30.64342999458313
1617991920.70861,-46.09483,30.65904998779297
1617991920.72424,-52.64842,30.67467999458313
1617991920.73986,-60.02548,30.69029998779297
1617991920.75549,-68.75134,30.70592999458313
1617991920.77112,-78.9791,30.72156000137329
1617991920.78674,-90.1978,30.73717999458313
1617991920.80237,-101.0226,30.75281000137329
1617991920.81799,-109.2186,30.76842999458313
1617991920.83362,-112.2124,30.78406000137329
1617991920.84925,-107.9387,30.799690008163452
1617991920.86487,-95.70805,30.81531000137329
1617991920.8805,-76.53428,30.830940008163452
1617991920.89612,-53.04777,30.84656000137329
1617991920.91175,-28.54291,30.862190008163452
1617991920.92737,-6.006241,30.87781000137329
1617991920.943,12.51843,30.893440008163452
1617991920.95863,26.20168,30.909070014953613
1617991920.97425,35.18158,30.924690008163452
1617991920.98988,40.02274,30.940320014953613
1617991921.0055,41.3401,30.955940008163452
1617991921.02113,39.75373,30.971570014953613
1617991921.03675,35.82414,30.987190008163452
1617991921.05238,30.18362,31.002820014953613
1617991921.06801,23.70663,31.018450021743774
1617991921.08363,17.22227,31.034070014953613
1617991921.09926,11.47175,31.049700021743774
1617991921.11488,6.922115,31.065320014953613
1617991921.13051,3.729006,31.080950021743774
1617991921.14613,1.778835,31.096570014953613
1617991921.16176,0.9123306,31.112200021743774
1617991921.17739,1.054899,31.127830028533936
1617991921.19301,2.333371,31.143450021743774
1617991921.20864,5.014185,31.159080028533936
1617991921.22426,9.217149,31.174700021743774
1617991921.23989,14.7839,31.190330028533936
1617991921.25551,21.08042,31.205950021743774
1617991921.27114,27.04701,31.221580028533936
1617991921.28677,31.49713,31.237210035324097
1617991921.30239,33.43437,31.252830028533936
1617991921.31802,32.42007,31.268460035324097
1617991921.33364,28.66969,31.284080028533936
1617991921.34927,22.9974,31.299710035324097
1617991921.36489,16.40313,31.315330028533936
1617991921.38052,9.862511,31.330960035324097
1617991921.39615,3.978935,31.346590042114258
1617991921.41177,-1.345108,31.362210035324097
1617991921.4274,-6.577263,31.377840042114258
1617991921.44302,-12.47157,31.393460035324097
1617991921.45865,-19.71989,31.409090042114258
1617991921.47427,-28.66303,31.424710035324097
1617991921.4899,-39.10335,31.440340042114258
1617991921.50553,-50.30598,31.45597004890442
1617991921.52115,-60.97827,31.471590042114258
1617991921.53678,-69.33867,31.48722004890442
1617991921.5524,-73.64816,31.502840042114258
1617991921.56803,-72.41078,31.51847004890442
1617991921.58365,-64.95148,31.534090042114258
1617991921.59928,-51.63734,31.54972004890442
1617991921.61491,-33.89171,31.565349817276
1617991921.63053,-13.86214,31.58097004890442
1617991921.64616,6.172028,31.596599817276
1617991921.66178,24.34631,31.61222004890442
1617991921.67741,39.65337,31.627849817276
1617991921.69303,51.92781,31.64347004890442
1617991921.70866,61.58475,31.659099817276
1617991921.72429,69.12357,31.674729824066162
1617991921.73991,74.88474,31.690349817276
1617991921.75554,78.90637,31.705979824066162
1617991921.77116,81.03781,31.721599817276
1617991921.78679,81.20168,31.737229824066162
1617991921.80241,79.47055,31.752849817276
1617991921.81804,76.11658,31.768479824066162
1617991921.83367,71.51382,31.784109830856323
1617991921.84929,66.08095,31.799729824066162
1617991921.86492,60.13824,31.815359830856323
1617991921.88054,53.99968,31.830979824066162
1617991921.89617,48.11063,31.846609830856323
1617991921.91179,42.95422,31.862229824066162
1617991921.92742,39.01257,31.877859830856323
1617991921.94305,36.43549,31.893489837646484
1617991921.95867,34.97141,31.909109830856323
1617991921.9743,33.8429,31.924739837646484
1617991921.98992,32.02719,31.940359830856323
1617991922.00555,28.59888,31.955989837646484
1617991922.02117,23.01971,31.971609830856323
1617991922.0368,15.42068,31.987239837646484
1617991922.05243,6.433441,32.002869844436646
1617991922.06805,-2.988708,32.018489837646484
1617991922.08368,-12.04251,32.034119844436646
1617991922.0993,-20.29724,32.049739837646484
1617991922.11493,-27.87363,32.065369844436646
1617991922.13055,-35.38727,32.080989837646484
1617991922.14618,-43.70816,32.096619844436646
1617991922.16181,-53.65906,32.11224985122681
1617991922.17743,-65.49527,32.127869844436646
1617991922.19306,-78.63419,32.14349985122681
1617991922.20868,-91.33301,32.159119844436646
1617991922.22431,-100.9763,32.17474985122681
1617991922.23993,-104.7083,32.190369844436646
1617991922.25556,-100.3516,32.20599985122681
1617991922.27119,-87.24744,32.22162985801697
1617991922.28681,-66.6362,32.23724985122681
1617991922.30244,-41.38235,32.25287985801697
1617991922.31806,-15.08725,32.26849985122681
1617991922.33369,8.923279,32.28412985801697
1617991922.34931,28.56723,32.29974985122681
1617991922.36494,43.23352,32.31537985801697
1617991922.38057,53.46356,32.33100986480713
1617991922.39619,60.31921,32.34662985801697
1617991922.41182,64.75851,32.36225986480713
1617991922.42744,67.47885,32.37787985801697
1617991922.44307,68.73669,32.39350986480713
1617991922.45869,68.68134,32.40912985801697
1617991922.47432,67.50311,32.42475986480713
1617991922.48995,65.52298,32.44038987159729
1617991922.50557,63.1192,32.45600986480713
1617991922.5212,60.61264,32.47163987159729
1617991922.53682,58.19714,32.48725986480713
1617991922.55245,55.92123,32.50288987159729
1617991922.56807,53.85925,32.51850986480713
1617991922.5837,52.01169,32.53413987159729
1617991922.59933,50.49545,32.54976987838745
1617991922.61495,49.43665,32.56538987159729
1617991922.63058,48.97073,32.58101987838745
1617991922.6462,49.15399,32.59663987159729
1617991922.66183,49.81171,32.61226987838745
1617991922.67745,50.47314,32.62788987159729
1617991922.69308,50.38,32.64351987838745
1617991922.70871,48.64948,32.65914988517761
1617991922.72433,44.58301,32.67476987838745
1617991922.73996,38.01242,32.69039988517761
1617991922.75558,29.35312,32.70601987838745
1617991922.77121,19.50168,32.72164988517761
1617991922.78683,9.516724,32.73726987838745
1617991922.80246,0.2252808,32.75289988517761
1617991922.81809,-8.014099,32.76852989196777
1617991922.83371,-15.41138,32.78414988517761
1617991922.84934,-22.59323,32.79977989196777
1617991922.86496,-30.2916,32.81539988517761
1617991922.88059,-39.09976,32.83102989196777
1617991922.89621,-49.35172,32.84664988517761
1617991922.91184,-60.93015,32.86227989196777
1617991922.92747,-73.02869,32.877909898757935
1617991922.94309,-84.09113,32.89352989196777
1617991922.95872,-91.87756,32.909159898757935
1617991922.97434,-93.99298,32.92477989196777
1617991922.98997,-88.5878,32.940409898757935
1617991923.00559,-75.13513,32.95602989196777
1617991923.02122,-54.7713,32.971659898757935
1617991923.03685,-30.2222,32.987289905548096
1617991923.05247,-4.944733,33.002909898757935
1617991923.0681,17.95172,33.018539905548096
1617991923.08372,36.40814,33.034159898757935
1617991923.09935,49.79132,33.049789905548096
1617991923.11497,58.6304,33.065409898757935
1617991923.1306,63.95462,33.081039905548096
1617991923.14623,66.82581,33.09666991233826
1617991923.16185,68.05115,33.112289905548096
1617991923.17748,68.09201,33.12791991233826
1617991923.1931,67.26218,33.143539905548096
1617991923.20873,65.85034,33.15916991233826
1617991923.22435,64.17111,33.174789905548096
1617991923.23998,62.55331,33.19041991233826
1617991923.25561,61.26645,33.20604991912842
1617991923.27123,60.36877,33.22166991233826
1617991923.28686,59.80157,33.23729991912842
1617991923.30248,59.45166,33.25291991233826
1617991923.31811,59.23441,33.26854991912842
1617991923.33373,59.18747,33.28416991233826
1617991923.34936,59.42001,33.29979991912842
1617991923.36499,60.0625,33.31542992591858
1617991923.38061,61.16742,33.33104991912842
1617991923.39624,62.55457,33.34667992591858
1617991923.41186,63.82397,33.36229991912842
1617991923.42749,64.37659,33.37792992591858
1617991923.44312,63.65329,33.39355993270874
1617991923.45874,61.26599,33.40917992591858
1617991923.47437,57.11606,33.42480993270874
1617991923.48999,51.44507,33.44042992591858
1617991923.50562,44.76852,33.45605993270874
1617991923.52124,37.7789,33.47167992591858
1617991923.53687,31.10321,33.48730993270874
1617991923.5525,25.13132,33.5029399394989
1617991923.56812,19.90652,33.51855993270874
1617991923.58375,15.16916,33.5341899394989
1617991923.59937,10.4838,33.54980993270874
1617991923.615,5.371582,33.5654399394989
1617991923.63062,-0.4404907,33.58105993270874
1617991923.64625,-6.989319,33.5966899394989
1617991923.66188,-14.03885,33.61231994628906
1617991923.6775,-21.20105,33.6279399394989
1617991923.69313,-28.07065,33.64356994628906
1617991923.70875,-34.40872,33.6591899394989
1617991923.72438,-40.19073,33.67481994628906
1617991923.74,-45.67032,33.6904399394989
1617991923.75563,-51.26157,33.70606994628906
1617991923.77126,-57.45038,33.721699953079224
1617991923.78688,-64.6965,33.73731994628906
1617991923.80251,-73.21005,33.752949953079224
1617991923.81813,-82.67645,33.76856994628906
1617991923.83376,-92.09097,33.784199953079224
1617991923.84938,-99.73355,33.79981994628906
1617991923.86501,-103.486,33.815449953079224
1617991923.88064,-101.3659,33.831079959869385
1617991923.89626,-92.2688,33.846699953079224
1617991923.91189,-76.40921,33.862329959869385
1617991923.92751,-55.53326,33.877949953079224
1617991923.94314,-32.38303,33.893579959869385
1617991923.95876,-9.915863,33.909199953079224
1617991923.97439,9.513336,33.924829959869385
1617991923.99002,24.65347,33.940459966659546
1617991924.00564,35.3443,33.956079959869385
1617991924.02127,42.24332,33.971709966659546
1617991924.03689,46.27728,33.987329959869385
1617991924.05252,48.29309,34.002959966659546
1617991924.06814,48.87759,34.018579959869385
1617991924.08377,48.41824,34.034209966659546
1617991924.0994,47.29428,34.04983997344971
1617991924.11502,45.84918,34.065459966659546
1617991924.13065,44.47491,34.08108997344971
1617991924.14627,43.49405,34.096709966659546
1617991924.1619,43.09415,34.11233997344971
1617991924.17752,43.2887,34.127959966659546
1617991924.19315,43.9101,34.14358997344971
1617991924.20878,44.73294,34.15921998023987
1617991924.2244,45.57861,34.17483997344971
1617991924.24003,46.35379,34.19046998023987
1617991924.25565,47.08878,34.20608997344971
1617991924.27128,47.93292,34.22171998023987
1617991924.2869,48.89938,34.23733997344971
1617991924.30253,49.88004,34.25296998023987
1617991924.31816,50.52567,34.26859998703003
1617991924.33378,50.36182,34.28421998023987
1617991924.34941,49.01724,34.29984998703003
1617991924.36503,46.31613,34.31546998023987
1617991924.38066,42.3508,34.33109998703003
1617991924.39628,37.39325,34.34671998023987
1617991924.41191,31.88708,34.36234998703003
1617991924.42754,26.25504,34.37797999382019
1617991924.44316,20.84183,34.39359998703003
1617991924.45879,15.81573,34.40922999382019
1617991924.47441,11.12256,34.42484998703003
1617991924.49004,6.5923,34.44047999382019
1617991924.50566,1.959915,34.45609998703003
1617991924.52129,-3.030197,34.47172999382019
1617991924.53692,-8.469666,34.48736000061035
1617991924.55254,-14.26498,34.50297999382019
1617991924.56817,-20.1329,34.51861000061035
1617991924.58379,-25.7305,34.53422999382019
1617991924.59942,-30.7814,34.54986000061035
1617991924.61504,-35.23488,34.56547999382019
1617991924.63067,-39.22957,34.58111000061035
1617991924.6463,-43.10924,34.59674000740051
1617991924.66192,-47.28409,34.61236000061035
1617991924.67755,-52.1185,34.62799000740051
1617991924.69317,-57.94754,34.64361000061035
1617991924.7088,-64.89288,34.65924000740051
1617991924.72442,-72.63646,34.67486000061035
1617991924.74005,-80.34784,34.69049000740051
1617991924.75568,-86.53104,34.706120014190674
1617991924.7713,-89.28882,34.72174000740051
1617991924.78693,-86.84866,34.737370014190674
1617991924.80255,-78.14703,34.75299000740051
1617991924.81818,-63.37656,34.768620014190674
1617991924.8338,-44.12907,34.78424000740051
1617991924.84943,-22.98012,34.799870014190674
1617991924.86506,-2.656174,34.815500020980835
1617991924.88068,14.69518,34.831120014190674
1617991924.89631,28.00426,34.846750020980835
1617991924.91193,37.23886,34.862370014190674
1617991924.92756,43.02417,34.878000020980835
1617991924.94318,46.19576,34.893620014190674
1617991924.95881,47.47677,34.909250020980835
1617991924.97444,47.33057,34.924880027770996
1617991924.99006,46.08163,34.940500020980835
1617991925.00569,44.0577,34.956130027770996
1617991925.02131,41.64099,34.971750020980835
1617991925.03694,39.31463,34.987380027770996
1617991925.05256,37.435,35.003000020980835
1617991925.06819,36.1758,35.018630027770996
1617991925.08382,35.4912,35.03426003456116
1617991925.09944,35.22791,35.049880027770996
1617991925.11507,35.25326,35.06551003456116
1617991925.13069,35.60161,35.081130027770996
1617991925.14632,36.42333,35.09676003456116
1617991925.16194,37.8715,35.112380027770996
1617991925.17757,39.98385,35.12801003456116
1617991925.1932,42.50787,35.14364004135132
1617991925.20882,44.88767,35.15926003456116
1617991925.22445,46.43793,35.17489004135132
1617991925.24007,46.56272,35.19051003456116
1617991925.2557,45.08578,35.20614004135132
1617991925.27132,42.23898,35.22176003456116
1617991925.28695,38.59159,35.23739004135132
1617991925.30258,34.84169,35.25302004814148
1617991925.3182,31.52427,35.26864004135132
1617991925.33383,28.82083,35.28427004814148
1617991925.34945,26.53655,35.29989004135132
1617991925.36508,24.19527,35.31552004814148
1617991925.3807,21.31002,35.33114004135132
1617991925.39633,17.62823,35.34677004814148
1617991925.41196,13.20426,35.36239981651306
1617991925.42758,8.338749,35.37802004814148
1617991925.44321,3.410416,35.39364981651306
1617991925.45883,-1.288364,35.40927004814148
1617991925.47446,-5.764893,35.42489981651306
1617991925.49008,-10.18378,35.44052004814148
1617991925.50571,-14.82982,35.45614981651306
1617991925.52134,-19.82819,35.47177982330322
1617991925.53696,-25.12962,35.48739981651306
1617991925.55259,-30.4478,35.50302982330322
1617991925.56821,-35.45328,35.51864981651306
1617991925.58384,-39.86819,35.53427982330322
1617991925.59946,-43.59241,35.54989981651306
1617991925.61509,-46.78986,35.56552982330322
1617991925.63072,-49.68466,35.581159830093384
1617991925.64634,-52.65791,35.59677982330322
1617991925.66197,-56.09473,35.612409830093384
1617991925.67759,-60.43634,35.62802982330322
1617991925.69322,-65.95445,35.643659830093384
1617991925.70885,-72.46112,35.659289836883545
1617991925.72447,-79.04886,35.674909830093384
1617991925.7401,-84.08182,35.690539836883545
1617991925.75572,-85.51929,35.706159830093384
1617991925.77135,-81.60075,35.721789836883545
1617991925.78697,-71.65796,35.737409830093384
1617991925.8026,-56.42316,35.753039836883545
1617991925.81823,-37.93802,35.768669843673706
1617991925.83385,-18.86678,35.784289836883545
1617991925.84948,-1.628189,35.799919843673706
1617991925.8651,12.24672,35.815539836883545
1617991925.88073,22.32217,35.831169843673706
1617991925.89635,28.95743,35.846789836883545
1617991925.91198,32.9442,35.862419843673706
1617991925.92761,34.93964,35.87804985046387
1617991925.94323,35.42964,35.893669843673706
1617991925.95886,34.76244,35.90929985046387
1617991925.97448,33.25635,35.924919843673706
1617991925.99011,31.35455,35.94054985046387
1617991926.00573,29.44189,35.956169843673706
1617991926.02136,27.86285,35.97179985046387
1617991926.03699,26.75955,35.98742985725403
1617991926.05261,26.12579,36.00304985046387
1617991926.06824,25.75977,36.01867985725403
1617991926.08386,25.49094,36.03429985046387
1617991926.09949,25.27585,36.04992985725403
1617991926.11511,25.19308,36.06554985046387
1617991926.13074,25.50067,36.08117985725403
1617991926.14637,26.35321,36.09680986404419
1617991926.16199,27.71552,36.11242985725403
1617991926.17762,29.29041,36.12805986404419
1617991926.19324,30.58362,36.14367985725403
1617991926.20887,31.04059,36.15930986404419
1617991926.22449,30.32953,36.17492985725403
1617991926.24012,28.45676,36.19055986404419
1617991926.25575,25.67404,36.20618987083435
1617991926.27137,22.43317,36.22180986404419
1617991926.287,19.0658,36.23743987083435
1617991926.30262,15.69873,36.25305986404419
1617991926.31825,12.25473,36.26868987083435
1617991926.33387,8.563507,36.28430986404419
1617991926.3495,4.493744,36.29993987083435
1617991926.36513,0.1332092,36.31556987762451
1617991926.38075,-4.261475,36.33118987083435
1617991926.39638,-8.381012,36.34681987762451
1617991926.412,-11.95193,36.36243987083435
1617991926.42763,-15.00021,36.37806987762451
1617991926.44325,-17.81467,36.39368987083435
1617991926.45888,-20.83795,36.40931987762451
1617991926.47451,-24.4921,36.42494988441467
1617991926.49013,-28.94708,36.44056987762451
1617991926.50576,-33.91647,36.45619988441467
1617991926.52138,-38.85498,36.47181987762451
1617991926.53701,-43.18491,36.48744988441467
1617991926.55263,-46.48984,36.50306987762451
1617991926.56826,-48.76627,36.51869988441467
1617991926.58389,-50.37546,36.534329891204834
1617991926.59951,-51.89914,36.54994988441467
1617991926.61514,-53.97028,36.565579891204834
1617991926.63076,-57.2374,36.58119988441467
1617991926.64639,-62.09277,36.596829891204834
1617991926.66201,-68.62454,36.61244988441467
1617991926.67764,-76.32367,36.628079891204834
1617991926.69327,-83.89404,36.643709897994995
1617991926.70889,-89.3219,36.659329891204834
1617991926.72452,-90.33551,36.674959897994995
1617991926.74014,-85.22073,36.690579891204834
1617991926.75577,-73.49957,36.706209897994995
1617991926.77139,-56.40778,36.721829891204834
1617991926.78702,-36.4408,36.737459897994995
1617991926.80265,-16.66571,36.753089904785156
1617991926.81827,0.3706055,36.768709897994995
1617991926.8339,13.31207,36.784339904785156
1617991926.84952,22.05951,36.799959897994995
1617991926.86515,27.414,36.815589904785156
1617991926.88077,30.35272,36.831209897994995
1617991926.8964,31.63531,36.846839904785156
1617991926.91203,31.56549,36.86246991157532
1617991926.92765,30.26239,36.878089904785156
1617991926.94328,27.80017,36.89371991157532
1617991926.9589,24.49445,36.909339904785156
1617991926.97453,20.83167,36.92496991157532
1617991926.99015,17.25562,36.940589904785156
1617991927.00578,14.06683,36.95621991157532
1617991927.02141,11.32898,36.97184991836548
1617991927.03703,9.00946,36.98746991157532
1617991927.05266,7.082642,37.00309991836548
1617991927.06828,5.723877,37.01871991157532
1617991927.08391,5.17749,37.03434991836548
1617991927.09953,5.643677,37.04996991157532
1617991927.11516,7.104919,37.06559991836548
1617991927.13079,9.220215,37.08122992515564
1617991927.14641,11.43964,37.09684991836548
1617991927.16204,13.17633,37.11247992515564
1617991927.17766,14.08588,37.12809991836548
1617991927.19329,14.14081,37.14372992515564
1617991927.20891,13.59729,37.15934991836548
1617991927.22454,12.8252,37.17497992515564
1617991927.24017,12.01068,37.1906099319458
1617991927.25579,11.13141,37.20622992515564
1617991927.27142,9.942749,37.2218599319458
1617991927.28704,8.185364,37.23747992515564
1617991927.30267,5.700073,37.2531099319458
1617991927.31829,2.59082,37.26872992515564
1617991927.33392,-0.8826294,37.2843599319458
1617991927.34955,-4.417236,37.29998993873596
1617991927.36517,-7.722351,37.3156099319458
1617991927.3808,-10.70569,37.33123993873596
1617991927.39642,-13.32458,37.3468599319458
1617991927.41205,-15.7132,37.36248993873596
1617991927.42767,-17.97064,37.3781099319458
1617991927.4433,-20.12122,37.39373993873596
1617991927.45893,-22.1123,37.40936994552612
1617991927.47455,-23.83386,37.42498993873596
1617991927.49018,-25.14435,37.44061994552612
1617991927.5058,-25.89624,37.45623993873596
1617991927.52143,-26.07953,37.47186994552612
1617991927.53705,-25.78467,37.48748993873596
1617991927.55268,-25.32422,37.50311994552612
1617991927.56831,-25.15082,37.518749952316284
1617991927.58393,-25.79138,37.53436994552612
1617991927.59956,-27.58179,37.549999952316284
1617991927.61518,-30.45984,37.56561994552612
1617991927.63081,-33.63666,37.581249952316284
1617991927.64643,-35.46179,37.59686994552612
1617991927.66206,-33.6936,37.612499952316284
1617991927.67769,-26.09338,37.628129959106445
1617991927.69331,-11.18506,37.643749952316284
1617991927.70894,11.09619,37.659379959106445
1617991927.72456,39.13293,37.674999952316284
1617991927.74019,70.18988,37.690629959106445
1617991927.75581,101.1507,37.706249952316284
1617991927.77144,129.4944,37.721879959106445
1617991927.78707,153.8779,37.737509965896606
1617991927.80269,174.1786,37.753129959106445
1617991927.81832,191.0568,37.768759965896606
1617991927.83394,205.3258,37.784379959106445
1617991927.84957,217.56,37.800009965896606
1617991927.8652,227.8517,37.81563997268677
1617991927.88082,236.0149,37.831259965896606
1617991927.89645,241.7195,37.84688997268677
1617991927.91207,244.667,37.862509965896606
1617991927.9277,244.3624,37.87813997268677
1617991927.94332,240.2445,37.893759965896606
1617991927.95895,231.5674,37.90938997268677
1617991927.97458,217.6866,37.92501997947693
1617991927.9902,198.5237,37.94063997268677
1617991928.00583,174.8864,37.95626997947693
1617991928.02145,148.5724,37.97188997268677
1617991928.03708,122.0106,37.98751997947693
1617991928.0527,97.75659,38.00313997268677
1617991928.06833,77.69196,38.01876997947693
1617991928.08396,62.75641,38.03439998626709
1617991928.09958,52.77802,38.05001997947693
1617991928.11521,46.90704,38.06564998626709
1617991928.13083,43.89862,38.08126997947693
1617991928.14646,42.58948,38.09689998626709
1617991928.16208,41.98792,38.11251997947693
1617991928.17771,41.17712,38.12814998626709
1617991928.19334,39.19739,38.14377999305725
1617991928.20896,34.98083,38.15939998626709
1617991928.22459,27.51465,38.17502999305725
1617991928.24021,16.0658,38.19064998626709
1617991928.25584,0.5581055,38.20627999305725
1617991928.27146,-18.34399,38.22189998626709
1617991928.28709,-39.3573,38.23752999305725
1617991928.30272,-60.88965,38.25315999984741
1617991928.31834,-81.52173,38.26877999305725
1617991928.33397,-100.3173,38.28440999984741
1617991928.34959,-116.921,38.30002999305725
1617991928.36522,-131.3486,38.31565999984741
1617991928.38084,-143.6165,38.33127999305725
1617991928.39647,-153.3901,38.34690999984741
1617991928.4121,-159.8431,38.36254000663757
1617991928.42772,-161.9414,38.37815999984741
1617991928.44335,-158.8239,38.39379000663757
1617991928.45897,-150.3796,38.40940999984741
1617991928.4746,-137.5081,38.42504000663757
1617991928.49022,-121.9569,38.44065999984741
1617991928.50585,-105.7919,38.45629000663757
1617991928.52148,-90.66223,38.471920013427734
1617991928.5371,-77.23022,38.48754000663757
1617991928.55273,-65.08191,38.503170013427734
1617991928.56835,-53.22217,38.51879000663757
1617991928.58398,-40.55627,38.534420013427734
1617991928.5996,-26.80798,38.55004000663757
1617991928.61523,-12.83252,38.565670013427734
1617991928.63086,-0.6474609,38.581300020217896
1617991928.64648,6.772949,38.596920013427734
1617991928.66211,5.787964,38.612550020217896
1617991928.67773,-7.391846,38.628170013427734
1617991928.69336,-35.70447,38.643800020217896
1617991928.70898,-79.89502,38.659420013427734
1617991928.72461,-137.0281,38.675050020217896
1617991928.74024,-200.2921,38.69068002700806
1617991928.75586,-260.1123,38.706300020217896
1617991928.77149,-306.871,38.72193002700806
1617991928.78711,-333.9421,38.737550020217896
1617991928.80274,-339.7452,38.75318002700806
1617991928.81836,-327.8146,38.768800020217896
1617991928.83399,-304.9171,38.78443002700806
1617991928.84962,-278.2617,38.80006003379822
1617991928.86524,-253.0492,38.81568002700806
1617991928.88087,-231.7622,38.83131003379822
1617991928.89649,-214.6035,38.84693002700806
1617991928.91212,-200.8063,38.86256003379822
1617991928.92774,-189.652,38.87818002700806
1617991928.94337,-180.5812,38.89381003379822
1617991928.959,-172.8506,38.90944004058838
1617991928.97462,-165.1854,38.92506003379822
1617991928.99025,-155.8761,38.94069004058838
1617991929.00587,-143.3452,38.95631003379822
1617991929.0215,-127.0104,38.97194004058838
1617991929.03712,-107.5981,38.98756003379822
1617991929.05275,-87.19678,39.00319004058838
1617991929.06838,-68.66003,39.01882004737854
1617991929.084,-54.52234,39.03444004058838
1617991929.09963,-46.13074,39.05007004737854
1617991929.11525,-43.19055,39.06569004058838
1617991929.13088,-44.0592,39.08132004737854
1617991929.1465,-46.44067,39.09694004058838
1617991929.16213,-48.40161,39.11257004737854
1617991929.17776,-49.04321,39.12819981575012
1617991929.19338,-48.64014,39.14382004737854
1617991929.20901,-48.23889,39.15944981575012
1617991929.22463,-49.11731,39.17507004737854
1617991929.24026,-52.08289,39.19069981575012
1617991929.25588,-57.36072,39.20632004737854
1617991929.27151,-64.5238,39.22194981575012
1617991929.28714,-72.6748,39.23757982254028
1617991929.30276,-80.61829,39.25319981575012
1617991929.31839,-86.93311,39.26882982254028
1617991929.33401,-90.10242,39.28444981575012
1617991929.34964,-88.67297,39.30007982254028
1617991929.36526,-81.66309,39.31569981575012
1617991929.38089,-68.84595,39.33132982254028
1617991929.39652,-51.0072,39.346959829330444
1617991929.41214,-29.82166,39.36257982254028
1617991929.42777,-7.410156,39.378209829330444
1617991929.44339,14.08215,39.39382982254028
1617991929.45902,32.99719,39.409459829330444
1617991929.47464,48.29956,39.42507982254028
1617991929.49027,59.64966,39.440709829330444
1617991929.5059,67.0863,39.456339836120605
1617991929.52152,70.95508,39.471959829330444
1617991929.53715,71.72375,39.487589836120605
1617991929.55277,69.89417,39.503209829330444
1617991929.5684,66.05933,39.518839836120605
1617991929.58402,60.81372,39.534459829330444
1617991929.59965,54.86646,39.550089836120605
1617991929.61528,48.89111,39.56571984291077
1617991929.6309,43.46289,39.581339836120605
1617991929.64653,38.90015,39.59696984291077
1617991929.66215,35.35156,39.612589836120605
1617991929.67778,32.77551,39.62821984291077
1617991929.6934,30.97681,39.643839836120605
1617991929.70903,29.828,39.65946984291077
1617991929.72466,29.12354,39.67509984970093
1617991929.74028,28.74902,39.69071984291077
1617991929.75591,28.53931,39.70634984970093
1617991929.77153,28.24304,39.72196984291077
1617991929.78716,27.47021,39.73759984970093
1617991929.80278,25.83508,39.75321984291077
1617991929.81841,22.97498,39.76884984970093
1617991929.83404,18.53027,39.78447985649109
1617991929.84966,12.40833,39.80009984970093
1617991929.86529,4.815918,39.81572985649109
1617991929.88091,-3.706116,39.83134984970093
1617991929.89654,-12.39294,39.84697985649109
1617991929.91216,-20.48547,39.86259984970093
1617991929.92779,-27.49176,39.87822985649109
1617991929.94342,-33.42645,39.89385986328125
1617991929.95904,-38.6911,39.90947985649109
1617991929.97467,-44.02954,39.92510986328125
1617991929.99029,-50.19843,39.94072985649109
1617991930.00592,-57.789,39.95635986328125
1617991930.02154,-67.00555,39.97197985649109
1617991930.03717,-77.47028,39.98760986328125
1617991930.0528,-88.12476,40.00323987007141
1617991930.06842,-97.12787,40.01885986328125
1617991930.08405,-102.1988,40.03448987007141
1617991930.09967,-101.107,40.05010986328125
1617991930.1153,-92.44025,40.06573987007141
1617991930.13092,-76.20551,40.08135986328125
1617991930.14655,-53.99084,40.09698987007141
1617991930.16218,-28.65363,40.11261987686157
1617991930.1778,-3.418518,40.12823987007141
1617991930.19343,18.95892,40.14386987686157
1617991930.20905,36.91534,40.15948987007141
1617991930.22468,50.05652,40.17511987686157
1617991930.2403,58.927,40.19073987007141
1617991930.25593,64.3808,40.20636987686157
1617991930.27156,67.21533,40.22199988365173
1617991930.28718,68.0097,40.23761987686157
1617991930.30281,67.17896,40.25324988365173
1617991930.31843,65.14124,40.26886987686157
1617991930.33406,62.3559,40.28449988365173
1617991930.34968,59.30084,40.30011987686157
1617991930.36531,56.38599,40.31574988365173
1617991930.38094,53.9201,40.331379890441895
1617991930.39656,51.97852,40.34699988365173
1617991930.41219,50.47278,40.362629890441895
1617991930.42781,49.31238,40.37824988365173
1617991930.44344,48.38455,40.393879890441895
1617991930.45906,47.62735,40.40949988365173
1617991930.47469,47.02002,40.425129890441895
1617991930.49032,46.53571,40.440759897232056
1617991930.50594,46.05356,40.456379890441895
1617991930.52157,45.41275,40.472009897232056
1617991930.53719,44.36298,40.487629890441895
1617991930.55282,42.59998,40.503259897232056
1617991930.56845,39.86389,40.51888990402222
1617991930.58407,35.99292,40.534509897232056
1617991930.5997,30.92599,40.55013990402222
1617991930.61532,24.75446,40.565759897232056
1617991930.63095,17.71832,40.58138990402222
1617991930.64657,10.15903,40.597009897232056
1617991930.6622,2.565338,40.61263990402222
1617991930.67783,-4.680725,40.62826991081238
1617991930.69345,-11.42183,40.64388990402222
1617991930.70908,-17.87596,40.65951991081238
1617991930.7247,-24.63882,40.67513990402222
1617991930.74033,-32.5573,40.69076991081238
1617991930.75595,-42.44945,40.70638990402222
1617991930.77158,-54.67976,40.72201991081238
1617991930.78721,-68.90051,40.73764991760254
1617991930.80283,-83.68639,40.75326991081238
1617991930.81846,-96.78249,40.76889991760254
1617991930.83408,-105.4278,40.78451991081238
1617991930.84971,-107.0451,40.80014991760254
1617991930.86533,-100.0702,40.81576991081238
1617991930.88096,-84.49432,40.83139991760254
1617991930.89659,-61.98629,40.8470299243927
1617991930.91221,-35.51046,40.86264991760254
1617991930.92784,-8.4739,40.8782799243927
1617991930.94346,16.17986,40.89389991760254
1617991930.95909,36.58512,40.9095299243927
1617991930.97471,52.13125,40.92514991760254
1617991930.99034,63.20878,40.9407799243927
1617991931.00597,70.71811,40.95640993118286
1617991931.02159,75.58186,40.9720299243927
1617991931.03722,78.56217,40.98765993118286
1617991931.05284,80.09205,41.0032799243927
1617991931.06847,80.40188,41.01890993118286
1617991931.08409,79.64602,41.0345299243927
1617991931.09972,78.03487,41.05015993118286
1617991931.11535,75.80334,41.06578993797302
1617991931.13097,73.30016,41.08140993118286
1617991931.1466,70.77731,41.09703993797302
1617991931.16222,68.40216,41.11265993118286
1617991931.17785,66.27155,41.12828993797302
1617991931.19347,64.41183,41.14390993118286
1617991931.2091,62.86954,41.15953993797302
1617991931.22473,61.69182,41.175169944763184
1617991931.24035,60.94141,41.19078993797302
1617991931.25598,60.46469,41.206419944763184
1617991931.2716,60.06992,41.22203993797302
1617991931.28723,59.3573,41.237669944763184
1617991931.30285,57.97485,41.25328993797302
1617991931.31848,55.66357,41.268919944763184
1617991931.33411,52.26074,41.284549951553345
1617991931.34973,47.74884,41.300169944763184
1617991931.36536,42.12686,41.315799951553345
1617991931.38098,35.49792,41.331419944763184
1617991931.39661,27.92664,41.347049951553345
1617991931.41223,19.58292,41.362669944763184
1617991931.42786,10.70114,41.378299951553345
1617991931.44349,1.648102,41.393929958343506
1617991931.45911,-7.206848,41.409549951553345
1617991931.47474,-15.58447,41.425179958343506
1617991931.49036,-23.40482,41.440799951553345
1617991931.50599,-30.8876,41.456429958343506
1617991931.52161,-38.52975,41.472049951553345
1617991931.53724,-47.00177,41.487679958343506
1617991931.55287,-56.91754,41.50330996513367
1617991931.56849,-68.50079,41.518929958343506
1617991931.58412,-81.18024,41.53455996513367
1617991931.59974,-93.38931,41.550179958343506
1617991931.61537,-102.7338,41.56580996513367
1617991931.63099,-106.5097,41.581429958343506
1617991931.64662,-102.5328,41.59705996513367
1617991931.66225,-89.94635,41.61268997192383
1617991931.67787,-69.69836,41.62830996513367
1617991931.6935,-44.33667,41.64393997192383
1617991931.70912,-17.25244,41.65955996513367
1617991931.72475,8.236938,41.67518997192383
1617991931.74037,29.85846,41.69080996513367
1617991931.756,46.56329,41.70643997192383
1617991931.77163,58.51263,41.72206997871399
1617991931.78725,66.47229,41.73768997192383
1617991931.80288,71.41083,41.75331997871399
1617991931.8185,74.06885,41.76893997192383
1617991931.83413,74.94348,41.78456997871399
1617991931.84975,74.51605,41.80018997192383
1617991931.86538,73.21582,41.81581997871399
1617991931.88101,71.63458,41.83144998550415
1617991931.89663,70.24304,41.84706997871399
1617991931.91226,69.4104,41.86269998550415
1617991931.92788,69.16571,41.87831997871399
1617991931.94351,69.3736,41.89394998550415
1617991931.95913,69.76538,41.90956997871399
1617991931.97476,70.0965,41.92519998550415
1617991931.99039,70.37903,41.94082999229431
1617991932.00601,70.7561,41.95644998550415
1617991932.02164,71.47284,41.97207999229431
1617991932.03726,72.62091,41.98769998550415
1617991932.05289,74.0387,42.00332999229431
1617991932.06851,75.20923,42.01894998550415
1617991932.08414,75.40283,42.03457999229431
1617991932.09977,73.88806,42.05020999908447
1617991932.11539,70.24091,42.06582999229431
1617991932.13102,64.45337,42.08145999908447
1617991932.14664,56.95728,42.09707999229431
1617991932.16227,48.5094,42.11270999908447
1617991932.17789,39.80377,42.12832999229431
1617991932.19352,31.19855,42.14395999908447
1617991932.20915,22.72266,42.159590005874634
1617991932.22477,14.01984,42.17520999908447
1617991932.2404,4.69873,42.190840005874634
1617991932.25602,-5.444946,42.20645999908447
1617991932.27165,-16.21185,42.222090005874634
1617991932.28727,-27.172,42.23770999908447
1617991932.3029,-37.62744,42.253340005874634
1617991932.31853,-47.10248,42.268970012664795
1617991932.33415,-55.42609,42.284590005874634
1617991932.34978,-62.91455,42.300220012664795
1617991932.3654,-70.18292,42.315840005874634
1617991932.38103,-77.8783,42.331470012664795
1617991932.39665,-86.59271,42.347090005874634
1617991932.41228,-96.6557,42.362720012664795
1617991932.42791,-108.0839,42.378350019454956
1617991932.44353,-120.2537,42.393970012664795
1617991932.45916,-131.8485,42.409600019454956
1617991932.47478,-140.7747,42.425220012664795
1617991932.49041,-144.5333,42.440850019454956
1617991932.50603,-140.9275,42.456470012664795
1617991932.52166,-128.7732,42.472100019454956
1617991932.53729,-108.557,42.48773002624512
1617991932.55291,-82.35693,42.503350019454956
1617991932.56854,-53.23389,42.51898002624512
1617991932.58416,-24.15601,42.534600019454956
1617991932.59979,2.6698,42.55023002624512
1617991932.61541,26.17566,42.565850019454956
1617991932.63104,46.18127,42.58148002624512
1617991932.64667,62.84949,42.59711003303528
1617991932.66229,76.36169,42.61273002624512
1617991932.67792,86.87366,42.62836003303528
1617991932.69354,94.71765,42.64398002624512
1617991932.70917,100.5277,42.65961003303528
1617991932.7248,105.2964,42.67524003982544
1617991932.74042,110.0018,42.69086003303528
1617991932.75605,115.3405,42.70649003982544
1617991932.77167,121.5928,42.72211003303528
1617991932.7873,128.6418,42.73774003982544
1617991932.80292,136.3002,42.75336003303528
1617991932.81855,144.4873,42.76899003982544
1617991932.83418,153.4434,42.7846200466156
1617991932.8498,163.4912,42.80024003982544
1617991932.86543,174.8844,42.8158700466156
1617991932.88105,187.5533,42.83149003982544
1617991932.89668,201.0747,42.8471200466156
1617991932.9123,214.6201,42.86274003982544
1617991932.92793,227.194,42.8783700466156
1617991932.94356,237.8314,42.89399981498718
1617991932.95918,245.8646,42.9096200466156
1617991932.97481,251.2302,42.92524981498718
1617991932.99043,254.4691,42.9408700466156
1617991933.00606,256.6267,42.95649981498718
1617991933.02168,258.8118,42.9721200466156
1617991933.03731,261.6415,42.98774981498718
1617991933.05294,264.6782,43.003379821777344
1617991933.06856,266.2246,43.01899981498718
1617991933.08419,263.7247,43.034629821777344
1617991933.09981,254.4656,43.05024981498718
1617991933.11544,236.7373,43.065879821777344
1617991933.13106,210.4204,43.08149981498718
1617991933.14669,177.3961,43.097129821777344
1617991933.16232,140.9491,43.112759828567505
1617991933.17794,105.0433,43.128379821777344
1617991933.19357,73.33203,43.144009828567505
1617991933.20919,48.27161,43.159629821777344
1617991933.22482,30.76733,43.175259828567505
1617991933.24044,20.03027,43.190879821777344
1617991933.25607,14.07178,43.206509828567505
1617991933.2717,10.18536,43.222139835357666
1617991933.28732,5.96991,43.237759828567505
1617991933.30295,-0.1351318,43.253389835357666
1617991933.31857,-8.209595,43.269009828567505
1617991933.3342,-16.73474,43.284639835357666
1617991933.34982,-23.07086,43.300259828567505
1617991933.36545,-24.18774,43.315889835357666
1617991933.38108,-17.74048,43.33151984214783
1617991933.3967,-2.714783,43.347139835357666
1617991933.41233,20.03986,43.36276984214783
1617991933.42795,48.30762,43.378389835357666
1617991933.44358,78.88965,43.39401984214783
1617991933.4592,108.4662,43.409639835357666
1617991933.47483,134.2818,43.42526984214783
1617991933.49046,154.5072,43.44089984893799
1617991933.50608,168.2045,43.45651984214783
1617991933.52171,174.9706,43.47214984893799
1617991933.53733,174.562,43.48776984214783
1617991933.55296,166.557,43.50339984893799
1617991933.56858,150.6987,43.51901984214783
1617991933.58421,127.2448,43.53464984893799
1617991933.59984,97.39594,43.55027985572815
1617991933.61546,63.45587,43.56589984893799
1617991933.63109,28.4928,43.58152985572815
1617991933.64671,-4.330139,43.59714984893799
1617991933.66234,-32.64679,43.61277985572815
1617991933.67796,-55.27203,43.62839984893799
1617991933.69359,-72.20593,43.64402985572815
1617991933.70922,-84.10037,43.65965986251831
1617991933.72484,-91.55377,43.67527985572815
1617991933.74047,-94.86169,43.69090986251831
1617991933.75609,-93.96243,43.70652985572815
1617991933.77172,-88.94495,43.72215986251831
1617991933.78734,-80.39581,43.73777985572815
1617991933.80297,-69.62839,43.75340986251831
1617991933.8186,-58.45096,43.76903986930847
1617991933.83422,-48.61951,43.78465986251831
1617991933.84985,-41.28618,43.80028986930847
1617991933.86547,-36.6245,43.81590986251831
1617991933.8811,-33.78346,43.83153986930847
1617991933.89672,-31.23378,43.84715986251831
1617991933.91235,-27.52927,43.86278986930847
1617991933.92798,-21.8078,43.87841987609863
1617991933.9436,-14.25159,43.89403986930847
1617991933.95923,-5.854057,43.90966987609863
1617991933.97485,1.938862,43.92528986930847
1617991933.99048,8.027565,43.94091987609863
1617991934.0061,12.0212,43.95653986930847
1617991934.02173,14.42472,43.97216987609863
1617991934.03736,16.17506,43.987799882888794
1617991934.05298,17.93994,44.00341987609863
1617991934.06861,19.51389,44.019049882888794
1617991934.08423,19.39222,44.03466987609863
1617991934.09986,15.18956,44.050299882888794
1617991934.11548,3.904716,44.06591987609863
1617991934.13111,-17.50433,44.081549882888794
1617991934.14674,-51.85059,44.097179889678955
1617991934.16236,-101.2729,44.112799882888794
1617991934.17799,-166.2211,44.128429889678955
1617991934.19361,-244.2029,44.144049882888794
1617991934.20924,-328.9561,44.159679889678955
1617991934.22486,-410.8877,44.175299882888794
