timestamp,value,norm_ts
1617796361.33662,2.309906,3.1546599864959717
1617796361.35224,14.20508,3.1702799797058105
1617796361.36787,24.49167,3.1859099864959717
1617796361.38349,33.04913,3.2015299797058105
1617796361.39912,39.90802,3.2171599864959717
1617796361.41474,45.06107,3.2327799797058105
1617796361.43037,48.43225,3.2484099864959717
1617796361.446,49.98773,3.264039993286133
1617796361.46162,49.84836,3.2796599864959717
1617796361.47725,48.35809,3.295289993286133
1617796361.49287,45.99036,3.3109099864959717
1617796361.5085,43.18018,3.326539993286133
1617796361.52412,40.18637,3.3421599864959717
1617796361.53975,37.07336,3.357789993286133
1617796361.55538,33.80319,3.373420000076294
1617796361.571,30.41333,3.389039993286133
1617796361.58663,27.12259,3.404670000076294
1617796361.60225,24.29895,3.420289993286133
1617796361.61788,22.31448,3.435920000076294
1617796361.6335,21.371,3.451539993286133
1617796361.64913,21.40976,3.467170000076294
1617796361.66476,22.10995,3.482800006866455
1617796361.68038,22.98621,3.498420000076294
1617796361.69601,23.51001,3.514050006866455
1617796361.71163,23.22543,3.529670000076294
1617796361.72726,21.85297,3.545300006866455
1617796361.74288,19.34958,3.560920000076294
1617796361.75851,15.90582,3.576550006866455
1617796361.77414,11.91333,3.592179775238037
1617796361.78976,7.831299,3.607800006866455
1617796361.80539,4.046997,3.623429775238037
1617796361.82101,0.7662964,3.639050006866455
1617796361.83664,-2.094269,3.654679775238037
1617796361.85227,-4.89682,3.6703097820281982
1617796361.86789,-8.162384,3.685929775238037
1617796361.88352,-12.47763,3.7015597820281982
1617796361.89914,-18.29099,3.717179775238037
1617796361.91477,-25.71951,3.7328097820281982
1617796361.93039,-34.36505,3.748429775238037
1617796361.94602,-43.24744,3.7640597820281982
1617796361.96165,-50.89539,3.7796897888183594
1617796361.97727,-55.67404,3.7953097820281982
1617796361.9929,-56.21378,3.8109397888183594
1617796362.00852,-51.85898,3.8265597820281982
1617796362.02415,-42.87976,3.8421897888183594
1617796362.03977,-30.37582,3.8578097820281982
1617796362.0554,-15.93478,3.8734397888183594
1617796362.07103,-1.155701,3.8890697956085205
1617796362.08665,12.69397,3.9046897888183594
1617796362.10228,24.8324,3.9203197956085205
1617796362.1179,34.88425,3.9359397888183594
1617796362.13353,42.74265,3.9515697956085205
1617796362.14915,48.39655,3.9671897888183594
1617796362.16478,51.92755,3.9828197956085205
1617796362.18041,53.48804,3.9984498023986816
1617796362.19603,53.37067,4.0140697956085205
1617796362.21166,51.97607,4.029699802398682
1617796362.22728,49.70636,4.0453197956085205
1617796362.24291,46.89624,4.060949802398682
1617796362.25853,43.74146,4.0765697956085205
1617796362.27416,40.32404,4.092199802398682
1617796362.28979,36.73767,4.107829809188843
1617796362.30541,33.13129,4.123449802398682
1617796362.32104,29.7641,4.139079809188843
1617796362.33666,26.93945,4.154699802398682
1617796362.35229,24.93555,4.170329809188843
1617796362.36791,23.87396,4.185949802398682
1617796362.38354,23.6814,4.201579809188843
1617796362.39917,24.0708,4.217209815979004
1617796362.41479,24.58185,4.232829809188843
1617796362.43042,24.69208,4.248459815979004
1617796362.44604,23.97125,4.264079809188843
1617796362.46167,22.19464,4.279709815979004
1617796362.47729,19.42828,4.295329809188843
1617796362.49292,16.01471,4.310959815979004
1617796362.50855,12.39941,4.326589822769165
1617796362.52417,8.957397,4.342209815979004
1617796362.5398,5.825806,4.357839822769165
1617796362.55542,2.794617,4.373459815979004
1617796362.57105,-0.581543,4.389089822769165
1617796362.58667,-4.861938,4.404709815979004
1617796362.6023,-10.48846,4.420339822769165
1617796362.61793,-17.58887,4.435969829559326
1617796362.63355,-25.82855,4.451589822769165
1617796362.64918,-34.37158,4.467219829559326
1617796362.6648,-41.95062,4.482839822769165
1617796362.68043,-47.08795,4.498469829559326
1617796362.69605,-48.495,4.514089822769165
1617796362.71168,-45.41919,4.529719829559326
1617796362.72731,-37.98041,4.545349836349487
1617796362.74293,-27.08722,4.560969829559326
1617796362.75856,-14.16632,4.576599836349487
1617796362.77418,-0.7634888,4.592219829559326
1617796362.78981,11.89539,4.607849836349487
1617796362.80543,23.02332,4.623469829559326
1617796362.82106,32.27173,4.639099836349487
1617796362.83669,39.51996,4.654729843139648
1617796362.85231,44.73969,4.670349836349487
1617796362.86794,47.95477,4.685979843139648
1617796362.88356,49.25342,4.701599836349487
1617796362.89919,48.87714,4.717229843139648
1617796362.91481,47.15326,4.732849836349487
1617796362.93044,44.44714,4.748479843139648
1617796362.94607,41.1037,4.76410984992981
1617796362.96169,37.40601,4.779729843139648
1617796362.97732,33.60492,4.79535984992981
1617796362.99294,29.93152,4.810979843139648
1617796363.00857,26.56488,4.82660984992981
1617796363.02419,23.617,4.842229843139648
1617796363.03982,21.1203,4.85785984992981
1617796363.05545,19.07019,4.873489856719971
1617796363.07107,17.47961,4.88910984992981
1617796363.0867,16.40961,4.904739856719971
1617796363.10232,15.87964,4.92035984992981
1617796363.11795,15.75201,4.935989856719971
1617796363.13357,15.69849,4.95160984992981
1617796363.1492,15.25092,4.967239856719971
1617796363.16483,13.93317,4.982869863510132
1617796363.18045,11.49744,4.998489856719971
1617796363.19608,7.990051,5.014119863510132
1617796363.2117,3.792236,5.029739856719971
1617796363.22733,-0.5996094,5.045369863510132
1617796363.24295,-4.760742,5.060989856719971
1617796363.25858,-8.516357,5.076619863510132
1617796363.27421,-12.03223,5.092249870300293
1617796363.28983,-15.70386,5.107869863510132
1617796363.30546,-20.02228,5.123499870300293
1617796363.32108,-25.34027,5.139119863510132
1617796363.33671,-31.67682,5.154749870300293
1617796363.35233,-38.59857,5.170369863510132
1617796363.36796,-45.23938,5.185999870300293
1617796363.38359,-50.44513,5.201629877090454
1617796363.39921,-53.03625,5.217249870300293
1617796363.41484,-52.11151,5.232879877090454
1617796363.43046,-47.33521,5.248499870300293
1617796363.44609,-39.02673,5.264129877090454
1617796363.46171,-28.10492,5.279749870300293
1617796363.47734,-15.84198,5.295379877090454
1617796363.49297,-3.55188,5.311009883880615
1617796363.50859,7.688049,5.326629877090454
1617796363.52422,17.14545,5.342259883880615
1617796363.53984,24.45636,5.357879877090454
1617796363.55547,29.5246,5.373509883880615
1617796363.57109,32.42633,5.389129877090454
1617796363.58672,33.36432,5.404759883880615
1617796363.60235,32.633,5.420389890670776
1617796363.61797,30.63293,5.436009883880615
1617796363.6336,27.80249,5.451639890670776
1617796363.64922,24.57141,5.467259883880615
1617796363.66485,21.26685,5.482889890670776
1617796363.68047,18.10431,5.498509883880615
1617796363.6961,15.17542,5.514139890670776
1617796363.71173,12.51874,5.5297698974609375
1617796363.72735,10.19598,5.545389890670776
1617796363.74298,8.354553,5.5610198974609375
1617796363.7586,7.192871,5.576639890670776
1617796363.77423,6.906006,5.5922698974609375
1617796363.78985,7.556152,5.607889890670776
1617796363.80548,9.001831,5.6235198974609375
1617796363.82111,10.87616,5.639149904251099
1617796363.83673,12.64197,5.6547698974609375
1617796363.85236,13.76263,5.670399904251099
1617796363.86798,13.84692,5.6860198974609375
1617796363.88361,12.776,5.701649904251099
1617796363.89923,10.70612,5.7172698974609375
1617796363.91486,7.986633,5.732899904251099
1617796363.93049,5.022949,5.74852991104126
1617796363.94611,2.144165,5.764149904251099
1617796363.96174,-0.4790039,5.77977991104126
1617796363.97736,-2.859131,5.795399904251099
1617796363.99299,-5.200256,5.81102991104126
1617796364.00861,-7.847656,5.826649904251099
1617796364.02424,-11.22571,5.84227991104126
1617796364.03987,-15.68054,5.857909917831421
1617796364.05549,-21.29224,5.87352991104126
1617796364.07112,-27.68658,5.889159917831421
1617796364.08674,-33.97943,5.90477991104126
1617796364.10237,-38.89563,5.920409917831421
1617796364.118,-41.099,5.936039924621582
1617796364.13362,-39.60968,5.951659917831421
1617796364.14925,-34.14752,5.967289924621582
1617796364.16487,-25.2536,5.982909917831421
1617796364.1805,-14.10712,5.998539924621582
1617796364.19612,-2.174866,6.014159917831421
1617796364.21175,9.257813,6.029789924621582
1617796364.22738,19.31915,6.045419931411743
1617796364.243,27.64709,6.061039924621582
1617796364.25863,34.18347,6.076669931411743
1617796364.27425,39.00708,6.092289924621582
1617796364.28988,42.13965,6.107919931411743
1617796364.3055,43.53705,6.123539924621582
1617796364.32113,43.22845,6.139169931411743
1617796364.33676,41.42072,6.154799938201904
1617796364.35238,38.54712,6.170419931411743
1617796364.36801,35.20154,6.186049938201904
1617796364.38363,31.97003,6.201669931411743
1617796364.39926,29.2597,6.217299938201904
1617796364.41488,27.21753,6.232919931411743
1617796364.43051,25.77466,6.248549938201904
1617796364.44614,24.71045,6.264179944992065
1617796364.46176,23.82104,6.279799938201904
1617796364.47739,22.9928,6.295429944992065
1617796364.49301,22.22382,6.311049938201904
1617796364.50864,21.58411,6.326679944992065
1617796364.52426,21.13483,6.342299938201904
1617796364.53989,20.8576,6.357929944992065
1617796364.55552,20.62219,6.373559951782227
1617796364.57114,20.1748,6.389179944992065
1617796364.58677,19.18964,6.404809951782227
1617796364.60239,17.36615,6.420429944992065
1617796364.61802,14.54504,6.436059951782227
1617796364.63364,10.80402,6.451679944992065
1617796364.64927,6.432678,6.467309951782227
1617796364.6649,1.854187,6.482939958572388
1617796364.68052,-2.528015,6.498559951782227
1617796364.69615,-6.487793,6.514189958572388
1617796364.71177,-10.04724,6.529809951782227
1617796364.7274,-13.43658,6.545439958572388
1617796364.74302,-16.98584,6.561059951782227
1617796364.75865,-21.02692,6.576689958572388
1617796364.77428,-25.78082,6.592319965362549
1617796364.7899,-31.27594,6.607939958572388
1617796364.80553,-37.25922,6.623569965362549
1617796364.82115,-43.14935,6.639189958572388
1617796364.83678,-48.01013,6.654819965362549
1617796364.8524,-50.73718,6.670439958572388
1617796364.86803,-50.29956,6.686069965362549
1617796364.88366,-46.11548,6.70169997215271
1617796364.89928,-38.30945,6.717319965362549
1617796364.91491,-27.73444,6.73294997215271
1617796364.93053,-15.7226,6.748569965362549
1617796364.94616,-3.722595,6.76419997215271
1617796364.96178,7.09314,6.779819965362549
1617796364.97741,16.05212,6.79544997215271
1617796364.99304,22.93396,6.811079978942871
1617796365.00866,27.84528,6.82669997215271
1617796365.02429,30.99896,6.842329978942871
1617796365.03991,32.61963,6.85794997215271
1617796365.05554,32.92712,6.873579978942871
1617796365.07116,32.15863,6.88919997215271
1617796365.08679,30.62665,6.904829978942871
1617796365.10242,28.66962,6.920459985733032
1617796365.11804,26.59772,6.936079978942871
1617796365.13367,24.59705,6.951709985733032
1617796365.14929,22.71777,6.967329978942871
1617796365.16492,20.94238,6.982959985733032
1617796365.18054,19.26678,6.998579978942871
1617796365.19617,17.77557,7.014209985733032
1617796365.2118,16.63306,7.029839992523193
1617796365.22742,16.01971,7.045459985733032
1617796365.24305,16.00122,7.061089992523193
1617796365.25867,16.47284,7.076709985733032
1617796365.2743,17.11707,7.092339992523193
1617796365.28992,17.57056,7.107959985733032
1617796365.30555,17.53027,7.123589992523193
1617796365.32118,16.88721,7.1392199993133545
1617796365.3368,15.71436,7.154839992523193
1617796365.35243,14.1864,7.1704699993133545
1617796365.36805,12.45117,7.186089992523193
1617796365.38368,10.55853,7.2017199993133545
1617796365.3993,8.41626,7.217339992523193
1617796365.41493,5.881714,7.2329699993133545
1617796365.43056,2.852173,7.248600006103516
1617796365.44618,-0.6624146,7.2642199993133545
1617796365.46181,-4.532898,7.279850006103516
1617796365.47743,-8.515869,7.2954699993133545
1617796365.49306,-12.38647,7.311100006103516
1617796365.50868,-15.98627,7.3267199993133545
1617796365.52431,-19.32214,7.342350006103516
1617796365.53994,-22.56598,7.357980012893677
1617796365.55556,-26.02313,7.373600006103516
1617796365.57119,-30.05023,7.389230012893677
1617796365.58681,-34.88388,7.404850006103516
1617796365.60244,-40.46619,7.420480012893677
1617796365.61806,-46.29276,7.436100006103516
1617796365.63369,-51.42719,7.451730012893677
1617796365.64932,-54.67139,7.467359781265259
1617796365.66494,-54.88354,7.482980012893677
1617796365.68057,-51.38745,7.498609781265259
1617796365.69619,-44.19257,7.514230012893677
1617796365.71182,-34.01706,7.529859781265259
1617796365.72744,-22.08432,7.545480012893677
1617796365.74307,-9.749298,7.561109781265259
1617796365.7587,1.838135,7.57673978805542
1617796365.77432,11.89038,7.592359781265259
1617796365.78995,20.00952,7.60798978805542
1617796365.80557,26.06885,7.623609781265259
1617796365.8212,30.12244,7.63923978805542
1617796365.83682,32.33954,7.654859781265259
1617796365.85245,32.98544,7.67048978805542
1617796365.86808,32.42731,7.686119794845581
1617796365.8837,31.08438,7.70173978805542
1617796365.89933,29.36169,7.717369794845581
1617796365.91495,27.55396,7.73298978805542
1617796365.93058,25.82254,7.748619794845581
1617796365.9462,24.21658,7.76423978805542
1617796365.96183,22.71597,7.779869794845581
1617796365.97746,21.3197,7.795499801635742
1617796365.99308,20.07654,7.811119794845581
1617796366.00871,19.15677,7.826749801635742
1617796366.02433,18.73334,7.842369794845581
1617796366.03996,19.00381,7.857999801635742
1617796366.05558,20.01633,7.873619794845581
1617796366.07121,21.60178,7.889249801635742
1617796366.08684,23.41098,7.904879808425903
1617796366.10246,24.93823,7.920499801635742
1617796366.11809,25.74307,7.936129808425903
1617796366.13371,25.54547,7.951749801635742
1617796366.14934,24.33237,7.967379808425903
1617796366.16496,22.33002,7.982999801635742
1617796366.18059,19.88693,7.998629808425903
1617796366.19622,17.35144,8.014259815216064
1617796366.21184,14.95435,8.029879808425903
1617796366.22747,12.77603,8.045509815216064
1617796366.24309,10.73117,8.061129808425903
1617796366.25872,8.670868,8.076759815216064
1617796366.27434,6.424286,8.092379808425903
1617796366.28997,3.877106,8.108009815216064
1617796366.3056,1.004822,8.123639822006226
1617796366.32122,-2.113586,8.139259815216064
1617796366.33685,-5.325989,8.154889822006226
1617796366.35247,-8.451874,8.170509815216064
1617796366.3681,-11.31973,8.186139822006226
1617796366.38372,-13.87299,8.201759815216064
1617796366.39935,-16.20486,8.217389822006226
1617796366.41498,-18.57977,8.233019828796387
1617796366.4306,-21.39304,8.248639822006226
1617796366.44623,-25.02078,8.264269828796387
1617796366.46185,-29.66718,8.279889822006226
1617796366.47748,-35.13846,8.295519828796387
1617796366.4931,-40.77017,8.311139822006226
1617796366.50873,-45.47952,8.326769828796387
1617796366.52436,-48.06992,8.342399835586548
1617796366.53998,-47.57349,8.358019828796387
1617796366.55561,-43.60425,8.373649835586548
1617796366.57123,-36.50101,8.389269828796387
1617796366.58686,-27.19171,8.404899835586548
1617796366.60248,-16.9194,8.420519828796387
1617796366.61811,-6.838318,8.436149835586548
1617796366.63374,2.170746,8.451779842376709
1617796366.64936,9.671234,8.467399835586548
1617796366.66499,15.52353,8.483029842376709
1617796366.68061,19.80365,8.498649835586548
1617796366.69624,22.62888,8.514279842376709
1617796366.71187,24.09998,8.52990984916687
1617796366.72749,24.33203,8.545529842376709
1617796366.74312,23.46756,8.56115984916687
1617796366.75874,21.72775,8.576779842376709
1617796366.77437,19.37244,8.59240984916687
1617796366.78999,16.67737,8.608029842376709
1617796366.80562,13.88605,8.62365984916687
1617796366.82125,11.20306,8.639289855957031
1617796366.83687,8.801483,8.65490984916687
1617796366.8525,6.836578,8.670539855957031
1617796366.86812,5.478424,8.68615984916687
1617796366.88375,4.881622,8.701789855957031
1617796366.89937,5.137512,8.71740984916687
1617796366.915,6.20636,8.733039855957031
1617796366.93063,7.894226,8.748669862747192
1617796366.94625,9.887604,8.764289855957031
1617796366.96188,11.82718,8.779919862747192
1617796366.9775,13.40689,8.795539855957031
1617796366.99313,14.44296,8.811169862747192
1617796367.00875,14.89673,8.826789855957031
1617796367.02438,14.88278,8.842419862747192
1617796367.04001,14.55673,8.858049869537354
1617796367.05563,14.06284,8.873669862747192
1617796367.07126,13.45255,8.889299869537354
1617796367.08688,12.62936,8.904919862747192
1617796367.10251,11.35895,8.920549869537354
1617796367.11813,9.386169,8.936169862747192
1617796367.13376,6.560394,8.951799869537354
1617796367.14939,2.970764,8.967429876327515
1617796367.16501,-1.024582,8.983049869537354
1617796367.18064,-4.910461,8.998679876327515
1617796367.19626,-8.222839,9.014299869537354
1617796367.21189,-10.72192,9.029929876327515
1617796367.22751,-12.52859,9.045549869537354
1617796367.24314,-14.04362,9.061179876327515
1617796367.25877,-15.79913,9.076809883117676
1617796367.27439,-18.25301,9.092429876327515
1617796367.29002,-21.66193,9.108059883117676
1617796367.30564,-25.9908,9.123679876327515
1617796367.32127,-30.9425,9.139309883117676
1617796367.33689,-35.95734,9.154929876327515
1617796367.35252,-40.24539,9.170559883117676
1617796367.36815,-42.9091,9.186189889907837
1617796367.38377,-43.13594,9.201809883117676
1617796367.3994,-40.43549,9.217439889907837
1617796367.41502,-34.8392,9.233059883117676
1617796367.43065,-26.99239,9.248689889907837
1617796367.44627,-17.94774,9.264309883117676
1617796367.4619,-8.904648,9.279939889907837
1617796367.47753,-0.8342743,9.295569896697998
1617796367.49315,5.739151,9.311189889907837
1617796367.50878,10.716,9.326819896697998
1617796367.5244,14.30989,9.342439889907837
1617796367.54003,16.79805,9.358069896697998
1617796367.55565,18.36769,9.373689889907837
1617796367.57128,19.04739,9.389319896697998
1617796367.58691,18.73476,9.40494990348816
1617796367.60253,17.31915,9.420569896697998
1617796367.61816,14.77016,9.43619990348816
1617796367.63378,11.24486,9.451819896697998
1617796367.64941,7.07869,9.46744990348816
1617796367.66503,2.775986,9.483069896697998
1617796367.68066,-1.069168,9.49869990348816
1617796367.69629,-3.89032,9.51432991027832
1617796367.71191,-5.226929,9.52994990348816
1617796367.72754,-4.876755,9.54557991027832
1617796367.74316,-2.954514,9.56119990348816
1617796367.75879,0.009490967,9.57682991027832
1617796367.77441,3.142914,9.59244990348816
1617796367.79004,5.465126,9.60807991027832
1617796367.80567,6.192558,9.623709917068481
1617796367.82129,5.058777,9.63932991027832
1617796367.83692,2.464249,9.654959917068481
1617796367.85254,-0.6067505,9.67057991027832
1617796367.86817,-2.903412,9.686209917068481
1617796367.88379,-3.354515,9.70182991027832
1617796367.89942,-1.393349,9.717459917068481
1617796367.91505,2.88398,9.733089923858643
1617796367.93067,8.83889,9.748709917068481
1617796367.9463,15.52529,9.764339923858643
1617796367.96192,21.95384,9.779959917068481
1617796367.97755,27.26411,9.795589923858643
1617796367.99317,30.82178,9.811209917068481
1617796368.0088,32.31911,9.826839923858643
1617796368.02443,31.88523,9.842469930648804
1617796368.04005,30.12807,9.858089923858643
1617796368.05568,28.048,9.873719930648804
1617796368.0713,26.70437,9.889339923858643
1617796368.08693,26.83921,9.904969930648804
1617796368.10255,28.61924,9.920589923858643
1617796368.11818,31.54966,9.936219930648804
1617796368.13381,34.77658,9.951849937438965
1617796368.14943,37.43639,9.967469930648804
1617796368.16506,39.02583,9.983099937438965
1617796368.18068,39.45423,9.998719930648804
1617796368.19631,38.84367,10.014349937438965
1617796368.21193,37.203,10.029969930648804
1617796368.22756,34.25146,10.045599937438965
1617796368.24319,29.55725,10.061229944229126
1617796368.25881,22.86669,10.076849937438965
1617796368.27444,14.48127,10.092479944229126
1617796368.29006,5.372876,10.108099937438965
1617796368.30569,-3.032662,10.123729944229126
1617796368.32131,-9.407385,10.139349937438965
1617796368.33694,-12.94533,10.154979944229126
1617796368.35257,-13.60249,10.170609951019287
1617796368.36819,-11.93861,10.186229944229126
1617796368.38382,-8.759693,10.201859951019287
1617796368.39944,-4.74263,10.217479944229126
1617796368.41507,-0.3413162,10.233109951019287
1617796368.43069,4.087189,10.248729944229126
1617796368.44632,8.045536,10.264359951019287
1617796368.46195,10.77787,10.279989957809448
1617796368.47757,11.46255,10.295609951019287
1617796368.4932,9.541977,10.311239957809448
1617796368.50882,5.041168,10.326859951019287
1617796368.52445,-1.338249,10.342489957809448
1617796368.54007,-8.442596,10.358109951019287
1617796368.5557,-15.03261,10.373739957809448
1617796368.57133,-20.22263,10.38936996459961
1617796368.58695,-23.61278,10.404989957809448
1617796368.60258,-25.28511,10.42061996459961
1617796368.6182,-25.61857,10.436239957809448
1617796368.63383,-25.0741,10.45186996459961
1617796368.64945,-24.09647,10.467489957809448
1617796368.66508,-23.03342,10.48311996459961
1617796368.68071,-22.12129,10.49874997138977
1617796368.69633,-21.47646,10.51436996459961
1617796368.71196,-21.09195,10.52999997138977
1617796368.72758,-20.88216,10.54561996459961
1617796368.74321,-20.75006,10.56124997138977
1617796368.75883,-20.69705,10.57686996459961
1617796368.77446,-20.8315,10.59249997138977
1617796368.79009,-21.33505,10.608129978179932
1617796368.80571,-22.35283,10.62374997138977
1617796368.82134,-23.8824,10.639379978179932
1617796368.83696,-25.7661,10.65499997138977
1617796368.85259,-27.74823,10.670629978179932
1617796368.86821,-29.59166,10.68624997138977
1617796368.88384,-31.19794,10.701879978179932
1617796368.89947,-32.57034,10.717509984970093
1617796368.91509,-33.80287,10.733129978179932
1617796368.93072,-34.98741,10.748759984970093
1617796368.94634,-36.19867,10.764379978179932
1617796368.96197,-37.52847,10.780009984970093
1617796368.9776,-39.10307,10.795639991760254
1617796368.99322,-41.08907,10.811259984970093
1617796369.00885,-43.54593,10.826889991760254
1617796369.02447,-46.3143,10.842509984970093
1617796369.0401,-48.90826,10.858139991760254
1617796369.05572,-50.53427,10.873759984970093
1617796369.07135,-50.32819,10.889389991760254
1617796369.08698,-47.5999,10.905019998550415
1617796369.1026,-42.10867,10.920639991760254
1617796369.11823,-34.16422,10.936269998550415
1617796369.13385,-24.59476,10.951889991760254
1617796369.14948,-14.49606,10.967519998550415
1617796369.1651,-4.956543,10.983139991760254
1617796369.18073,3.219849,10.998769998550415
1617796369.19636,9.63681,11.014400005340576
1617796369.21198,14.28799,11.030019998550415
1617796369.22761,17.39456,11.045650005340576
1617796369.24323,19.25458,11.061269998550415
1617796369.25886,20.11789,11.076900005340576
1617796369.27448,20.14536,11.092519998550415
1617796369.29011,19.47571,11.108150005340576
1617796369.30574,18.25293,11.123780012130737
1617796369.32136,16.68347,11.139400005340576
1617796369.33699,14.97998,11.155030012130737
1617796369.35261,13.30606,11.170650005340576
1617796369.36824,11.74554,11.186280012130737
1617796369.38386,10.25592,11.201900005340576
1617796369.39949,8.776276,11.217530012130737
1617796369.41512,7.30014,11.23315978050232
1617796369.43074,5.912231,11.248780012130737
1617796369.44637,4.763489,11.26440978050232
1617796369.46199,3.983521,11.280030012130737
1617796369.47762,3.607544,11.29565978050232
1617796369.49324,3.543518,11.311280012130737
1617796369.50887,3.61087,11.32690978050232
1617796369.5245,3.594849,11.34253978729248
1617796369.54012,3.362885,11.35815978050232
1617796369.55575,2.859497,11.37378978729248
1617796369.57137,2.153107,11.38940978050232
1617796369.587,1.338043,11.40503978729248
1617796369.60262,0.4920349,11.42065978050232
1617796369.61825,-0.3465271,11.43628978729248
1617796369.63388,-1.203125,11.451919794082642
1617796369.6495,-2.121063,11.46753978729248
1617796369.66513,-3.133484,11.483169794082642
1617796369.68075,-4.300232,11.49878978729248
1617796369.69638,-5.652679,11.514419794082642
1617796369.712,-7.230255,11.53003978729248
1617796369.72763,-9.028778,11.545669794082642
1617796369.74326,-10.99609,11.561299800872803
1617796369.75888,-13.08301,11.576919794082642
1617796369.77451,-15.28012,11.592549800872803
1617796369.79013,-17.65073,11.608169794082642
1617796369.80576,-20.32645,11.623799800872803
1617796369.82138,-23.41879,11.639419794082642
1617796369.83701,-26.88306,11.655049800872803
1617796369.85264,-30.42953,11.670679807662964
1617796369.86826,-33.44876,11.686299800872803
1617796369.88389,-35.16913,11.701929807662964
1617796369.89951,-34.86234,11.717549800872803
1617796369.91514,-32.11169,11.733179807662964
1617796369.93076,-26.96231,11.748799800872803
1617796369.94639,-19.89529,11.764429807662964
1617796369.96202,-11.68814,11.780059814453125
1617796369.97764,-3.216919,11.795679807662964
1617796369.99327,4.756317,11.811309814453125
1617796370.00889,11.66019,11.826929807662964
1617796370.02452,17.15097,11.842559814453125
1617796370.04014,21.08493,11.858179807662964
1617796370.05577,23.48599,11.873809814453125
1617796370.0714,24.51257,11.889439821243286
1617796370.08702,24.44284,11.905059814453125
1617796370.10265,23.59012,11.920689821243286
1617796370.11827,22.26544,11.936309814453125
1617796370.1339,20.68726,11.951939821243286
1617796370.14952,18.95615,11.967559814453125
1617796370.16515,17.07187,11.983189821243286
1617796370.18078,15.01297,11.998819828033447
1617796370.1964,12.78497,12.014439821243286
1617796370.21203,10.47208,12.030069828033447
1617796370.22765,8.205322,12.045689821243286
1617796370.24328,6.149811,12.061319828033447
1617796370.2589,4.458984,12.076939821243286
1617796370.27453,3.235443,12.092569828033447
1617796370.29016,2.528046,12.108199834823608
1617796370.30578,2.323242,12.123819828033447
1617796370.32141,2.539948,12.139449834823608
1617796370.33703,3.022675,12.155069828033447
1617796370.35266,3.588867,12.170699834823608
1617796370.36828,4.032562,12.186319828033447
1617796370.38391,4.174774,12.201949834823608
1617796370.39954,3.898712,12.21757984161377
1617796370.41516,3.15332,12.233199834823608
1617796370.43079,1.943695,12.24882984161377
1617796370.44641,0.324646,12.264449834823608
1617796370.46204,-1.634155,12.28007984161377
1617796370.47766,-3.823883,12.295699834823608
1617796370.49329,-6.107788,12.31132984161377
1617796370.50892,-8.360596,12.32695984840393
1617796370.52454,-10.47729,12.34257984161377
1617796370.54017,-12.42035,12.35820984840393
1617796370.55579,-14.25729,12.37382984161377
1617796370.57142,-16.12241,12.38945984840393
1617796370.58704,-18.16943,12.40507984161377
1617796370.60267,-20.47812,12.42070984840393
1617796370.6183,-22.95239,12.436339855194092
1617796370.63392,-25.28989,12.45195984840393
1617796370.64955,-26.99771,12.467589855194092
1617796370.66517,-27.53586,12.48320984840393
1617796370.6808,-26.46152,12.498839855194092
1617796370.69642,-23.61356,12.51445984840393
1617796370.71205,-19.16577,12.530089855194092
1617796370.72768,-13.58286,12.545719861984253
1617796370.7433,-7.509491,12.561339855194092
1617796370.75893,-1.593292,12.576969861984253
1617796370.77455,3.563751,12.592589855194092
1617796370.79018,7.509064,12.608219861984253
1617796370.8058,9.939301,12.623839855194092
1617796370.82143,10.75574,12.639469861984253
1617796370.83706,10.10037,12.655099868774414
1617796370.85268,8.367828,12.670719861984253
1617796370.86831,6.105652,12.686349868774414
1617796370.88393,3.818359,12.701969861984253
1617796370.89956,1.838989,12.717599868774414
1617796370.91518,0.1837463,12.733219861984253
1617796370.93081,-1.350372,12.748849868774414
1617796370.94644,-3.082672,12.764479875564575
1617796370.96206,-5.228394,12.780099868774414
1617796370.97769,-7.825287,12.795729875564575
1617796370.99331,-10.70218,12.811349868774414
1617796371.00894,-13.58115,12.826979875564575
1617796371.02456,-16.16727,12.842599868774414
1617796371.04019,-18.20013,12.858229875564575
1617796371.05582,-19.55212,12.873859882354736
1617796371.07144,-20.1908,12.889479875564575
1617796371.08707,-20.2597,12.905109882354736
1617796371.10269,-20.01541,12.920729875564575
1617796371.11832,-19.79593,12.936359882354736
1617796371.13394,-19.90646,12.951979875564575
1617796371.14957,-20.50772,12.967609882354736
1617796371.1652,-21.54907,12.983239889144897
1617796371.18082,-22.75369,12.998859882354736
1617796371.19645,-23.76968,13.014489889144897
1617796371.21207,-24.29364,13.030109882354736
1617796371.2277,-24.21609,13.045739889144897
1617796371.24333,-23.69867,13.061369895935059
1617796371.25895,-23.14859,13.076989889144897
1617796371.27458,-23.06339,13.092619895935059
1617796371.2902,-23.87494,13.108239889144897
1617796371.30583,-25.70651,13.123869895935059
1617796371.32145,-28.27472,13.139489889144897
1617796371.33708,-30.90195,13.155119895935059
1617796371.35271,-32.66461,13.17074990272522
1617796371.36833,-32.67694,13.186369895935059
1617796371.38396,-30.34476,13.20199990272522
1617796371.39958,-25.55206,13.217619895935059
1617796371.41521,-18.64932,13.23324990272522
1617796371.43083,-10.37341,13.248869895935059
1617796371.44646,-1.610107,13.26449990272522
1617796371.46209,6.809662,13.28012990951538
1617796371.47771,14.23523,13.29574990272522
1617796371.49334,20.2601,13.31137990951538
1617796371.50896,24.68713,13.32699990272522
1617796371.52459,27.48077,13.34262990951538
1617796371.54021,28.69977,13.35824990272522
1617796371.55584,28.48938,13.37387990951538
1617796371.57147,27.04932,13.389509916305542
1617796371.58709,24.62656,13.40512990951538
1617796371.60272,21.54874,13.420759916305542
1617796371.61834,18.13495,13.43637990951538
1617796371.63397,14.74454,13.452009916305542
1617796371.64959,11.66595,13.46762990951538
1617796371.66522,9.111755,13.483259916305542
1617796371.68085,7.157257,13.498889923095703
1617796371.69647,5.771484,13.514509916305542
1617796371.7121,4.82309,13.530139923095703
1617796371.72772,4.162659,13.545759916305542
1617796371.74335,3.679108,13.561389923095703
1617796371.75897,3.325867,13.577009916305542
1617796371.7746,3.124207,13.592639923095703
1617796371.79023,3.134216,13.608269929885864
1617796371.80585,3.350342,13.623889923095703
1617796371.82148,3.6474,13.639519929885864
1617796371.8371,3.811737,13.655139923095703
1617796371.85273,3.552734,13.670769929885864
1617796371.86835,2.664337,13.686389923095703
1617796371.88398,1.067047,13.702019929885864
1617796371.89961,-1.128418,13.717649936676025
1617796371.91523,-3.67926,13.733269929885864
1617796371.93086,-6.33139,13.748899936676025
1617796371.94648,-8.894012,13.764519929885864
1617796371.96211,-11.35794,13.780149936676025
1617796371.97773,-13.78964,13.795769929885864
1617796371.99336,-16.35873,13.811399936676025
1617796372.00899,-19.26169,13.827029943466187
1617796372.02461,-22.65488,13.842649936676025
1617796372.04024,-26.65326,13.858279943466187
1617796372.05586,-31.17014,13.873899936676025
1617796372.07149,-35.89255,13.889529943466187
1617796372.08711,-40.15222,13.905149936676025
1617796372.10274,-43.00641,13.920779943466187
1617796372.11837,-43.44449,13.936409950256348
1617796372.13399,-40.69922,13.952029943466187
1617796372.14962,-34.5748,13.967659950256348
1617796372.16524,-25.57504,13.983279943466187
1617796372.18087,-14.7951,13.998909950256348
1617796372.19649,-3.606049,14.014529943466187
1617796372.21212,6.716949,14.030159950256348
1617796372.22775,15.31207,14.045789957046509
1617796372.24337,21.81964,14.061409950256348
1617796372.259,26.26706,14.077039957046509
1617796372.27462,28.94315,14.092659950256348
1617796372.29025,30.20001,14.108289957046509
1617796372.30587,30.36844,14.123909950256348
1617796372.3215,29.69937,14.139539957046509
1617796372.33713,28.4191,14.15516996383667
1617796372.35275,26.70465,14.170789957046509
1617796372.36838,24.72934,14.18641996383667
1617796372.384,22.65372,14.202039957046509
1617796372.39963,20.61334,14.21766996383667
1617796372.41525,18.70096,14.233289957046509
1617796372.43088,16.98846,14.24891996383667
1617796372.44651,15.55453,14.264549970626831
1617796372.46213,14.44843,14.28016996383667
1617796372.47776,13.76776,14.295799970626831
1617796372.49338,13.58286,14.31141996383667
1617796372.50901,13.90817,14.327049970626831
1617796372.52463,14.68048,14.34266996383667
1617796372.54026,15.71863,14.358299970626831
1617796372.55589,16.75955,14.373929977416992
1617796372.57151,17.53586,14.389549970626831
1617796372.58714,17.85284,14.405179977416992
1617796372.60276,17.61945,14.420799970626831
1617796372.61839,16.87619,14.436429977416992
1617796372.63401,15.71024,14.452049970626831
1617796372.64964,14.21472,14.467679977416992
1617796372.66527,12.44727,14.483309984207153
1617796372.68089,10.43958,14.498929977416992
1617796372.69652,8.209717,14.514559984207153
1617796372.71214,5.853912,14.530179977416992
1617796372.72777,3.504669,14.545809984207153
1617796372.74339,1.286865,14.561429977416992
1617796372.75902,-0.7637329,14.577059984207153
1617796372.77465,-2.762695,14.592689990997314
1617796372.79027,-4.960114,14.608309984207153
1617796372.8059,-7.590729,14.623939990997314
1617796372.82152,-10.76471,14.639559984207153
1617796372.83715,-14.35501,14.655189990997314
1617796372.85277,-18.02054,14.670809984207153
1617796372.8684,-21.37573,14.686439990997314
1617796372.88403,-24.13318,14.702069997787476
1617796372.89965,-26.2485,14.717689990997314
1617796372.91528,-27.91791,14.733319997787476
1617796372.9309,-29.49741,14.748939990997314
1617796372.94653,-31.36658,14.764569997787476
1617796372.96215,-33.84637,14.780189990997314
1617796372.97778,-37.10394,14.795819997787476
1617796372.99341,-41.17523,14.811450004577637
1617796373.00903,-45.87646,14.827069997787476
1617796373.02466,-50.72305,14.842700004577637
1617796373.04028,-54.88379,14.858319997787476
1617796373.05591,-57.27109,14.873950004577637
1617796373.07153,-56.79672,14.889569997787476
1617796373.08716,-52.71579,14.905200004577637
1617796373.10279,-44.94174,14.920830011367798
1617796373.11841,-34.16235,14.936450004577637
1617796373.13404,-21.68185,14.952080011367798
1617796373.14966,-9.01825,14.967700004577637
1617796373.16529,2.495209,14.983330011367798
1617796373.18091,12.06192,14.998950004577637
1617796373.19654,19.46024,15.014580011367798
1617796373.21217,24.92438,15.03020977973938
1617796373.22779,28.85068,15.045830011367798
1617796373.24342,31.5614,15.06145977973938
1617796373.25904,33.21741,15.077080011367798
1617796373.27467,33.85437,15.09270977973938
1617796373.29029,33.48993,15.108330011367798
1617796373.30592,32.25546,15.12395977973938
1617796373.32155,30.37811,15.139589786529541
1617796373.33717,28.14133,15.15520977973938
1617796373.3528,25.78891,15.170839786529541
1617796373.36842,23.49341,15.18645977973938
1617796373.38405,21.39536,15.202089786529541
1617796373.39967,19.67545,15.21770977973938
1617796373.4153,18.5986,15.233339786529541
1617796373.43093,18.4436,15.248969793319702
1617796373.44655,19.35916,15.264589786529541
1617796373.46218,21.25906,15.280219793319702
1617796373.4778,23.75308,15.295839786529541
1617796373.49343,26.29434,15.311469793319702
1617796373.50905,28.30994,15.327089786529541
1617796373.52468,29.42209,15.342719793319702
1617796373.54031,29.54675,15.358349800109863
1617796373.55593,28.86758,15.373969793319702
1617796373.57156,27.6951,15.389599800109863
1617796373.58718,26.33432,15.405219793319702
1617796373.60281,24.96448,15.420849800109863
1617796373.61843,23.60144,15.436469793319702
1617796373.63406,22.14868,15.452099800109863
1617796373.64969,20.46298,15.467729806900024
1617796373.66531,18.44098,15.483349800109863
1617796373.68094,16.05951,15.498979806900024
1617796373.69656,13.38721,15.514599800109863
1617796373.71219,10.55844,15.530229806900024
1617796373.72781,7.708649,15.545849800109863
1617796373.74344,4.937714,15.561479806900024
1617796373.75907,2.274109,15.577109813690186
1617796373.77469,-0.301178,15.592729806900024
1617796373.79032,-2.832855,15.608359813690186
1617796373.80594,-5.338623,15.623979806900024
1617796373.82157,-7.833313,15.639609813690186
1617796373.8372,-10.2619,15.655239820480347
1617796373.85282,-12.57425,15.670859813690186
1617796373.86845,-14.716,15.686489820480347
1617796373.88407,-16.69208,15.702109813690186
1617796373.8997,-18.56802,15.717739820480347
1617796373.91532,-20.50409,15.733359813690186
1617796373.93095,-22.73611,15.748989820480347
1617796373.94658,-25.49014,15.764619827270508
1617796373.9622,-28.88855,15.780239820480347
1617796373.97783,-32.81012,15.795869827270508
1617796373.99345,-36.82413,15.811489820480347
1617796374.00908,-40.19919,15.827119827270508
1617796374.0247,-42.00919,15.842739820480347
1617796374.04033,-41.42346,15.858369827270508
1617796374.05596,-37.94376,15.873999834060669
1617796374.07158,-31.61456,15.889619827270508
1617796374.08721,-23.01669,15.905249834060669
1617796374.10283,-13.12735,15.920869827270508
1617796374.11846,-3.063873,15.936499834060669
1617796374.13408,6.205688,15.952119827270508
1617796374.14971,14.01712,15.967749834060669
1617796374.16534,20.11047,15.98337984085083
1617796374.18096,24.54929,15.998999834060669
1617796374.19659,27.58081,16.01462984085083
1617796374.21221,29.4808,16.03024983406067
1617796374.22784,30.44223,16.04587984085083
1617796374.24346,30.53928,16.06149983406067
1617796374.25909,29.80173,16.07712984085083
1617796374.27472,28.32404,16.09275984764099
1617796374.29034,26.3215,16.10837984085083
1617796374.30597,24.13977,16.12400984764099
1617796374.32159,22.14639,16.13962984085083
1617796374.33722,20.63263,16.15525984764099
1617796374.35284,19.71323,16.17087984085083
1617796374.36847,19.37396,16.18650984764099
1617796374.3841,19.46255,16.202139854431152
1617796374.39972,19.86591,16.21775984764099
1617796374.41535,20.50336,16.233389854431152
1617796374.43097,21.28439,16.24900984764099
1617796374.4466,22.08096,16.264639854431152
1617796374.46222,22.71698,16.28025984764099
1617796374.47785,23.03473,16.295889854431152
1617796374.49348,22.92792,16.311519861221313
1617796374.5091,22.42587,16.327139854431152
1617796374.52473,21.61731,16.342769861221313
1617796374.54035,20.59122,16.358389854431152
1617796374.55598,19.36087,16.374019861221313
1617796374.5716,17.87485,16.389639854431152
1617796374.58723,16.08661,16.405269861221313
1617796374.60286,14.02524,16.420899868011475
1617796374.61848,11.81897,16.436519861221313
1617796374.63411,9.637848,16.452149868011475
1617796374.64973,7.620819,16.467769861221313
1617796374.66536,5.788391,16.483399868011475
1617796374.68098,4.05014,16.499019861221313
1617796374.69661,2.251801,16.514649868011475
1617796374.71224,0.2794495,16.530279874801636
1617796374.72786,-1.860474,16.545899868011475
1617796374.74349,-4.07251,16.561529874801636
1617796374.75911,-6.218231,16.577149868011475
1617796374.77474,-8.203766,16.592779874801636
1617796374.79036,-10.0267,16.608399868011475
1617796374.80599,-11.74826,16.624029874801636
1617796374.82162,-13.42633,16.639659881591797
1617796374.83724,-15.10172,16.655279874801636
1617796374.85287,-16.80084,16.670909881591797
1617796374.86849,-18.58121,16.686529874801636
1617796374.88412,-20.59299,16.702159881591797
1617796374.89974,-23.0625,16.717779874801636
1617796374.91537,-26.13507,16.733409881591797
1617796374.931,-29.70016,16.749039888381958
1617796374.94662,-33.28973,16.764659881591797
1617796374.96225,-36.06808,16.780289888381958
1617796374.97787,-37.09036,16.795909881591797
1617796374.9935,-35.62494,16.811539888381958
1617796375.00912,-31.44626,16.827159881591797
1617796375.02475,-24.9306,16.842789888381958
1617796375.04038,-16.93384,16.85841989517212
1617796375.056,-8.504639,16.874039888381958
1617796375.07163,-0.5819092,16.88966989517212
1617796375.08725,6.231415,16.905289888381958
1617796375.10288,11.72507,16.92091989517212
1617796375.1185,15.94122,16.936539888381958
1617796375.13413,19.03882,16.95216989517212
1617796375.14976,21.13202,16.96779990196228
1617796375.16538,22.25577,16.98341989517212
1617796375.18101,22.42288,16.99904990196228
1617796375.19663,21.69366,17.01466989517212
1617796375.21226,20.2352,17.03029990196228
1617796375.22788,18.32855,17.04591989517212
1617796375.24351,16.27145,17.06154990196228
1617796375.25914,14.29999,17.07717990875244
1617796375.27476,12.59229,17.09279990196228
1617796375.29039,11.2341,17.10842990875244
1617796375.30601,10.30756,17.12404990196228
1617796375.32164,9.901398,17.13967990875244
1617796375.33726,10.06805,17.15529990196228
1617796375.35289,10.7724,17.17092990875244
1617796375.36852,11.85538,17.186559915542603
1617796375.38414,13.04599,17.20217990875244
1617796375.39977,14.04013,17.217809915542603
1617796375.41539,14.63043,17.23342990875244
1617796375.43102,14.73645,17.249059915542603
1617796375.44664,14.40567,17.26467990875244
1617796375.46227,13.76392,17.280309915542603
1617796375.4779,12.92102,17.295939922332764
1617796375.49352,11.9393,17.311559915542603
1617796375.50915,10.81183,17.327189922332764
1617796375.52477,9.480957,17.342809915542603
1617796375.5404,7.874481,17.358439922332764
1617796375.55602,5.957489,17.374059915542603
1617796375.57165,3.742004,17.389689922332764
1617796375.58728,1.333313,17.405319929122925
1617796375.6029,-1.099609,17.420939922332764
1617796375.61853,-3.358521,17.436569929122925
1617796375.63415,-5.262054,17.452189922332764
1617796375.64978,-6.746307,17.467819929122925
1617796375.6654,-7.864227,17.483439922332764
1617796375.68103,-8.765137,17.499069929122925
1617796375.69666,-9.615814,17.514699935913086
1617796375.71228,-10.55112,17.530319929122925
1617796375.72791,-11.65295,17.545949935913086
1617796375.74353,-12.95319,17.561569929122925
1617796375.75916,-14.43649,17.577199935913086
1617796375.77478,-16.03714,17.592819929122925
1617796375.79041,-17.68051,17.608449935913086
1617796375.80604,-19.30283,17.624079942703247
1617796375.82166,-20.91046,17.639699935913086
1617796375.83729,-22.5788,17.655329942703247
1617796375.85291,-24.41608,17.670949935913086
1617796375.86854,-26.45837,17.686579942703247
1617796375.88416,-28.54459,17.702199935913086
1617796375.89979,-30.29465,17.717829942703247
1617796375.91542,-31.15915,17.733459949493408
1617796375.93104,-30.59854,17.749079942703247
1617796375.94667,-28.28622,17.764709949493408
1617796375.96229,-24.23621,17.780329942703247
1617796375.97792,-18.79672,17.795959949493408
1617796375.99355,-12.51859,17.81158995628357
1617796376.00917,-5.991699,17.827209949493408
1617796376.0248,0.3356323,17.84283995628357
1617796376.04042,6.141571,17.858459949493408
1617796376.05605,11.21338,17.87408995628357
1617796376.07167,15.37253,17.889709949493408
1617796376.0873,18.45831,17.90533995628357
1617796376.10293,20.33618,17.92096996307373
1617796376.11855,20.98358,17.93658995628357
1617796376.13418,20.52475,17.95221996307373
1617796376.1498,19.24158,17.96783995628357
1617796376.16543,17.55566,17.98346996307373
1617796376.18105,15.91245,17.99908995628357
1617796376.19668,14.68823,18.01471996307373
1617796376.21231,14.11438,18.03034996986389
1617796376.22793,14.25427,18.04596996307373
1617796376.24356,15.00995,18.06159996986389
1617796376.25918,16.24109,18.07721996307373
1617796376.27481,17.79205,18.09284996986389
1617796376.29043,19.56833,18.10846996307373
1617796376.30606,21.55777,18.12409996986389
1617796376.32169,23.78317,18.139729976654053
1617796376.33731,26.2822,18.15534996986389
1617796376.35294,29.01666,18.170979976654053
1617796376.36856,31.88092,18.18659996986389
1617796376.38419,34.70215,18.202229976654053
1617796376.39981,37.34579,18.21784996986389
1617796376.41544,39.77145,18.233479976654053
1617796376.43107,42.12775,18.249109983444214
1617796376.44669,44.7439,18.264729976654053
1617796376.46232,48.04376,18.280359983444214
1617796376.47794,52.43552,18.295979976654053
1617796376.49357,58.13419,18.311609983444214
1617796376.50919,65.05368,18.327229976654053
1617796376.52482,72.73294,18.342859983444214
1617796376.54045,80.38919,18.358489990234375
1617796376.55607,87.117,18.374109983444214
1617796376.5717,92.24139,18.389739990234375
1617796376.58732,95.63498,18.405359983444214
1617796376.60295,97.83429,18.420989990234375
1617796376.61857,99.93326,18.436609983444214
1617796376.6342,103.1824,18.452239990234375
1617796376.64983,108.6503,18.467869997024536
1617796376.66545,116.944,18.483489990234375
1617796376.68108,128.097,18.499119997024536
1617796376.6967,141.5151,18.514739990234375
1617796376.71233,155.9788,18.530369997024536
1617796376.72795,169.6948,18.545989990234375
1617796376.74358,180.5804,18.561619997024536
1617796376.75921,186.7899,18.577250003814697
1617796376.77483,187.2957,18.592869997024536
1617796376.79046,182.2827,18.608500003814697
1617796376.80608,173.0309,18.624119997024536
1617796376.82171,161.3294,18.639750003814697
1617796376.83733,148.757,18.655369997024536
1617796376.85296,136.1834,18.671000003814697
1617796376.86859,123.8541,18.68663001060486
1617796376.88421,111.7949,18.702250003814697
1617796376.89984,100.3333,18.71788001060486
1617796376.91546,90.08911,18.733500003814697
1617796376.93109,81.62543,18.74913001060486
1617796376.94671,74.91797,18.764750003814697
1617796376.96234,69.15753,18.78038001060486
1617796376.97797,63.1123,18.79600977897644
1617796376.99359,55.8269,18.81163001060486
1617796377.00922,47.24884,18.82725977897644
1617796377.02484,38.36682,18.84288001060486
1617796377.04047,30.71198,18.85850977897644
1617796377.05609,25.50476,18.87413001060486
1617796377.07172,22.86206,18.88975977897644
1617796377.08735,21.57196,18.9053897857666
1617796377.10297,19.534,18.92100977897644
1617796377.1186,14.64282,18.9366397857666
1617796377.13422,5.756348,18.95225977897644
1617796377.14985,-6.829956,18.9678897857666
1617796377.16547,-21.66931,18.98350977897644
1617796377.1811,-36.92456,18.9991397857666
1617796377.19673,-51.34381,19.014769792556763
1617796377.21235,-64.9884,19.0303897857666
1617796377.22798,-79.24719,19.046019792556763
1617796377.2436,-96.38684,19.0616397857666
1617796377.25923,-118.9794,19.077269792556763
1617796377.27485,-149.4353,19.0928897857666
1617796377.29048,-189.5376,19.108519792556763
1617796377.30611,-239.7321,19.124149799346924
1617796377.32173,-298.1466,19.139769792556763
1617796377.33736,-359.9391,19.155399799346924
1617796377.35298,-417.5604,19.171019792556763
1617796377.36861,-462.4365,19.186649799346924
1617796377.38423,-487.6371,19.202269792556763
1617796377.39986,-490.2903,19.217899799346924
1617796377.41549,-472.5366,19.233529806137085
1617796377.43111,-440.3419,19.249149799346924
1617796377.44674,-400.7269,19.264779806137085
1617796377.46236,-358.9038,19.280399799346924
1617796377.47799,-316.8634,19.296029806137085
1617796377.49361,-273.9891,19.311649799346924
1617796377.50924,-229.1897,19.327279806137085
1617796377.52487,-182.9502,19.342909812927246
1617796377.54049,-138.0873,19.358529806137085
1617796377.55612,-98.72107,19.374159812927246
1617796377.57174,-68.34131,19.389779806137085
1617796377.58737,-48.14917,19.405409812927246
1617796377.60299,-36.66248,19.421029806137085
1617796377.61862,-30.73694,19.436659812927246
1617796377.63425,-27.10986,19.452289819717407
1617796377.64987,-23.72864,19.467909812927246
1617796377.6655,-20.1698,19.483539819717407
1617796377.68112,-17.01965,19.499159812927246
1617796377.69675,-14.77075,19.514789819717407
1617796377.71237,-13.08179,19.530409812927246
1617796377.728,-10.72046,19.546039819717407
1617796377.74363,-6.226807,19.56166982650757
1617796377.75925,1.187378,19.577289819717407
1617796377.77488,11.02466,19.59291982650757
1617796377.7905,21.59912,19.608539819717407
1617796377.80613,30.75623,19.62416982650757
1617796377.82175,36.81079,19.639789819717407
1617796377.83738,39.25366,19.65541982650757
1617796377.85301,38.87158,19.67104983329773
1617796377.86863,37.31018,19.68666982650757
1617796377.88426,36.27063,19.70229983329773
1617796377.89988,36.79395,19.71791982650757
1617796377.91551,38.88977,19.73354983329773
1617796377.93113,41.66174,19.74916982650757
1617796377.94676,43.8241,19.76479983329773
1617796377.96239,44.33801,19.78042984008789
1617796377.97801,42.84314,19.79604983329773
1617796377.99364,39.68921,19.81167984008789
1617796378.00926,35.72949,19.82729983329773
1617796378.02489,31.88757,19.84292984008789
1617796378.04051,28.84106,19.85854983329773
1617796378.05614,26.86792,19.87417984008789
1617796378.07177,25.89795,19.88980984687805
1617796378.08739,25.6698,19.90542984008789
1617796378.10302,25.86743,19.92105984687805
1617796378.11864,26.2182,19.93667984008789
1617796378.13427,26.51581,19.95230984687805
1617796378.14989,26.59186,19.96792984008789
1617796378.16552,26.30688,19.98355984687805
1617796378.18115,25.57556,19.999189853668213
1617796378.19677,24.35834,20.01480984687805
1617796378.2124,22.69354,20.030439853668213
1617796378.22802,20.6723,20.04605984687805
1617796378.24365,18.37781,20.061689853668213
1617796378.25927,15.90936,20.07730984687805
1617796378.2749,13.3811,20.092939853668213
1617796378.29053,10.90125,20.108569860458374
1617796378.30615,8.546753,20.124189853668213
1617796378.32178,6.355774,20.139819860458374
1617796378.3374,4.284607,20.155439853668213
1617796378.35303,2.219849,20.171069860458374
1617796378.36865,0.05114746,20.186689853668213
1617796378.38428,-2.27179,20.202319860458374
1617796378.39991,-4.68689,20.217949867248535
1617796378.41553,-7.031921,20.233569860458374
1617796378.43116,-9.153809,20.249199867248535
1617796378.44678,-10.96704,20.264819860458374
1617796378.46241,-12.48651,20.280449867248535
1617796378.47803,-13.86536,20.296069860458374
1617796378.49366,-15.32196,20.311699867248535
1617796378.50929,-17.05212,20.327329874038696
1617796378.52491,-19.1886,20.342949867248535
1617796378.54054,-21.70337,20.358579874038696
1617796378.55616,-24.35419,20.374199867248535
1617796378.57179,-26.69647,20.389829874038696
1617796378.58741,-28.15576,20.405449867248535
1617796378.60304,-28.16943,20.421079874038696
1617796378.61867,-26.36786,20.436709880828857
1617796378.63429,-22.74683,20.452329874038696
1617796378.64992,-17.67877,20.467959880828857
1617796378.66554,-11.80914,20.483579874038696
1617796378.68117,-5.871216,20.499209880828857
1617796378.6968,-0.4734497,20.51483988761902
1617796378.71242,4.020447,20.530459880828857
1617796378.72805,7.494019,20.54608988761902
1617796378.74367,10.01099,20.561709880828857
1617796378.7593,11.7262,20.57733988761902
1617796378.77492,12.76794,20.592959880828857
1617796378.79055,13.25757,20.60858988761902
1617796378.80618,13.2627,20.62421989440918
1617796378.8218,12.85138,20.63983988761902
1617796378.83743,12.11237,20.65546989440918
1617796378.85305,11.16284,20.67108988761902
1617796378.86868,10.12427,20.68671989440918
1617796378.8843,9.17157,20.70233988761902
1617796378.89993,8.464905,20.71796989440918
1617796378.91556,8.127625,20.73359990119934
1617796378.93118,8.231323,20.74921989440918
1617796378.94681,8.745239,20.76484990119934
1617796378.96243,9.55719,20.78046989440918
1617796378.97806,10.49756,20.79609990119934
1617796378.99368,11.43317,20.81171989440918
1617796379.00931,12.28369,20.82734990119934
1617796379.02494,13.02899,20.842979907989502
1617796379.04056,13.68799,20.85859990119934
1617796379.05619,14.20514,20.874229907989502
1617796379.07181,14.4704,20.88984990119934
1617796379.08744,14.31671,20.905479907989502
1617796379.10306,13.65125,20.92109990119934
1617796379.11869,12.51227,20.936729907989502
1617796379.13432,11.13849,20.952359914779663
1617796379.14994,9.811096,20.967979907989502
1617796379.16557,8.737122,20.983609914779663
1617796379.18119,7.88501,20.999229907989502
1617796379.19682,6.966248,21.014859914779663
1617796379.21244,5.615723,21.030479907989502
1617796379.22807,3.583618,21.046109914779663
1617796379.2437,0.9088135,21.061739921569824
1617796379.25932,-2.101013,21.077359914779663
1617796379.27495,-5.023987,21.092989921569824
1617796379.29057,-7.555054,21.108609914779663
1617796379.3062,-9.6521,21.124239921569824
1617796379.32182,-11.54492,21.139859914779663
1617796379.33745,-13.56824,21.155489921569824
1617796379.35308,-16.00848,21.171119928359985
1617796379.3687,-18.98633,21.186739921569824
1617796379.38433,-22.4408,21.202369928359985
1617796379.39995,-26.133,21.217989921569824
1617796379.41558,-29.71057,21.233619928359985
1617796379.4312,-32.65967,21.249239921569824
1617796379.44683,-34.383,21.264869928359985
1617796379.46246,-34.31738,21.280499935150146
1617796379.47808,-32.11804,21.296119928359985
1617796379.49371,-27.80756,21.311749935150146
1617796379.50933,-21.85126,21.327369928359985
1617796379.52496,-15.01196,21.342999935150146
1617796379.54058,-8.10968,21.358619928359985
1617796379.55621,-1.78418,21.374249935150146
1617796379.57184,3.621948,21.389879941940308
1617796379.58746,8.049469,21.405499935150146
1617796379.60309,11.57178,21.421129941940308
1617796379.61871,14.25113,21.436749935150146
1617796379.63434,16.12704,21.452379941940308
1617796379.64996,17.21127,21.467999935150146
1617796379.66559,17.55109,21.483629941940308
1617796379.68122,17.30936,21.49925994873047
1617796379.69684,16.68088,21.514879941940308
1617796379.71247,15.89658,21.53050994873047
1617796379.72809,15.13211,21.546129941940308
1617796379.74372,14.49716,21.56175994873047
1617796379.75934,14.01654,21.577379941940308
1617796379.77497,13.68033,21.59300994873047
1617796379.7906,13.48218,21.60863995552063
1617796379.80622,13.46054,21.62425994873047
1617796379.82185,13.71909,21.63988995552063
1617796379.83747,14.3772,21.65550994873047
1617796379.8531,15.51447,21.67113995552063
1617796379.86872,17.06985,21.68675994873047
1617796379.88435,18.81348,21.70238995552063
1617796379.89998,20.42783,21.71801996231079
1617796379.9156,21.57144,21.73363995552063
1617796379.93123,22.01505,21.74926996231079
1617796379.94685,21.7247,21.76488995552063
1617796379.96248,20.8071,21.78051996231079
1617796379.9781,19.46252,21.79613995552063
1617796379.99373,17.88824,21.81176996231079
1617796380.00936,16.22217,21.827399969100952
1617796380.02498,14.54599,21.84301996231079
1617796380.04061,12.88153,21.858649969100952
1617796380.05623,11.21417,21.87426996231079
1617796380.07186,9.496338,21.889899969100952
1617796380.08748,7.654053,21.90551996231079
1617796380.10311,5.632965,21.921149969100952
1617796380.11874,3.396698,21.936779975891113
1617796380.13436,0.9374695,21.952399969100952
1617796380.14999,-1.712891,21.968029975891113
1617796380.16561,-4.527405,21.983649969100952
1617796380.18124,-7.435944,21.999279975891113
1617796380.19686,-10.33331,22.014899969100952
1617796380.21249,-13.1149,22.030529975891113
1617796380.22812,-15.72772,22.046159982681274
1617796380.24374,-18.25378,22.061779975891113
1617796380.25937,-20.91071,22.077409982681274
1617796380.27499,-23.94846,22.093029975891113
1617796380.29062,-27.43224,22.108659982681274
1617796380.30624,-31.07413,22.124279975891113
1617796380.32187,-34.20468,22.139909982681274
1617796380.3375,-35.96962,22.155539989471436
1617796380.35312,-35.62083,22.171159982681274
1617796380.36875,-32.78238,22.186789989471436
1617796380.38437,-27.62204,22.202409982681274
1617796380.4,-20.70224,22.218039989471436
1617796380.41562,-12.84486,22.233659982681274
1617796380.43125,-4.84642,22.249289989471436
1617796380.44688,2.620773,22.264919996261597
1617796380.4625,9.093796,22.280539989471436
1617796380.47813,14.31105,22.296169996261597
1617796380.49375,18.17554,22.311789989471436
1617796380.50938,20.74258,22.327419996261597
1617796380.525,22.18933,22.343039989471436
1617796380.54063,22.74495,22.358669996261597
1617796380.55626,22.66029,22.374300003051758
1617796380.57188,22.15134,22.389919996261597
1617796380.58751,21.42084,22.405550003051758
1617796380.60313,20.64989,22.421169996261597
1617796380.61876,20.01471,22.436800003051758
1617796380.63438,19.67847,22.452419996261597
1617796380.65001,19.75133,22.468050003051758
1617796380.66564,20.25442,22.48368000984192
1617796380.68126,21.11642,22.499300003051758
1617796380.69689,22.2422,22.51493000984192
1617796380.71251,23.52646,22.530550003051758
1617796380.72814,24.9389,22.54618000984192
1617796380.74376,26.43211,22.561800003051758
1617796380.75939,27.93521,22.57743000984192
1617796380.77502,29.27822,22.5930597782135
1617796380.79064,30.1984,22.60868000984192
1617796380.80627,30.43143,22.6243097782135
1617796380.82189,29.83219,22.63993000984192
1617796380.83752,28.4569,22.6555597782135
1617796380.85315,26.5465,22.671189785003662
1617796380.86877,24.45003,22.6868097782135
1617796380.8844,22.44202,22.702439785003662
1617796380.90002,20.64801,22.7180597782135
1617796380.91565,18.98526,22.733689785003662
1617796380.93127,17.29815,22.7493097782135
1617796380.9469,15.43566,22.764939785003662
1617796380.96253,13.35702,22.780569791793823
1617796380.97815,11.12929,22.796189785003662
1617796380.99378,8.842403,22.811819791793823
1617796381.0094,6.54545,22.827439785003662
1617796381.02503,4.228439,22.843069791793823
1617796381.04065,1.885881,22.858689785003662
1617796381.05628,-0.4781296,22.874319791793823
1617796381.07191,-2.783891,22.889949798583984
1617796381.08753,-4.925987,22.905569791793823
1617796381.10316,-6.843613,22.921199798583984
1617796381.11878,-8.567643,22.936819791793823
1617796381.13441,-10.27992,22.952449798583984
1617796381.15003,-12.2189,22.968069791793823
1617796381.16566,-14.62538,22.983699798583984
1617796381.18129,-17.59998,22.999329805374146
1617796381.19691,-21.04029,23.014949798583984
1617796381.21254,-24.53939,23.030579805374146
1617796381.22816,-27.46063,23.046199798583984
1617796381.24379,-29.04013,23.061829805374146
1617796381.25941,-28.56174,23.077449798583984
1617796381.27504,-25.59887,23.093079805374146
1617796381.29067,-20.13254,23.108709812164307
1617796381.30629,-12.57983,23.124329805374146
1617796381.32192,-3.722172,23.139959812164307
1617796381.33754,5.501877,23.155579805374146
1617796381.35317,14.23302,23.171209812164307
1617796381.36879,21.80615,23.186829805374146
1617796381.38442,27.89838,23.202459812164307
1617796381.40005,32.50526,23.218089818954468
1617796381.41567,35.87179,23.233709812164307
1617796381.4313,38.38401,23.249339818954468
1617796381.44692,40.43082,23.264959812164307
1617796381.46255,42.32225,23.280589818954468
1617796381.47817,44.2332,23.296209812164307
1617796381.4938,46.18975,23.311839818954468
1617796381.50943,48.05754,23.32746982574463
1617796381.52505,49.62314,23.343089818954468
1617796381.54068,50.71313,23.35871982574463
1617796381.5563,51.28828,23.374339818954468
1617796381.57193,51.57881,23.38996982574463
1617796381.58755,52.05501,23.405589818954468
1617796381.60318,53.29234,23.42121982574463
1617796381.61881,55.8223,23.43684983253479
1617796381.63443,59.92222,23.45246982574463
1617796381.65006,65.57443,23.46809983253479
1617796381.66568,72.45202,23.48371982574463
1617796381.68131,80.09676,23.49934983253479
1617796381.69693,87.98151,23.51496982574463
1617796381.71256,95.63449,23.53059983253479
1617796381.72819,102.6913,23.54622983932495
1617796381.74381,108.9504,23.56184983253479
1617796381.75944,114.4571,23.57747983932495
1617796381.77506,119.4861,23.59309983253479
1617796381.79069,124.4283,23.60872983932495
1617796381.80631,129.6014,23.62434983253479
1617796381.82194,135.1644,23.63997983932495
1617796381.83757,141.1682,23.655609846115112
1617796381.85319,147.7146,23.67122983932495
1617796381.86882,155.0834,23.686859846115112
1617796381.88444,163.7472,23.70247983932495
1617796381.90007,174.0561,23.718109846115112
1617796381.91569,185.8612,23.73372983932495
1617796381.93132,198.1732,23.749359846115112
1617796381.94695,209.1697,23.764989852905273
1617796381.96257,216.6423,23.780609846115112
1617796381.9782,218.7415,23.796239852905273
1617796381.99382,214.6306,23.811859846115112
1617796382.00945,204.8186,23.827489852905273
1617796382.02507,190.9368,23.843109846115112
1617796382.0407,175.131,23.858739852905273
1617796382.05633,159.3421,23.874369859695435
1617796382.07195,144.8049,23.889989852905273
1617796382.08758,131.9164,23.905619859695435
1617796382.1032,120.3933,23.921239852905273
1617796382.11883,109.6713,23.936869859695435
1617796382.13445,99.19571,23.952489852905273
1617796382.15008,88.68054,23.968119859695435
1617796382.16571,78.11412,23.983749866485596
1617796382.18133,67.74312,23.999369859695435
1617796382.19696,57.98326,24.014999866485596
1617796382.21258,49.24323,24.030619859695435
1617796382.22821,41.68393,24.046249866485596
1617796382.24383,34.97696,24.061869859695435
1617796382.25946,28.19815,24.077499866485596
1617796382.27509,20.00986,24.093129873275757
1617796382.29071,9.167603,24.108749866485596
1617796382.30634,-4.944458,24.124379873275757
1617796382.32196,-21.99844,24.139999866485596
1617796382.33759,-40.86673,24.155629873275757
1617796382.35321,-60.09183,24.171249866485596
1617796382.36884,-78.62042,24.186879873275757
1617796382.38447,-96.32526,24.202509880065918
1617796382.40009,-114.1521,24.218129873275757
1617796382.41572,-134.0012,24.233759880065918
1617796382.43134,-158.4013,24.249379873275757
1617796382.44697,-190.061,24.265009880065918
1617796382.46259,-231.0345,24.280629873275757
1617796382.47822,-281.5296,24.296259880065918
1617796382.49385,-338.7759,24.31188988685608
1617796382.50947,-396.6489,24.327509880065918
1617796382.5251,-446.7308,24.34313988685608
1617796382.54072,-480.7369,24.358759880065918
1617796382.55635,-493.3402,24.37438988685608
1617796382.57197,-484.1507,24.390009880065918
1617796382.5876,-457.6361,24.40563988685608
1617796382.60323,-421.0494,24.42126989364624
1617796382.61885,-381.4031,24.43688988685608
1617796382.63448,-343.0587,24.45251989364624
1617796382.6501,-306.922,24.46813988685608
1617796382.66573,-271.409,24.48376989364624
1617796382.68135,-234.3187,24.49938988685608
1617796382.69698,-194.5728,24.51501989364624
1617796382.71261,-152.9304,24.5306499004364
1617796382.72823,-111.6733,24.54626989364624
1617796382.74386,-73.66907,24.5618999004364
1617796382.75948,-41.33136,24.57751989364624
1617796382.77511,-15.97314,24.5931499004364
1617796382.79073,2.348938,24.60876989364624
1617796382.80636,14.60944,24.6243999004364
1617796382.82199,22.21448,24.640029907226562
1617796382.83761,26.3703,24.6556499004364
1617796382.85324,27.82202,24.671279907226562
1617796382.86886,26.97504,24.6868999004364
1617796382.88449,24.2915,24.702529907226562
1617796382.90011,20.65552,24.7181499004364
1617796382.91574,17.40167,24.733779907226562
1617796382.93137,15.81055,24.749409914016724
1617796382.94699,16.48602,24.765029907226562
1617796382.96262,18.94128,24.780659914016724
1617796382.97824,21.73224,24.796279907226562
1617796382.99387,23.11957,24.811909914016724
1617796383.00949,21.8764,24.827529907226562
1617796383.02512,17.80066,24.843159914016724
1617796383.04075,11.69421,24.858789920806885
1617796383.05637,4.963013,24.874409914016724
1617796383.072,-1.069214,24.890039920806885
1617796383.08762,-5.612915,24.905659914016724
1617796383.10325,-8.522034,24.921289920806885
1617796383.11888,-10.07831,24.936919927597046
1617796383.1345,-10.64673,24.952539920806885
1617796383.15013,-10.35577,24.968169927597046
1617796383.16575,-9.041748,24.983789920806885
1617796383.18138,-6.34259,24.999419927597046
1617796383.197,-1.986969,25.015039920806885
1617796383.21263,3.972961,25.030669927597046
1617796383.22826,11.05862,25.046299934387207
1617796383.24388,18.39835,25.061919927597046
1617796383.25951,24.96207,25.077549934387207
1617796383.27513,29.89615,25.093169927597046
1617796383.29076,32.7438,25.108799934387207
1617796383.30638,33.58908,25.124419927597046
1617796383.32201,32.9429,25.140049934387207
1617796383.33764,31.53586,25.155679941177368
1617796383.35326,29.98697,25.171299934387207
1617796383.36889,28.64233,25.186929941177368
1617796383.38451,27.54068,25.202549934387207
1617796383.40014,26.54059,25.218179941177368
1617796383.41576,25.50357,25.233799934387207
1617796383.43139,24.40482,25.249429941177368
1617796383.44702,23.37729,25.26505994796753
1617796383.46264,22.60638,25.280679941177368
1617796383.47827,22.26263,25.29630994796753
1617796383.49389,22.41498,25.311929941177368
1617796383.50952,23.01663,25.32755994796753
1617796383.52514,23.96933,25.343179941177368
1617796383.54077,25.17209,25.35880994796753
1617796383.5564,26.52823,25.37443995475769
1617796383.57202,27.9455,25.39005994796753
1617796383.58765,29.27618,25.40568995475769
1617796383.60327,30.33502,25.42130994796753
1617796383.6189,30.90555,25.43693995475769
1617796383.63452,30.83945,25.45255994796753
1617796383.65015,30.11661,25.46818995475769
1617796383.66578,28.85443,25.48381996154785
1617796383.6814,27.29477,25.49943995475769
1617796383.69703,25.63794,25.51506996154785
1617796383.71265,23.9856,25.53068995475769
1617796383.72828,22.29617,25.54631996154785
1617796383.7439,20.43256,25.56193995475769
1617796383.75953,18.25616,25.57756996154785
1617796383.77516,15.77219,25.593199968338013
1617796383.79078,13.12428,25.60881996154785
1617796383.80641,10.55299,25.624449968338013
1617796383.82203,8.298981,25.64006996154785
1617796383.83766,6.460251,25.655699968338013
1617796383.85328,4.965012,25.67131996154785
1617796383.86891,3.598831,25.686949968338013
1617796383.88454,2.034058,25.702579975128174
1617796383.90016,0.05747986,25.718199968338013
1617796383.91579,-2.386719,25.733829975128174
1617796383.93141,-5.141006,25.749449968338013
1617796383.94704,-7.883438,25.765079975128174
1617796383.96266,-10.29999,25.780699968338013
1617796383.97829,-12.23642,25.796329975128174
1617796383.99392,-13.80878,25.811959981918335
1617796384.00954,-15.36784,25.827579975128174
1617796384.02517,-17.40155,25.843209981918335
1617796384.04079,-20.31232,25.858829975128174
1617796384.05642,-24.29529,25.874459981918335
1617796384.07204,-29.20164,25.890079975128174
1617796384.08767,-34.56436,25.905709981918335
1617796384.1033,-39.67,25.921339988708496
1617796384.11892,-43.64682,25.936959981918335
1617796384.13455,-45.63129,25.952589988708496
1617796384.15017,-44.93594,25.968209981918335
1617796384.1658,-41.26343,25.983839988708496
1617796384.18142,-34.78938,25.999459981918335
1617796384.19705,-26.24492,26.015089988708496
1617796384.21268,-16.70251,26.030719995498657
1617796384.2283,-7.358292,26.046339988708496
1617796384.24393,0.8318863,26.061969995498657
1617796384.25955,7.340263,26.077589988708496
1617796384.27518,12.17747,26.093219995498657
1617796384.2908,15.74517,26.108839988708496
1617796384.30643,18.52433,26.124469995498657
1617796384.32206,20.90366,26.14010000228882
1617796384.33768,22.96123,26.155719995498657
1617796384.35331,24.54218,26.17135000228882
1617796384.36893,25.38837,26.186969995498657
1617796384.38456,25.29191,26.20260000228882
1617796384.40018,24.26451,26.218219995498657
1617796384.41581,22.54507,26.23385000228882
1617796384.43144,20.54779,26.24948000907898
1617796384.44706,18.77015,26.26510000228882
1617796384.46269,17.63446,26.28073000907898
1617796384.47831,17.44312,26.29635000228882
1617796384.49394,18.30199,26.31198000907898
1617796384.50956,20.12099,26.32760000228882
1617796384.52519,22.64867,26.34323000907898
1617796384.54082,25.51142,26.35885977745056
1617796384.55644,28.29678,26.37448000907898
1617796384.57207,30.61456,26.39010977745056
1617796384.58769,32.15549,26.40573000907898
1617796384.60332,32.7589,26.42135977745056
1617796384.61894,32.41792,26.43698000907898
1617796384.63457,31.27664,26.45260977745056
1617796384.6502,29.58659,26.468239784240723
1617796384.66582,27.67272,26.48385977745056
1617796384.68145,25.84609,26.499489784240723
1617796384.69707,24.29736,26.51510977745056
1617796384.7127,23.04855,26.530739784240723
1617796384.72832,21.97246,26.54635977745056
1617796384.74395,20.81194,26.561989784240723
1617796384.75958,19.33277,26.577619791030884
1617796384.7752,17.43238,26.593239784240723
1617796384.79083,15.15696,26.608869791030884
1617796384.80645,12.70097,26.624489784240723
1617796384.82208,10.28979,26.640119791030884
1617796384.8377,8.082001,26.655739784240723
1617796384.85333,6.095299,26.671369791030884
1617796384.86896,4.216156,26.686999797821045
1617796384.88458,2.231339,26.702619791030884
1617796384.90021,-0.002799988,26.718249797821045
1617796384.91583,-2.504135,26.733869791030884
1617796384.93146,-5.1717,26.749499797821045
1617796384.94708,-7.789513,26.765119791030884
1617796384.96271,-10.19153,26.780749797821045
1617796384.97834,-12.27971,26.796379804611206
1617796384.99396,-14.16338,26.811999797821045
1617796385.00959,-16.06726,26.827629804611206
1617796385.02521,-18.34217,26.843249797821045
1617796385.04084,-21.29581,26.858879804611206
1617796385.05646,-25.09271,26.874499797821045
1617796385.07209,-29.63053,26.890129804611206
1617796385.08772,-34.47686,26.905759811401367
1617796385.10334,-38.90179,26.921379804611206
1617796385.11897,-41.98845,26.937009811401367
1617796385.13459,-42.86565,26.952629804611206
1617796385.15022,-40.91353,26.968259811401367
1617796385.16584,-36.00786,26.983879804611206
1617796385.18147,-28.51547,26.999509811401367
1617796385.1971,-19.25827,27.01513981819153
1617796385.21272,-9.288483,27.030759811401367
1617796385.22835,0.3251801,27.04638981819153
1617796385.24397,8.71759,27.062009811401367
1617796385.2596,15.35468,27.07763981819153
1617796385.27522,20.07986,27.093259811401367
1617796385.29085,23.04648,27.10888981819153
1617796385.30648,24.59731,27.12451982498169
1617796385.3221,25.10005,27.14013981819153
1617796385.33773,24.89586,27.15576982498169
1617796385.35335,24.213,27.17138981819153
1617796385.36898,23.2355,27.18701982498169
1617796385.3846,22.13699,27.20263981819153
1617796385.40023,21.10826,27.21826982498169
1617796385.41586,20.31049,27.23389983177185
1617796385.43148,19.86082,27.24951982498169
1617796385.44711,19.78667,27.26514983177185
1617796385.46273,20.03255,27.28076982498169
1617796385.47836,20.53008,27.29639983177185
1617796385.49398,21.23878,27.31201982498169
1617796385.50961,22.16859,27.32764983177185
1617796385.52524,23.3555,27.34327983856201
1617796385.54086,24.79588,27.35889983177185
1617796385.55649,26.35846,27.37452983856201
1617796385.57211,27.81857,27.39014983177185
1617796385.58774,28.88629,27.40577983856201
1617796385.60336,29.34766,27.42139983177185
1617796385.61899,29.12927,27.43702983856201
1617796385.63462,28.31848,27.452659845352173
1617796385.65024,27.06769,27.46827983856201
1617796385.66587,25.54738,27.483909845352173
1617796385.68149,23.83017,27.49952983856201
1617796385.69712,21.89708,27.515159845352173
1617796385.71274,19.72684,27.53077983856201
1617796385.72837,17.35333,27.546409845352173
1617796385.744,14.89047,27.562039852142334
1617796385.75962,12.51074,27.577659845352173
1617796385.77525,10.31494,27.593289852142334
1617796385.79087,8.255676,27.608909845352173
1617796385.8065,6.166473,27.624539852142334
1617796385.82213,3.794281,27.640169858932495
1617796385.83775,1.007599,27.655789852142334
1617796385.85338,-2.177979,27.671419858932495
1617796385.869,-5.529144,27.687039852142334
1617796385.88463,-8.73822,27.702669858932495
1617796385.90025,-11.52896,27.718289852142334
1617796385.91588,-13.80548,27.733919858932495
1617796385.93151,-15.70578,27.749549865722656
1617796385.94713,-17.57019,27.765169858932495
1617796385.96276,-19.8212,27.780799865722656
1617796385.97838,-22.7807,27.796419858932495
1617796385.99401,-26.54053,27.812049865722656
1617796386.00963,-30.83502,27.827669858932495
1617796386.02526,-35.06006,27.843299865722656
1617796386.04089,-38.34967,27.858929872512817
1617796386.05651,-39.80032,27.874549865722656
1617796386.07214,-38.69809,27.890179872512817
1617796386.08776,-34.72888,27.905799865722656
1617796386.10339,-28.14694,27.921429872512817
1617796386.11901,-19.7316,27.937049865722656
1617796386.13464,-10.57721,27.952679872512817
1617796386.15027,-1.812714,27.96830987930298
1617796386.16589,5.730682,27.983929872512817
1617796386.18152,11.68591,27.99955987930298
1617796386.19714,16.14209,28.015179872512817
1617796386.21277,19.41937,28.03080987930298
1617796386.22839,21.83569,28.046429872512817
1617796386.24402,23.49933,28.06205987930298
1617796386.25965,24.36011,28.07768988609314
1617796386.27527,24.33511,28.09330987930298
1617796386.2909,23.4743,28.10893988609314
1617796386.30652,22.05157,28.12455987930298
1617796386.32215,20.46014,28.14018988609314
1617796386.33777,19.05923,28.15580987930298
1617796386.3534,18.02753,28.17143988609314
1617796386.36903,17.33072,28.1870698928833
1617796386.38465,16.84967,28.20268988609314
1617796386.40028,16.51773,28.2183198928833
1617796386.4159,16.40424,28.23393988609314
1617796386.43153,16.72397,28.2495698928833
1617796386.44715,17.64621,28.26518988609314
1617796386.46278,19.18289,28.2808198928833
1617796386.47841,21.13181,28.296449899673462
1617796386.49403,23.10782,28.3120698928833
1617796386.50966,24.68365,28.327699899673462
1617796386.52528,25.51083,28.3433198928833
1617796386.54091,25.46185,28.358949899673462
1617796386.55653,24.58575,28.3745698928833
1617796386.57216,23.08926,28.390199899673462
1617796386.58779,21.22913,28.405829906463623
1617796386.60341,19.19348,28.421449899673462
1617796386.61904,17.06723,28.437079906463623
1617796386.63466,14.80029,28.452699899673462
1617796386.65029,12.30075,28.468329906463623
1617796386.66591,9.516449,28.483949899673462
1617796386.68154,6.486115,28.499579906463623
1617796386.69717,3.307953,28.515209913253784
1617796386.71279,0.0892334,28.530829906463623
1617796386.72842,-3.102753,28.546459913253784
1617796386.74404,-6.277313,28.562079906463623
1617796386.75967,-9.446716,28.577709913253784
1617796386.77529,-12.59421,28.593329906463623
1617796386.79092,-15.6586,28.608959913253784
1617796386.80655,-18.60956,28.624589920043945
1617796386.82217,-21.492,28.640209913253784
1617796386.8378,-24.45056,28.655839920043945
1617796386.85342,-27.60229,28.671459913253784
1617796386.86905,-30.90866,28.687089920043945
1617796386.88467,-34.03897,28.702709913253784
1617796386.9003,-36.35107,28.718339920043945
1617796386.91593,-37.0723,28.733969926834106
1617796386.93155,-35.51349,28.749589920043945
1617796386.94718,-31.37231,28.765219926834106
1617796386.9628,-24.8381,28.780839920043945
1617796386.97843,-16.55927,28.796469926834106
1617796386.99405,-7.454102,28.812089920043945
1617796387.00968,1.516205,28.827719926834106
1617796387.02531,9.574921,28.843349933624268
1617796387.04093,16.23944,28.858969926834106
1617796387.05656,21.31039,28.874599933624268
1617796387.07218,24.80261,28.890219926834106
1617796387.08781,26.87796,28.905849933624268
1617796387.10343,27.76682,28.921469926834106
1617796387.11906,27.70871,28.937099933624268
1617796387.13469,26.96921,28.95272994041443
1617796387.15031,25.72696,28.968349933624268
1617796387.16594,24.10443,28.98397994041443
1617796387.18156,22.16595,28.999599933624268
1617796387.19719,19.95203,29.01522994041443
1617796387.21281,17.60132,29.030849933624268
1617796387.22844,15.35739,29.04647994041443
1617796387.24407,13.57065,29.06210994720459
1617796387.25969,12.57458,29.07772994041443
1617796387.27532,12.54022,29.09335994720459
1617796387.29094,13.3837,29.10897994041443
1617796387.30657,14.73831,29.12460994720459
1617796387.32219,16.12646,29.14022994041443
1617796387.33782,17.09879,29.15585994720459
1617796387.35345,17.43466,29.17148995399475
1617796387.36907,17.18552,29.18710994720459
1617796387.3847,16.55386,29.20273995399475
1617796387.40032,15.73953,29.21835994720459
1617796387.41595,14.814,29.23398995399475
1617796387.43157,13.6908,29.24960994720459
1617796387.4472,12.1868,29.26523995399475
1617796387.46283,10.16153,29.280869960784912
1617796387.47845,7.582184,29.29648995399475
1617796387.49408,4.570007,29.312119960784912
1617796387.5097,1.305054,29.32773995399475
1617796387.52533,-2.034119,29.343369960784912
1617796387.54095,-5.333496,29.35898995399475
1617796387.55658,-8.549377,29.374619960784912
1617796387.57221,-11.69965,29.390249967575073
1617796387.58783,-14.82184,29.405869960784912
1617796387.60346,-17.98505,29.421499967575073
1617796387.61908,-21.33261,29.437119960784912
1617796387.63471,-25.04556,29.452749967575073
1617796387.65033,-29.28745,29.468369960784912
1617796387.66596,-34.03476,29.483999967575073
1617796387.68159,-38.93524,29.499629974365234
1617796387.69721,-43.25449,29.515249967575073
1617796387.71284,-46.02008,29.530879974365234
1617796387.72846,-46.27634,29.546499967575073
1617796387.74409,-43.44577,29.562129974365234
1617796387.75971,-37.5397,29.577749967575073
1617796387.77534,-29.22079,29.593379974365234
1617796387.79097,-19.54092,29.609009981155396
1617796387.80659,-9.64801,29.624629974365234
1617796387.82222,-0.4252014,29.640259981155396
1617796387.83784,7.604248,29.655879974365234
1617796387.85347,14.27252,29.671509981155396
1617796387.86909,19.58517,29.687129974365234
1617796387.88472,23.59695,29.702759981155396
1617796387.90035,26.32657,29.718389987945557
1617796387.91597,27.82178,29.734009981155396
1617796387.9316,28.21353,29.749639987945557
1617796387.94722,27.75351,29.765259981155396
1617796387.96285,26.79074,29.780889987945557
1617796387.97848,25.63147,29.796519994735718
1617796387.9941,24.48776,29.812139987945557
1617796388.00973,23.42487,29.827769994735718
1617796388.02535,22.40546,29.843389987945557
1617796388.04098,21.39108,29.859019994735718
1617796388.0566,20.375,29.874639987945557
1617796388.07223,19.40927,29.890269994735718
1617796388.08786,18.57733,29.90590000152588
1617796388.10348,18.00827,29.921519994735718
1617796388.11911,17.82391,29.93715000152588
1617796388.13473,18.13116,29.952769994735718
1617796388.15036,18.96902,29.96840000152588
1617796388.16598,20.20657,29.984019994735718
1617796388.18161,21.57077,29.99965000152588
1617796388.19724,22.65851,30.01528000831604
1617796388.21286,23.14651,30.03090000152588
1617796388.22849,22.95624,30.04653000831604
1617796388.24411,22.34634,30.06215000152588
1617796388.25974,21.85074,30.07778000831604
1617796388.27536,22.0415,30.09340000152588
1617796388.29099,23.22302,30.10903000831604
1617796388.30662,25.25488,30.124659776687622
1617796388.32224,27.56381,30.14028000831604
1617796388.33787,29.35248,30.155909776687622
1617796388.35349,29.96384,30.17153000831604
1617796388.36912,29.16489,30.187159776687622
1617796388.38474,27.27518,30.20278000831604
1617796388.40037,25.03821,30.218409776687622
1617796388.416,23.40948,30.234039783477783
1617796388.43162,23.20752,30.249659776687622
1617796388.44725,24.92261,30.265289783477783
1617796388.46287,28.63354,30.280909776687622
1617796388.4785,34.14795,30.296539783477783
1617796388.49412,41.25882,30.312159776687622
1617796388.50975,49.92792,30.327789783477783
1617796388.52538,60.39526,30.343419790267944
1617796388.541,73.09125,30.359039783477783
1617796388.55663,88.49863,30.374669790267944
1617796388.57225,107.0232,30.390289783477783
1617796388.58788,128.7937,30.405919790267944
1617796388.6035,153.4683,30.421539783477783
1617796388.61913,179.9084,30.437169790267944
1617796388.63476,206.0053,30.452799797058105
1617796388.65038,228.8088,30.468419790267944
1617796388.66601,245.1628,30.484049797058105
1617796388.68163,252.6531,30.499669790267944
1617796388.69726,250.5491,30.515299797058105
1617796388.71288,240.1923,30.530919790267944
1617796388.72851,224.5557,30.546549797058105
1617796388.74414,207.1638,30.562179803848267
1617796388.75976,190.8515,30.577799797058105
1617796388.77539,176.9875,30.593429803848267
1617796388.79101,165.4767,30.609049797058105
1617796388.80664,155.5156,30.624679803848267
1617796388.82226,146.403,30.640299797058105
1617796388.83789,138.0995,30.655929803848267
1617796388.85352,131.1244,30.671559810638428
1617796388.86914,125.9939,30.687179803848267
1617796388.88477,122.5824,30.702809810638428
1617796388.90039,119.8978,30.718429803848267
1617796388.91602,116.298,30.734059810638428
1617796388.93164,110.1246,30.749679803848267
1617796388.94727,100.3782,30.765309810638428
1617796388.9629,87.0735,30.78093981742859
1617796388.97852,71.07268,30.796559810638428
1617796388.99415,53.57152,30.81218981742859
1617796389.00977,35.48196,30.827809810638428
1617796389.0254,16.95555,30.84343981742859
1617796389.04102,-2.710983,30.859059810638428
1617796389.05665,-24.8117,30.87468981742859
1617796389.07228,-51.02951,30.89031982421875
1617796389.0879,-83.32948,30.90593981742859
1617796389.10353,-123.8028,30.92156982421875
1617796389.11915,-174.0431,30.93718981742859
1617796389.13478,-233.9222,30.95281982421875
1617796389.1504,-300.311,30.96843981742859
1617796389.16603,-366.553,30.98406982421875
1617796389.18166,-423.5831,30.99969983100891
1617796389.19728,-462.4813,31.01531982421875
1617796389.21291,-477.4399,31.03094983100891
1617796389.22853,-467.6212,31.04656982421875
1617796389.24416,-437.0978,31.06219983100891
1617796389.25978,-392.9259,31.07781982421875
1617796389.27541,-342.6002,31.09344983100891
1617796389.29104,-292.2205,31.109079837799072
1617796389.30666,-245.935,31.12469983100891
1617796389.32229,-206.4068,31.140329837799072
1617796389.33791,-175.396,31.15594983100891
1617796389.35354,-153.7967,31.171579837799072
1617796389.36916,-141.1132,31.18719983100891
1617796389.38479,-135.1307,31.202829837799072
1617796389.40042,-132.2539,31.218459844589233
1617796389.41604,-128.6613,31.234079837799072
1617796389.43167,-121.64,31.249709844589233
1617796389.44729,-110.3948,31.265329837799072
1617796389.46292,-95.83218,31.280959844589233
1617796389.47854,-79.82083,31.296579837799072
1617796389.49417,-64.30029,31.312209844589233
1617796389.5098,-50.58533,31.327839851379395
1617796389.52542,-39.23602,31.343459844589233
1617796389.54105,-30.23843,31.359089851379395
1617796389.55667,-23.24051,31.374709844589233
1617796389.5723,-17.7634,31.390339851379395
1617796389.58792,-13.35767,31.405959844589233
1617796389.60355,-9.694305,31.421589851379395
1617796389.61918,-6.570526,31.437219858169556
1617796389.6348,-3.925018,31.452839851379395
1617796389.65043,-1.725525,31.468469858169556
1617796389.66605,0.1139832,31.484089851379395
1617796389.68168,1.798279,31.499719858169556
1617796389.6973,3.626343,31.515339851379395
1617796389.71293,5.904694,31.530969858169556
1617796389.72856,8.818237,31.546599864959717
1617796389.74418,12.32257,31.562219858169556
1617796389.75981,16.15442,31.577849864959717
1617796389.77543,19.89514,31.593469858169556
1617796389.79106,23.0733,31.609099864959717
1617796389.80668,25.30798,31.624719858169556
1617796389.82231,26.36914,31.640349864959717
1617796389.83794,26.19034,31.655979871749878
1617796389.85356,24.90411,31.671599864959717
1617796389.86919,22.78778,31.687229871749878
1617796389.88481,20.20493,31.702849864959717
1617796389.90044,17.48663,31.718479871749878
1617796389.91606,14.81949,31.734099864959717
1617796389.93169,12.20444,31.749729871749878
1617796389.94732,9.482773,31.76535987854004
1617796389.96294,6.481232,31.780979871749878
1617796389.97857,3.13472,31.79660987854004
1617796389.99419,-0.4622345,31.812229871749878
1617796390.00982,-4.108887,31.82785987854004
1617796390.02544,-7.586365,31.843479871749878
1617796390.04107,-10.80037,31.85910987854004
1617796390.0567,-13.83206,31.8747398853302
1617796390.07232,-16.88461,31.89035987854004
1617796390.08795,-20.25014,31.9059898853302
1617796390.10357,-24.14198,31.92160987854004
1617796390.1192,-28.64619,31.9372398853302
1617796390.13482,-33.56958,31.95285987854004
1617796390.15045,-38.47202,31.9684898853302
1617796390.16608,-42.62634,31.98411989212036
1617796390.1817,-45.16643,31.9997398853302
1617796390.19733,-45.28358,32.01536989212036
1617796390.21295,-42.45982,32.0309898853302
1617796390.22858,-36.68571,32.04661989212036
1617796390.24421,-28.48988,32.06224989891052
1617796390.25983,-18.81377,32.07786989212036
1617796390.27546,-8.735229,32.09349989891052
1617796390.29108,0.8036804,32.10911989212036
1617796390.30671,9.193756,32.12474989891052
1617796390.32233,16.17667,32.14036989212036
1617796390.33796,21.7098,32.15599989891052
1617796390.35359,25.85263,32.171629905700684
1617796390.36921,28.67032,32.18724989891052
1617796390.38484,30.19736,32.202879905700684
1617796390.40046,30.5547,32.21849989891052
1617796390.41609,29.94727,32.234129905700684
1617796390.43171,28.70547,32.24974989891052
1617796390.44734,27.17509,32.265379905700684
1617796390.46297,25.62029,32.281009912490845
1617796390.47859,24.16454,32.296629905700684
1617796390.49422,22.86147,32.312259912490845
1617796390.50984,21.73603,32.327879905700684
1617796390.52547,20.89565,32.343509912490845
1617796390.54109,20.51022,32.359129905700684
1617796390.55672,20.69756,32.374759912490845
1617796390.57235,21.45717,32.390389919281006
1617796390.58797,22.61381,32.406009912490845
1617796390.6036,23.83131,32.421639919281006
1617796390.61922,24.74327,32.437259912490845
1617796390.63485,25.10009,32.452889919281006
1617796390.65047,24.78801,32.468509912490845
1617796390.6661,23.87477,32.484139919281006
1617796390.68173,22.52952,32.49976992607117
1617796390.69735,20.89981,32.515389919281006
1617796390.71298,19.07244,32.53101992607117
1617796390.7286,17.02486,32.546639919281006
1617796390.74423,14.69741,32.56226992607117
1617796390.75985,12.03232,32.577889919281006
1617796390.77548,9.055161,32.59351992607117
1617796390.79111,5.863922,32.60914993286133
1617796390.80673,2.625917,32.62476992607117
1617796390.82236,-0.5176144,32.64039993286133
1617796390.83798,-3.536648,32.65601992607117
1617796390.85361,-6.474472,32.67164993286133
1617796390.86923,-9.436653,32.68726992607117
1617796390.88486,-12.56183,32.70289993286133
1617796390.90049,-15.93642,32.71852993965149
1617796390.91611,-19.63318,32.73414993286133
1617796390.93174,-23.69483,32.74977993965149
1617796390.94736,-28.10765,32.76539993286133
1617796390.96299,-32.69559,32.78102993965149
1617796390.97861,-37.02318,32.79664993286133
1617796390.99424,-40.33403,32.81227993965149
1617796391.00987,-41.71138,32.82790994644165
1617796391.02549,-40.34522,32.84352993965149
1617796391.04112,-35.81185,32.85915994644165
1617796391.05674,-28.32592,32.87477993965149
1617796391.07237,-18.69085,32.89040994644165
1617796391.08799,-8.049454,32.90602993965149
1617796391.10362,2.42981,32.92165994644165
1617796391.11925,11.84628,32.93728995323181
1617796391.13487,19.7194,32.95290994644165
1617796391.1505,25.86864,32.96853995323181
1617796391.16612,30.32009,32.98415994644165
1617796391.18175,33.18549,32.99978995323181
1617796391.19737,34.59283,33.01540994644165
1617796391.213,34.71103,33.03103995323181
1617796391.22863,33.78613,33.04666996002197
1617796391.24425,32.13278,33.06228995323181
1617796391.25988,30.08058,33.07791996002197
1617796391.2755,27.92899,33.09353995323181
1617796391.29113,25.89067,33.10916996002197
1617796391.30675,24.0934,33.12478995323181
1617796391.32238,22.61595,33.14041996002197
1617796391.33801,21.49709,33.156049966812134
1617796391.35363,20.77457,33.17166996002197
1617796391.36926,20.50383,33.187299966812134
1617796391.38488,20.72908,33.20291996002197
1617796391.40051,21.48412,33.218549966812134
1617796391.41613,22.69107,33.23416996002197
1617796391.43176,24.15765,33.249799966812134
1617796391.44739,25.56648,33.265429973602295
1617796391.46301,26.54741,33.281049966812134
1617796391.47864,26.74359,33.296679973602295
1617796391.49426,25.99985,33.312299966812134
1617796391.50989,24.38055,33.327929973602295
1617796391.52551,22.13242,33.343549966812134
1617796391.54114,19.57076,33.359179973602295
1617796391.55677,16.92111,33.374809980392456
1617796391.57239,14.2363,33.390429973602295
1617796391.58802,11.41718,33.406059980392456
1617796391.60364,8.308807,33.421679973602295
1617796391.61927,4.827194,33.437309980392456
1617796391.63489,1.042252,33.452929973602295
1617796391.65052,-2.87207,33.468559980392456
1617796391.66615,-6.696594,33.48418998718262
1617796391.68177,-10.2907,33.499809980392456
1617796391.6974,-13.6261,33.51543998718262
1617796391.71302,-16.77672,33.531059980392456
1617796391.72865,-19.89661,33.54668998718262
1617796391.74427,-23.159,33.562309980392456
1617796391.7599,-26.7617,33.57793998718262
1617796391.77553,-30.86237,33.59356999397278
1617796391.79115,-35.52121,33.60918998718262
1617796391.80678,-40.54176,33.62481999397278
1617796391.8224,-45.39519,33.64043998718262
1617796391.83803,-49.16585,33.65606999397278
1617796391.85365,-50.76857,33.67168998718262
1617796391.86928,-49.25546,33.68731999397278
1617796391.88491,-44.19209,33.70295000076294
1617796391.90053,-35.84344,33.71856999397278
1617796391.91616,-25.17708,33.73420000076294
1617796391.93178,-13.55331,33.74981999397278
1617796391.94741,-2.322479,33.76545000076294
1617796391.96303,7.531372,33.78106999397278
1617796391.97866,15.59033,33.79670000076294
1617796391.99429,21.90826,33.8123300075531
1617796392.00991,26.75598,33.82795000076294
1617796392.02554,30.38947,33.8435800075531
1617796392.04116,32.90182,33.85920000076294
1617796392.05679,34.27182,33.8748300075531
1617796392.07241,34.49051,33.89045000076294
1617796392.08804,33.70874,33.9060800075531
1617796392.10367,32.20627,33.92170977592468
1617796392.11929,30.35529,33.9373300075531
1617796392.13492,28.466,33.95295977592468
1617796392.15054,26.73471,33.9685800075531
1617796392.16617,25.23752,33.98420977592468
1617796392.18179,24.01688,33.9998300075531
1617796392.19742,23.12271,34.01545977592468
1617796392.21305,22.64188,34.031089782714844
1617796392.22867,22.69321,34.04670977592468
1617796392.2443,23.35135,34.062339782714844
1617796392.25992,24.59457,34.07795977592468
1617796392.27555,26.27951,34.093589782714844
1617796392.29117,28.09412,34.10920977592468
1617796392.3068,29.62628,34.124839782714844
1617796392.32243,30.42184,34.140469789505005
1617796392.33805,30.15054,34.156089782714844
1617796392.35368,28.70157,34.171719789505005
1617796392.3693,26.29239,34.187339782714844
1617796392.38493,23.35318,34.202969789505005
1617796392.40055,20.39035,34.218589782714844
1617796392.41618,17.75211,34.234219789505005
1617796392.43181,15.5174,34.249849796295166
1617796392.44743,13.48587,34.265469789505005
1617796392.46306,11.3208,34.281099796295166
1617796392.47868,8.720032,34.296719789505005
1617796392.49431,5.545105,34.312349796295166
1617796392.50993,1.843384,34.327969789505005
1617796392.52556,-2.203735,34.343599796295166
1617796392.54119,-6.365326,34.35922980308533
1617796392.55681,-10.41718,34.374849796295166
1617796392.57244,-14.22186,34.39047980308533
1617796392.58806,-17.73013,34.406099796295166
1617796392.60369,-21.03564,34.42172980308533
1617796392.61931,-24.33789,34.437349796295166
1617796392.63494,-27.96368,34.45297980308533
1617796392.65057,-32.19589,34.46860980987549
1617796392.66619,-37.18915,34.48422980308533
1617796392.68182,-42.76404,34.49985980987549
1617796392.69744,-48.30612,34.51547980308533
1617796392.71307,-52.81137,34.53110980987549
1617796392.72869,-55.11725,34.54672980308533
1617796392.74432,-54.22665,34.56235980987549
1617796392.75995,-49.66702,34.57798981666565
1617796392.77557,-41.68518,34.59360980987549
1617796392.7912,-31.17288,34.60923981666565
1617796392.80682,-19.42014,34.62485980987549
1617796392.82245,-7.746185,34.64048981666565
1617796392.83808,2.837067,34.65611982345581
1617796392.8537,11.77466,34.67173981666565
1617796392.86933,18.94598,34.68736982345581
1617796392.88495,24.45435,34.70298981666565
1617796392.90058,28.50018,34.71861982345581
1617796392.9162,31.21115,34.73423981666565
1617796392.93183,32.66696,34.74986982345581
1617796392.94746,32.96295,34.76549983024597
1617796392.96308,32.25461,34.78111982345581
1617796392.97871,30.80756,34.79674983024597
1617796392.99433,28.91959,34.81236982345581
1617796393.00996,26.89539,34.82799983024597
1617796393.02558,24.97849,34.84361982345581
1617796393.04121,23.37433,34.85924983024597
1617796393.05684,22.22339,34.87487983703613
1617796393.07246,21.65781,34.89049983024597
1617796393.08809,21.78357,34.90612983703613
1617796393.10371,22.61002,34.92174983024597
1617796393.11934,24.05042,34.93737983703613
1617796393.13496,25.8761,34.95299983024597
1617796393.15059,27.77484,34.96862983703613
1617796393.16622,29.39981,34.984259843826294
1617796393.18184,30.47107,34.99987983703613
1617796393.19747,30.83643,35.015509843826294
1617796393.21309,30.46729,35.03112983703613
1617796393.22872,29.4541,35.046759843826294
1617796393.24434,27.94244,35.06237983703613
1617796393.25997,26.08353,35.078009843826294
1617796393.2756,23.97076,35.093639850616455
1617796393.29122,21.66165,35.109259843826294
1617796393.30685,19.17975,35.124889850616455
1617796393.32247,16.55902,35.140509843826294
1617796393.3381,13.83377,35.156139850616455
1617796393.35372,11.021,35.171759843826294
1617796393.36935,8.087494,35.187389850616455
1617796393.38498,4.917206,35.203019857406616
1617796393.4006,1.393463,35.218639850616455
1617796393.41623,-2.523254,35.234269857406616
1617796393.43185,-6.705292,35.249889850616455
1617796393.44748,-10.86804,35.265519857406616
1617796393.4631,-14.70099,35.281139850616455
1617796393.47873,-17.99106,35.296769857406616
1617796393.49436,-20.76709,35.31239986419678
1617796393.50998,-23.27615,35.328019857406616
1617796393.52561,-25.9397,35.34364986419678
1617796393.54123,-29.16516,35.359269857406616
1617796393.55686,-33.26755,35.37489986419678
1617796393.57248,-38.30341,35.390519857406616
1617796393.58811,-44.00336,35.40614986419678
1617796393.60374,-49.75516,35.42177987098694
1617796393.61936,-54.59549,35.43739986419678
1617796393.63499,-57.40134,35.45302987098694
1617796393.65061,-57.09009,35.46864986419678
1617796393.66624,-53.00443,35.48427987098694
1617796393.68186,-45.16708,35.49989986419678
1617796393.69749,-34.35107,35.51552987098694
1617796393.71312,-21.90659,35.5311598777771
1617796393.72874,-9.346161,35.54677987098694
1617796393.74437,2.054901,35.5624098777771
1617796393.75999,11.55795,35.57802987098694
1617796393.77562,18.97495,35.5936598777771
1617796393.79124,24.52063,35.60927987098694
1617796393.80687,28.51898,35.6249098777771
1617796393.8225,31.21704,35.64053988456726
1617796393.83812,32.73865,35.6561598777771
1617796393.85375,33.13831,35.67178988456726
1617796393.86937,32.55389,35.6874098777771
1617796393.885,31.21594,35.70303988456726
1617796393.90062,29.47095,35.7186598777771
1617796393.91625,27.63412,35.73428988456726
1617796393.93188,25.96335,35.74991989135742
1617796393.9475,24.6311,35.76553988456726
1617796393.96313,23.77628,35.78116989135742
1617796393.97875,23.50198,35.79678988456726
1617796393.99438,23.88873,35.81241989135742
1617796394.01,24.92566,35.82803988456726
1617796394.02563,26.50681,35.84366989135742
1617796394.04126,28.44153,35.85929989814758
1617796394.05688,30.51575,35.87491989135742
1617796394.07251,32.55917,35.89054989814758
1617796394.08813,34.45215,35.90616989135742
1617796394.10376,36.11719,35.92179989814758
1617796394.11938,37.43829,35.93741989135742
1617796394.13501,38.24765,35.95304989814758
1617796394.15064,38.39816,35.968679904937744
1617796394.16626,37.8183,35.98429989814758
1617796394.18189,36.60526,35.999929904937744
1617796394.19751,34.98029,36.01554989814758
1617796394.21314,33.23199,36.031179904937744
1617796394.22876,31.58423,36.04679989814758
1617796394.24439,30.18634,36.062429904937744
1617796394.26002,29.08545,36.078059911727905
1617796394.27564,28.25894,36.093679904937744
1617796394.29127,27.66428,36.109309911727905
1617796394.30689,27.17297,36.124929904937744
1617796394.32252,26.61172,36.140559911727905
1617796394.33814,25.80286,36.156179904937744
1617796394.35377,24.71533,36.171809911727905
1617796394.3694,23.58789,36.187439918518066
1617796394.38502,22.9848,36.203059911727905
1617796394.40065,23.50803,36.218689918518066
1617796394.41627,25.5596,36.234309911727905
1617796394.4319,29.02252,36.249939918518066
1617796394.44752,33.23209,36.265559911727905
1617796394.46315,37.38193,36.281189918518066
1617796394.47878,40.97809,36.29681992530823
1617796394.4944,44.35516,36.312439918518066
1617796394.51003,48.62216,36.32806992530823
1617796394.52565,55.26642,36.343689918518066
1617796394.54128,65.51764,36.35931992530823
1617796394.5569,79.93716,36.374939918518066
1617796394.57253,98.32239,36.39056992530823
1617796394.58816,119.9399,36.40619993209839
1617796394.60378,143.7435,36.42181992530823
1617796394.61941,168.3,36.43744993209839
1617796394.63503,191.6848,36.45306992530823
1617796394.65066,211.4131,36.46869993209839
1617796394.66628,224.8237,36.48431992530823
1617796394.68191,229.8601,36.49994993209839
1617796394.69754,225.8914,36.51557993888855
1617796394.71316,214.1012,36.53119993209839
1617796394.72879,197.2378,36.54682993888855
1617796394.74441,178.8049,36.56244993209839
1617796394.76004,162.0354,36.57807993888855
1617796394.77566,149.158,36.59369993209839
1617796394.79129,141.0672,36.60932993888855
1617796394.80692,137.3595,36.62495994567871
1617796394.82254,136.6763,36.64057993888855
1617796394.83817,137.0228,36.65620994567871
1617796394.85379,136.2083,36.67182993888855
1617796394.86942,132.3364,36.68745994567871
1617796394.88504,124.4091,36.70307993888855
1617796394.90067,112.4224,36.71870994567871
1617796394.9163,97.37142,36.73433995246887
1617796394.93192,80.66859,36.74995994567871
1617796394.94755,63.34201,36.76558995246887
1617796394.96317,45.49392,36.78120994567871
1617796394.9788,25.95602,36.79683995246887
1617796394.99442,2.336662,36.81245994567871
1617796395.01005,-28.59595,36.82808995246887
1617796395.02568,-70.07803,36.84371995925903
1617796395.0413,-123.9649,36.85933995246887
1617796395.05693,-189.1368,36.87496995925903
1617796395.07255,-260.4458,36.89058995246887
1617796395.08818,-328.9985,36.90621995925903
1617796395.10381,-384.1127,36.921849966049194
1617796395.11943,-416.5424,36.93746995925903
1617796395.13506,-421.6051,36.953099966049194
1617796395.15068,-400.9456,36.96871995925903
1617796395.16631,-361.8668,36.984349966049194
1617796395.18193,-314.7328,36.99996995925903
1617796395.19756,-269.4467,37.015599966049194
1617796395.21319,-232.7166,37.031229972839355
1617796395.22881,-207.0208,37.046849966049194
1617796395.24444,-191.3774,37.062479972839355
1617796395.26006,-183.0708,37.078099966049194
1617796395.27569,-179.2664,37.093729972839355
1617796395.29131,-177.8737,37.109349966049194
1617796395.30694,-177.551,37.124979972839355
1617796395.32257,-177.3252,37.14060997962952
1617796395.33819,-176.2039,37.156229972839355
1617796395.35382,-173.1886,37.17185997962952
1617796395.36944,-167.4935,37.187479972839355
1617796395.38507,-158.8411,37.20310997962952
1617796395.40069,-147.6929,37.218729972839355
1617796395.41632,-135.0901,37.23435997962952
1617796395.43195,-122.1152,37.24998998641968
1617796395.44757,-109.4284,37.26560997962952
1617796395.4632,-96.95807,37.28123998641968
1617796395.47882,-84.04633,37.29685997962952
1617796395.49445,-69.93652,37.31248998641968
1617796395.51007,-54.27145,37.32810997962952
1617796395.5257,-37.56677,37.34373998641968
1617796395.54133,-21.10168,37.35936999320984
1617796395.55695,-6.521484,37.37498998641968
1617796395.57258,4.748962,37.39061999320984
1617796395.5882,12.05728,37.40623998641968
1617796395.60383,15.67719,37.42186999320984
1617796395.61945,16.6608,37.43748998641968
1617796395.63508,16.35547,37.45311999320984
1617796395.65071,15.88321,37.46875
1617796395.66633,15.82211,37.48436999320984
1617796395.68196,16.15173,37.5
1617796395.69758,16.51175,37.51561999320984
1617796395.71321,16.58044,37.53125
1617796395.72883,16.3067,37.54686999320984
1617796395.74446,15.96768,37.5625
1617796395.76009,16.01987,37.57813000679016
1617796395.77571,16.85577,37.59375
1617796395.79134,18.59654,37.60938000679016
1617796395.80696,21.01106,37.625
1617796395.82259,23.61607,37.64063000679016
1617796395.83821,25.84435,37.65625
1617796395.85384,27.19452,37.67188000679016
1617796395.86947,27.36203,37.68750977516174
1617796395.88509,26.29907,37.70313000679016
1617796395.90072,24.17361,37.71875977516174
1617796395.91634,21.3335,37.73438000679016
1617796395.93197,18.19014,37.75000977516174
1617796395.94759,15.06036,37.76563000679016
1617796395.96322,12.04184,37.78125977516174
1617796395.97885,8.982681,37.796889781951904
1617796395.99447,5.592819,37.81250977516174
1617796396.0101,1.626465,37.828139781951904
1617796396.02572,-2.933365,37.84375977516174
1617796396.04135,-7.821213,37.859389781951904
1617796396.05697,-12.59113,37.87500977516174
1617796396.0726,-16.84778,37.890639781951904
1617796396.08823,-20.4599,37.906269788742065
1617796396.10385,-23.6399,37.921889781951904
1617796396.11948,-26.90277,37.937519788742065
1617796396.1351,-30.80676,37.953139781951904
1617796396.15073,-35.73906,37.968769788742065
1617796396.16635,-41.7089,37.984389781951904
1617796396.18198,-48.25951,38.000019788742065
1617796396.19761,-54.49371,38.01564979553223
1617796396.21323,-59.2298,38.031269788742065
1617796396.22886,-61.22033,38.04689979553223
1617796396.24448,-59.49831,38.062519788742065
1617796396.26011,-53.67287,38.07814979553223
1617796396.27573,-44.12678,38.093769788742065
1617796396.29136,-31.9437,38.10939979553223
1617796396.30699,-18.63279,38.12502980232239
1617796396.32261,-5.713768,38.14064979553223
1617796396.33824,5.727261,38.15627980232239
1617796396.35386,15.17051,38.17189979553223
1617796396.36949,22.62921,38.18752980232239
1617796396.38511,28.3808,38.20314979553223
1617796396.40074,32.71601,38.21877980232239
1617796396.41637,35.76593,38.23440980911255
1617796396.43199,37.55426,38.25002980232239
1617796396.44762,38.07565,38.26565980911255
1617796396.46324,37.41462,38.28127980232239
1617796396.47887,35.81339,38.29690980911255
1617796396.49449,33.59734,38.31252980232239
1617796396.51012,31.11092,38.32815980911255
1617796396.52575,28.65769,38.34378981590271
1617796396.54137,26.51506,38.35940980911255
1617796396.557,24.89595,38.37503981590271
1617796396.57262,23.99189,38.39065980911255
1617796396.58825,23.90992,38.40628981590271
1617796396.60387,24.62801,38.42190980911255
1617796396.6195,25.97221,38.43753981590271
1617796396.63513,27.61343,38.45316982269287
1617796396.65075,29.17154,38.46878981590271
1617796396.66638,30.29916,38.48441982269287
1617796396.682,30.79176,38.50003981590271
1617796396.69763,30.59523,38.51566982269287
1617796396.71325,29.74684,38.53128981590271
1617796396.72888,28.29924,38.54691982269287
1617796396.74451,26.25372,38.56254982948303
1617796396.76013,23.56706,38.57816982269287
1617796396.77576,20.21588,38.59379982948303
1617796396.79138,16.28651,38.60941982269287
1617796396.80701,12.0078,38.62504982948303
1617796396.82263,7.674255,38.64066982269287
1617796396.83826,3.51265,38.65629982948303
1617796396.85389,-0.4035034,38.67192983627319
1617796396.86951,-4.223801,38.68754982948303
1617796396.88514,-8.192307,38.70317983627319
1617796396.90076,-12.54402,38.71879982948303
1617796396.91639,-17.41672,38.73442983627319
1617796396.93201,-22.82463,38.75004982948303
1617796396.94764,-28.70183,38.76567983627319
1617796396.96327,-34.85738,38.781309843063354
1617796396.97889,-40.89604,38.79692983627319
1617796396.99452,-46.06668,38.812559843063354
1617796397.01014,-49.31752,38.82817983627319
1617796397.02577,-49.49757,38.843809843063354
1617796397.04139,-45.75899,38.85942983627319
1617796397.05702,-37.9632,38.875059843063354
1617796397.07265,-26.84201,38.890689849853516
1617796397.08827,-13.83768,38.906309843063354
1617796397.1039,-0.6326752,38.921939849853516
1617796397.11952,11.3644,38.937559843063354
1617796397.13515,21.33719,38.953189849853516
1617796397.15077,29.10599,38.968809843063354
1617796397.1664,34.86862,38.984439849853516
1617796397.18203,38.91522,39.00006985664368
1617796397.19765,41.48044,39.015689849853516
1617796397.21328,42.69086,39.03131985664368
1617796397.2289,42.66605,39.046939849853516
1617796397.24453,41.57208,39.06256985664368
1617796397.26015,39.61859,39.078189849853516
1617796397.27578,37.06058,39.09381985664368
1617796397.29141,34.15405,39.10944986343384
1617796397.30703,31.19711,39.12506985664368
1617796397.32266,28.50745,39.14069986343384
1617796397.33828,26.41235,39.15631985664368
1617796397.35391,25.16675,39.17194986343384
1617796397.36953,24.86002,39.18756985664368
1617796397.38516,25.40363,39.20319986343384
1617796397.40079,26.5491,39.218829870224
1617796397.41641,27.98734,39.23444986343384
1617796397.43204,29.44489,39.250079870224
1617796397.44766,30.70569,39.26569986343384
1617796397.46329,31.53528,39.281329870224
1617796397.47891,31.6763,39.29694986343384
1617796397.49454,30.85156,39.312579870224
1617796397.51017,28.82373,39.32820987701416
1617796397.52579,25.54822,39.343829870224
1617796397.54142,21.22964,39.35945987701416
1617796397.55704,16.3009,39.375079870224
1617796397.57267,11.26706,39.39070987701416
1617796397.58829,6.565125,39.406329870224
1617796397.60392,2.439819,39.42195987701416
1617796397.61955,-1.130859,39.43758988380432
1617796397.63517,-4.387268,39.45320987701416
1617796397.6508,-7.687469,39.46883988380432
1617796397.66642,-11.43405,39.48445987701416
1617796397.68205,-15.95837,39.50008988380432
1617796397.69768,-21.44684,39.51571989059448
1617796397.7133,-27.79895,39.53133988380432
1617796397.72893,-34.53375,39.54696989059448
1617796397.74455,-40.72577,39.56258988380432
1617796397.76018,-45.1308,39.57821989059448
1617796397.7758,-46.4736,39.59383988380432
1617796397.79143,-43.83444,39.60946989059448
1617796397.80706,-37.00601,39.625099897384644
1617796397.82268,-26.63971,39.64071989059448
1617796397.83831,-14.07751,39.656349897384644
1617796397.85393,-0.9293823,39.67196989059448
1617796397.86956,11.3768,39.687599897384644
1617796397.88518,21.92926,39.70321989059448
1617796397.90081,30.41531,39.718849897384644
1617796397.91644,36.89752,39.734479904174805
1617796397.93206,41.58936,39.750099897384644
1617796397.94769,44.63086,39.765729904174805
1617796397.96331,46.01456,39.781349897384644
1617796397.97894,45.72827,39.796979904174805
1617796397.99456,43.84045,39.812599897384644
1617796398.01019,40.60709,39.828229904174805
1617796398.02582,36.46768,39.843859910964966
1617796398.04144,31.97455,39.859479904174805
1617796398.05707,27.67258,39.875109910964966
1617796398.07269,23.99142,39.890729904174805
1617796398.08832,21.19016,39.906359910964966
1617796398.10394,19.33676,39.921979904174805
1617796398.11957,18.36731,39.937609910964966
1617796398.1352,18.12204,39.95323991775513
1617796398.15082,18.42303,39.968859910964966
1617796398.16645,19.13031,39.98448991775513
1617796398.18207,20.12054,40.000109910964966
1617796398.1977,21.26614,40.01573991775513
1617796398.21332,22.34109,40.031359910964966
1617796398.22895,23.06577,40.04698991775513
1617796398.24458,23.08838,40.06261992454529
1617796398.2602,22.13269,40.07823991775513
1617796398.27583,20.06583,40.09386992454529
1617796398.29145,16.97141,40.10948991775513
1617796398.30708,13.09238,40.12511992454529
1617796398.3227,8.740967,40.14073991775513
1617796398.33833,4.20816,40.15636992454529
1617796398.35396,-0.3562927,40.17199993133545
1617796398.36958,-4.943848,40.18761992454529
1617796398.38521,-9.709442,40.20324993133545
1617796398.40083,-14.86142,40.21886992454529
1617796398.41646,-20.62466,40.23449993133545
1617796398.43208,-27.12204,40.25011992454529
1617796398.44771,-34.27255,40.26574993133545
1617796398.46334,-41.70627,40.28137993812561
1617796398.47896,-48.70435,40.29699993133545
1617796398.49459,-54.24023,40.31262993812561
1617796398.51021,-57.16125,40.32824993133545
1617796398.52584,-56.48022,40.34387993812561
1617796398.54146,-51.70035,40.35949993133545
1617796398.55709,-43.03519,40.37512993812561
1617796398.57272,-31.38788,40.39075994491577
1617796398.58834,-18.14792,40.40637993812561
1617796398.60397,-4.7854,40.42200994491577
1617796398.61959,7.493225,40.43762993812561
1617796398.63522,17.97083,40.45325994491577
1617796398.65084,26.40149,40.46887993812561
1617796398.66647,32.86371,40.48450994491577
1617796398.6821,37.5127,40.50013995170593
1617796398.69772,40.4646,40.51575994491577
1617796398.71335,41.76367,40.53138995170593
1617796398.72897,41.46277,40.54700994491577
1617796398.7446,39.69891,40.56263995170593
1617796398.76022,36.7793,40.57825994491577
1617796398.77585,33.14111,40.59388995170593
1617796398.79148,29.31708,40.609519958496094
1617796398.8071,25.81006,40.62513995170593
1617796398.82273,22.96869,40.640769958496094
1617796398.83835,20.98914,40.65638995170593
1617796398.85398,19.83759,40.672019958496094
1617796398.8696,19.37311,40.68763995170593
1617796398.88523,19.41876,40.703269958496094
1617796398.90086,19.7981,40.718899965286255
1617796398.91648,20.37634,40.734519958496094
1617796398.93211,21.02216,40.750149965286255
1617796398.94773,21.56714,40.765769958496094
1617796398.96336,21.78809,40.781399965286255
1617796398.97898,21.44397,40.797019958496094
1617796398.99461,20.30627,40.812649965286255
1617796399.01024,18.23297,40.828279972076416
1617796399.02586,15.21075,40.843899965286255
1617796399.04149,11.36493,40.859529972076416
1617796399.05711,6.911804,40.875149965286255
1617796399.07274,2.150818,40.890779972076416
1617796399.08836,-2.656738,40.906399965286255
1617796399.10399,-7.360168,40.922029972076416
1617796399.11962,-11.96643,40.93765997886658
1617796399.13524,-16.64716,40.953279972076416
1617796399.15087,-21.65454,40.96890997886658
1617796399.16649,-27.23535,40.984529972076416
1617796399.18212,-33.53314,41.00015997886658
1617796399.19774,-40.50677,41.015779972076416
1617796399.21337,-47.8241,41.03140997886658
1617796399.229,-54.83075,41.04703998565674
1617796399.24462,-60.53741,41.06265997886658
1617796399.26025,-63.71344,41.07828998565674
1617796399.27587,-63.20599,41.09390997886658
1617796399.2915,-58.24829,41.10953998565674
1617796399.30712,-48.8504,41.12515997886658
1617796399.32275,-35.90088,41.14078998565674
1617796399.33838,-20.95374,41.1564199924469
1617796399.354,-5.809265,41.17203998565674
1617796399.36963,7.984375,41.1876699924469
1617796399.38525,19.49237,41.20328998565674
1617796399.40088,28.41614,41.2189199924469
1617796399.4165,34.92883,41.23453998565674
1617796399.43213,39.3681,41.2501699924469
1617796399.44776,42.03979,41.26579999923706
1617796399.46338,43.16351,41.2814199924469
1617796399.47901,42.94019,41.29704999923706
1617796399.49463,41.5979,41.3126699924469
1617796399.51026,39.43195,41.32829999923706
1617796399.52588,36.7522,41.3439199924469
1617796399.54151,33.83789,41.35954999923706
1617796399.55714,30.95496,41.37518000602722
1617796399.57276,28.37396,41.39079999923706
1617796399.58839,26.36212,41.40643000602722
1617796399.60401,25.17719,41.42204999923706
1617796399.61964,24.94897,41.43768000602722
1617796399.63526,25.57275,41.45329999923706
1617796399.65089,26.72974,41.46893000602722
1617796399.66652,28.00854,41.48456001281738
1617796399.68214,29.02386,41.50018000602722
1617796399.69777,29.51013,41.51581001281738
1617796399.71339,29.37659,41.53143000602722
1617796399.72902,28.64386,41.54706001281738
1617796399.74464,27.36554,41.56268000602722
1617796399.76027,25.56555,41.57831001281738
1617796399.7759,23.25104,41.593939781188965
1617796399.79152,20.41357,41.60956001281738
1617796399.80715,17.07416,41.625189781188965
1617796399.82277,13.25391,41.64081001281738
1617796399.8384,9.04425,41.656439781188965
1617796399.85402,4.530273,41.67206001281738
1617796399.86965,-0.1515503,41.687689781188965
1617796399.88528,-4.841492,41.703319787979126
1617796399.9009,-9.364258,41.718939781188965
1617796399.91653,-13.60358,41.734569787979126
1617796399.93215,-17.54633,41.750189781188965
1617796399.94778,-21.31451,41.765819787979126
1617796399.96341,-25.15619,41.78144979476929
1617796399.97903,-29.34784,41.797069787979126
1617796399.99466,-34.00989,41.81269979476929
1617796400.01028,-38.91846,41.828319787979126
1617796400.02591,-43.38708,41.84394979476929
1617796400.04153,-46.34564,41.859569787979126
1617796400.05716,-46.54791,41.87519979476929
1617796400.07279,-42.97015,41.89082980155945
1617796400.08841,-35.13684,41.90644979476929
1617796400.10404,-23.38434,41.92207980155945
1617796400.11966,-8.740112,41.93769979476929
1617796400.13529,7.342957,41.95332980155945
1617796400.15091,23.45099,41.96894979476929
1617796400.16654,38.56537,41.98457980155945
1617796400.18217,52.2453,42.00020980834961
1617796400.19779,64.54895,42.01582980155945
1617796400.21342,75.78375,42.03145980834961
1617796400.22904,86.27722,42.04707980155945
1617796400.24467,96.19006,42.06270980834961
1617796400.26029,105.4809,42.07832980155945
1617796400.27592,114.0215,42.09395980834961
1617796400.29155,121.6945,42.10958981513977
1617796400.30717,128.5315,42.12520980834961
1617796400.3228,134.7792,42.14083981513977
1617796400.33842,140.9157,42.15645980834961
1617796400.35405,147.6306,42.17208981513977
1617796400.36967,155.7537,42.18770980834961
1617796400.3853,166.032,42.20333981513977
1617796400.40093,178.8865,42.21896982192993
1617796400.41655,194.1549,42.23458981513977
1617796400.43218,210.9296,42.25021982192993
1617796400.4478,227.5575,42.26583981513977
1617796400.46343,241.8903,42.28146982192993
1617796400.47905,251.6737,42.29708981513977
1617796400.49468,255.0436,42.31271982192993
1617796400.51031,251.0183,42.32834982872009
1617796400.52593,239.7957,42.34396982192993
1617796400.54156,222.8359,42.35959982872009
1617796400.55718,202.545,42.37521982192993
1617796400.57281,181.69,42.39084982872009
1617796400.58843,162.7083,42.40646982192993
1617796400.60406,147.0678,42.42209982872009
1617796400.61969,134.9882,42.437729835510254
1617796400.63531,125.5915,42.45334982872009
1617796400.65094,117.4282,42.468979835510254
1617796400.66656,109.1569,42.48459982872009
1617796400.68219,100.0617,42.500229835510254
1617796400.69781,90.25774,42.51584982872009
1617796400.71344,80.43625,42.531479835510254
1617796400.72907,71.40593,42.547109842300415
1617796400.74469,63.50497,42.562729835510254
1617796400.76032,56.29755,42.578359842300415
1617796400.77594,48.65208,42.593979835510254
1617796400.79157,39.16366,42.609609842300415
1617796400.80719,26.76389,42.625229835510254
1617796400.82282,11.2578,42.640859842300415
1617796400.83845,-6.589109,42.656489849090576
1617796400.85407,-25.52736,42.672109842300415
1617796400.8697,-44.35374,42.687739849090576
1617796400.88532,-62.61738,42.703359842300415
1617796400.90095,-80.86607,42.718989849090576
1617796400.91657,-100.4367,42.734609842300415
1617796400.9322,-123.041,42.750239849090576
1617796400.94783,-150.5622,42.76586985588074
1617796400.96345,-184.9319,42.781489849090576
1617796400.97908,-227.7614,42.79711985588074
1617796400.9947,-279.4844,42.812739849090576
1617796401.01033,-338.0693,42.82836985588074
1617796401.02595,-398.1859,42.843989849090576
1617796401.04158,-451.7347,42.85961985588074
1617796401.05721,-489.9153,42.8752498626709
1617796401.07283,-506.256,42.89086985588074
1617796401.08846,-499.0377,42.9064998626709
1617796401.10408,-471.7603,42.92211985588074
1617796401.11971,-431.315,42.9377498626709
1617796401.13533,-384.8142,42.95336985588074
1617796401.15096,-336.9481,42.9689998626709
1617796401.16659,-289.3011,42.98462986946106
1617796401.18221,-241.7081,43.0002498626709
1617796401.19784,-194.4453,43.01587986946106
1617796401.21346,-149.6313,43.0314998626709
1617796401.22909,-110.8102,43.04712986946106
1617796401.24471,-81.14197,43.0627498626709
1617796401.26034,-61.54144,43.07837986946106
1617796401.27597,-49.995,43.09400987625122
1617796401.29159,-42.59808,43.10962986946106
1617796401.30722,-35.5123,43.12525987625122
1617796401.32284,-26.63681,43.14087986946106
1617796401.33847,-16.11111,43.15650987625122
1617796401.35409,-5.736359,43.17212986946106
1617796401.36972,2.545959,43.18775987625122
1617796401.38535,7.847198,43.20338988304138
1617796401.40097,10.65759,43.21900987625122
1617796401.4166,12.38156,43.23463988304138
1617796401.43222,14.36624,43.25025987625122
1617796401.44785,17.16748,43.26588988304138
1617796401.46347,20.30862,43.28150987625122
1617796401.4791,22.72833,43.29713988304138
1617796401.49473,23.40274,43.31276988983154
1617796401.51035,21.93979,43.32838988304138
1617796401.52598,18.83325,43.34401988983154
1617796401.5416,15.15421,43.35963988304138
1617796401.55723,12.02579,43.37526988983154
1617796401.57285,10.10324,43.39088988304138
1617796401.58848,9.287079,43.40651988983154
1617796401.60411,8.843018,43.422149896621704
1617796401.61973,7.809723,43.43776988983154
1617796401.63536,5.458405,43.453399896621704
1617796401.65098,1.682007,43.46901988983154
1617796401.66661,-3.05304,43.484649896621704
1617796401.68223,-7.908569,43.50026988983154
1617796401.69786,-12.07114,43.515899896621704
1617796401.71349,-15.13379,43.531529903411865
1617796401.72911,-17.19067,43.547149896621704
1617796401.74474,-18.81384,43.562779903411865
1617796401.76036,-20.83417,43.578399896621704
1617796401.77599,-24.03192,43.594029903411865
1617796401.79161,-28.80966,43.609649896621704
1617796401.80724,-34.97278,43.625279903411865
1617796401.82287,-41.68292,43.640909910202026
1617796401.83849,-47.5722,43.656529903411865
1617796401.85412,-51.04172,43.672159910202026
1617796401.86974,-50.74146,43.687779903411865
1617796401.88537,-45.94385,43.703409910202026
1617796401.90099,-36.79913,43.719029903411865
1617796401.91662,-24.34268,43.734659910202026
1617796401.93225,-10.20981,43.75028991699219
1617796401.94787,3.821869,43.765909910202026
1617796401.9635,16.25159,43.78153991699219
1617796401.97912,26.14211,43.797159910202026
1617796401.99475,33.20155,43.81278991699219
1617796402.01037,37.64224,43.828409910202026
1617796402.026,39.95026,43.84403991699219
1617796402.04163,40.6786,43.85966992378235
1617796402.05725,40.26503,43.87528991699219
1617796402.07288,39.04593,43.89091992378235
1617796402.0885,37.2625,43.90653991699219
1617796402.10413,35.10059,43.92216992378235
1617796402.11976,32.7422,43.93779993057251
1617796402.13538,30.33788,43.95341992378235
1617796402.15101,28.05165,43.96904993057251
1617796402.16663,26.02399,43.98466992378235
1617796402.18226,24.40434,44.00029993057251
1617796402.19788,23.34694,44.01591992378235
1617796402.21351,22.97365,44.03154993057251
1617796402.22914,23.35336,44.04717993736267
1617796402.24476,24.45427,44.06279993057251
1617796402.26039,26.13261,44.07842993736267
1617796402.27601,28.1367,44.09404993057251
1617796402.29164,30.15002,44.10967993736267
1617796402.30726,31.79767,44.12529993057251
1617796402.32289,32.74112,44.14092993736267
1617796402.33852,32.68254,44.15655994415283
1617796402.35414,31.47542,44.17217993736267
1617796402.36977,29.16348,44.18780994415283
1617796402.38539,26.01085,44.20342993736267
1617796402.40102,22.41794,44.21905994415283
1617796402.41664,18.80728,44.23467993736267
1617796402.43227,15.47348,44.25030994415283
1617796402.4479,12.495,44.26593995094299
