,index,PPG_Raw,PPG_Clean,PPG_Rate,PPG_Peaks,EDA_Raw,EDA_Clean,EDA_Tonic,EDA_Phasic,SCR_Onsets,SCR_Peaks,SCR_Height,SCR_Amplitude,SCR_RiseTime,SCR_Recovery,SCR_RecoveryTime,Index,Label,Condition,id
0,0.0,-62.06732,0.0,64.41290322580646,0,0.1037503,0.10376633430886693,0.10441877487799547,-0.0006523976621122841,0,0,0,0,0,0,1,0,1,neutral,0
1,0.015873015873015872,-53.68726,0.0,64.41290322580646,0,0.10375624757363525,0.1037950582950003,0.10442274320953798,-0.0006276420361182704,0,0,0,0,0,0,0,1,1,neutral,0
2,0.031746031746031744,-42.27301,0.0,64.41290322580646,0,0.10377382721490919,0.10382354746598173,0.10442671335811028,-0.0006031230435419959,0,0,0,0,0,0,0,2,1,neutral,0
3,0.047619047619047616,-29.1926,0.0,64.41290322580646,0,0.10380264430437408,0.10385394252276493,0.10443068524201346,-0.0005766999017387411,0,0,0,0,0,0,0,3,1,neutral,0
4,0.06349206349206349,-15.8614,0.0,64.41290322580646,0,0.1038423042225822,0.1038883285461884,0.10443465877919898,-0.0005462874478293814,0,0,0,0,0,0,0,4,1,neutral,0
5,0.07936507936507936,-3.371071,0.0,64.41290322580646,0,0.10389241235008585,0.10392863490518832,0.10443863388728461,-0.0005099562305034533,0,0,0,0,0,0,0,5,1,neutral,0
6,0.09523809523809523,7.651306,0.0,64.41290322580646,0,0.10395257406743731,0.10397655468959834,0.1044426104835726,-0.0004660130772375174,0,0,0,0,0,0,0,6,1,neutral,0
7,0.1111111111111111,16.96082,0.0,64.41290322580646,0,0.10402239475518887,0.10403348585526154,0.10444658848507131,-0.0004130599492048147,0,0,0,0,0,0,0,7,1,neutral,0
8,0.12698412698412698,24.54945,0.0,64.41290322580646,0,0.10410147979389277,0.10410049378427984,0.10445056780852112,-0.00035003138105180263,0,0,0,0,0,0,0,8,1,neutral,0
9,0.14285714285714285,30.49067,0.0,64.41290322580646,0,0.10418943456410135,0.10417829294256008,0.10445454837042546,-0.0002762128233830956,0,0,0,0,0,0,0,9,1,neutral,0
10,0.15873015873015872,34.91547,0.0,64.41290322580646,0,0.10428586444636682,0.10426724392404965,0.1044585300870876,-0.0001912435985626401,0,0,0,0,0,0,0,10,1,neutral,0
11,0.1746031746031746,38.02505,0.0,64.41290322580646,0,0.1043903748212415,0.10436736146458357,0.10446251287465363,-9.51088869096346e-05,0,0,0,0,0,0,0,11,1,neutral,0
12,0.19047619047619047,40.11358,0.0,64.41290322580646,0,0.1045025710692777,0.104478328960049,0.10446649664916186,1.1874791416673991e-05,0,0,0,0,0,0,0,12,1,neutral,0
13,0.20634920634920634,41.55515,0.0,64.41290322580646,0,0.10462205857102763,0.10459951553929807,0.10447048132659842,0.00012907664927414193,0,0,0,0,0,0,0,13,1,neutral,0
14,0.2222222222222222,42.75039,0.0,64.41290322580646,0,0.10474844270704363,0.10472999268188439,0.10447446682295934,0.00025556825021220866,0,0,0,0,0,0,0,14,1,neutral,0
15,0.23809523809523808,44.04054,0.0,64.41290322580646,0,0.10488132885787796,0.1048685485688951,0.10447845305431822,0.00039013785923623623,0,0,0,0,0,0,0,15,1,neutral,0
16,0.25396825396825395,45.68526,0.0,64.41290322580646,0,0.1050203224040829,0.10501369964089352,0.10448243993689932,0.000531302000677027,0,0,0,0,0,0,0,16,1,neutral,0
17,0.2698412698412698,47.86702,0.0,64.41290322580646,0,0.10516475035751806,0.10516370005242254,0.10448642738715534,0.0006773149126165739,0,0,0,0,0,0,0,17,1,neutral,0
18,0.2857142857142857,50.71332,0.0,64.41290322580646,0,0.10531253779520333,0.1053165507300704,0.10449041532184883,0.0008261776048722738,0,0,0,0,0,0,0,18,1,neutral,0
19,0.30158730158730157,54.325,0.0,64.41290322580646,0,0.1054611694345688,0.10547001047604271,0.10449440365813639,0.0009756489624848882,0,0,0,0,0,0,0,19,1,neutral,0
20,0.31746031746031744,58.77409,0.0,64.41290322580646,0,0.10560812983460696,0.10562161197238039,0.10449839231365445,0.0011232617498506045,0,0,0,0,0,0,0,20,1,neutral,0
21,0.3333333333333333,64.06281,0.0,64.41290322580646,0,0.10575090355431026,0.10576868562874324,0.1045023812066053,0.001266346458418584,0,0,0,0,0,0,0,21,1,neutral,0
22,0.3492063492063492,70.0692,0.0,64.41290322580646,0,0.10588697515267113,0.10590839399346778,0.10450637025584208,0.0014020657176638353,0,0,0,0,0,0,0,22,1,neutral,0
23,0.36507936507936506,76.56913,0.0,64.41290322580646,0,0.10601382918868203,0.1060377789327022,0.10451035938095106,0.0015274614741399076,0,0,0,0,0,0,0,23,1,neutral,0
24,0.38095238095238093,83.28755,0.0,64.41290322580646,0,0.10612895022133541,0.1061538229975814,0.10451434850232949,0.0016395163585760338,0,0,0,0,0,0,0,24,1,neutral,0
25,0.3968253968253968,90.0425,2.5184598909166116,64.41290322580646,0,0.1062298228096237,0.10625352537478948,0.10451833754125761,0.0017352296363676537,0,0,0,0,0,0,0,25,1,neutral,0
26,0.4126984126984127,96.91786,10.263680502953182,64.41290322580646,0,0.10631393151253939,0.10633399159818782,0.10452232641996279,0.001811706919140335,0,0,0,0,0,0,0,26,1,neutral,0
27,0.42857142857142855,104.3748,19.010609344258185,64.41290322580646,0,0.10637876088907491,0.10639253485806092,0.10452631506167426,0.0018662614739408244,0,0,0,0,0,0,0,27,1,neutral,0
28,0.4444444444444444,113.1147,29.28320590677159,64.41290322580646,0,0.10642179549822271,0.10642678537513167,0.10453030339066681,0.0018965235972087295,0,0,0,0,0,0,0,28,1,neutral,0
29,0.4603174603174603,123.6996,41.374241205722534,64.41290322580646,0,0.10644051989897521,0.1064348030277986,0.10453429133229174,0.001900553241982808,0,1,0,-2147483648,-2147483648,0,0,29,1,neutral,0
30,0.47619047619047616,136.1159,55.083047268618245,64.41290322580646,0,0.10643241865032493,0.1064151873687682,0.10453827881299385,0.0018769500345161714,0,0,0,0,0,0,0,30,1,neutral,0
31,0.49206349206349204,149.5049,69.57788394517777,64.41290322580646,0,0.10639497631126425,0.10636717848094164,0.10454226576031339,0.001824954130161143,0,0,0,0,0,0,0,31,1,neutral,0
32,0.5079365079365079,162.2367,83.45927694543592,64.41290322580646,0,0.10632567744078567,0.10629074192624642,0.10454625210287216,0.0017445311622148701,0,0,0,0,0,0,0,32,1,neutral,0
33,0.5238095238095237,172.3722,95.02285081646707,64.41290322580646,0,0.10622275818092564,0.10618663141845242,0.10455023777034328,0.001636434914765484,0,0,0,0,0,0,0,33,1,neutral,0
34,0.5396825396825397,178.213,102.64466357100504,64.41290322580646,0,0.10608924266493966,0.10605642381514796,0.10455422269340474,0.001502242314714677,0,0,0,0,0,0,0,34,1,neutral,0
35,0.5555555555555556,178.7099,105.17476115634848,64.41290322580646,1,0.10593003389102487,0.10590252249500333,0.10455820680367706,0.0013443568091035232,0,0,0,0,0,0,0,35,1,neutral,0
36,0.5714285714285714,173.6557,102.23532350536328,63.646349600948994,0,0.10575003929363315,0.10572812699359693,0.10456219003364609,0.001165978001015843,0,0,0,0,0,0,0,36,1,neutral,0
37,0.5873015873015872,163.6633,94.36025622555806,62.90541835369245,0,0.1055541663072163,0.10553716869501446,0.10456617231657231,0.0009710373412681394,0,0,0,0,0,0,0,37,1,neutral,0
38,0.6031746031746031,150.0476,82.95570915170632,62.18896636318964,0,0.10534732236622625,0.10533421421454083,0.10457015358638838,0.0007641015112039313,0,0,0,0,0,0,0,38,1,neutral,0
39,0.6190476190476191,134.7164,70.09025995585002,61.495919308852294,0,0.10513441490511481,0.10512433972528322,0.10457413377758724,0.0005502467494286839,0,0,0,0,0,0,0,39,1,neutral,0
40,0.6349206349206349,119.9644,58.14386158121778,60.82526660826288,0,0.10492035135833384,0.10491298082337219,0.10457811282510349,0.0003349087171295803,0,0,0,0,0,0,0,40,1,neutral,0
41,0.6507936507936507,108.1677,49.3694740448539,60.17605679645178,0,0.10471003916033522,0.10470576359653352,0.10458209066419072,0.00012371356676999304,0,0,0,0,0,0,0,41,1,neutral,0
42,0.6666666666666666,101.2712,45.45361723308254,59.54739330231232,0,0.10450838574557081,0.10450832339080281,0.10458606723029817,-7.770329107258664e-05,0,0,0,0,0,0,0,42,1,neutral,0
43,0.6825396825396826,100.2624,47.18526359078076,58.938430582920326,0,0.10432029854849242,0.10432611839021153,0.10459004245894973,-0.0002638836078993975,0,0,0,0,0,0,0,43,1,neutral,0
44,0.6984126984126984,104.8907,54.33083779199816,58.348370580894034,0,0.10415068500355196,0.10416424554295554,0.10459401628562853,-0.00042973037100661504,0,0,0,0,0,0,0,44,1,neutral,0
45,0.7142857142857142,113.7646,65.75500418007599,57.776459473758784,0,0.10400445254520126,0.10402726656100114,0.10459798864567035,-0.000570681803772626,0,0,0,0,0,0,0,45,1,neutral,0
46,0.7301587301587301,124.8504,79.74095259119201,57.22198468764343,0,0.1038865086078922,0.10391905163176358,0.10460195947416864,-0.000682867653884575,0,0,0,0,0,0,0,46,1,neutral,0
47,0.746031746031746,136.1046,94.39228443942464,56.684272150593706,0,0.1038017606260766,0.10384264803170584,0.10460592870589383,-0.0007632405796588792,0,0,0,0,0,0,0,47,1,neutral,0
48,0.7619047619047619,145.8951,107.98083725552044,56.16268376339422,0,0.10375511603420635,0.1038001799426476,0.10460989627522903,-0.0008096763336679519,0,0,0,0,0,0,0,48,1,neutral,0
49,0.7777777777777777,153.159,119.15027214803871,55.65661506809333,0,0.10375079072413716,0.10379278439224505,0.104613862116124,-0.0008210378222143812,1,0,0,0,0,0,0,49,1,neutral,0
50,0.7936507936507936,157.2175,126.96597223092088,55.165493096459976,0,0.10378737454471355,0.10382058638770902,0.10461782616206854,-0.0007971999715861405,0,0,0,0,0,0,0,50,1,neutral,0
51,0.8095238095238095,157.5618,130.87083298966826,54.68877438240561,0,0.10386071905000453,0.10388271410260182,0.10462178834608588,-0.0007390345412532112,0,0,0,0,0,0,0,51,1,neutral,0
52,0.8253968253968254,153.8646,130.62878070616554,54.225943124003415,0,0.10396665749093771,0.10397735262786097,0.10462574860074632,-0.000648356372857416,0,0,0,0,0,0,0,52,1,neutral,0
53,0.8412698412698412,146.0324,126.31044533349336,53.77650948216025,0,0.10410102311844066,0.1041018325822854,0.10462970685820043,-0.000527834779759526,0,0,0,0,0,0,0,53,1,neutral,0
54,0.8571428571428571,134.3715,118.32389533464192,53.34000800426095,0,0.10425964918344101,0.1042527480426179,0.10463366305023097,-0.000380875617008616,0,0,0,0,0,0,0,54,1,neutral,0
55,0.873015873015873,119.6498,107.45052037862904,52.91599616223395,0,0.10443836893686632,0.10442609695688278,0.10463761710832188,-0.0002114808680734663,0,0,0,0,0,0,0,55,1,neutral,0
56,0.8888888888888888,103.0287,94.83204930924306,52.50405299549304,0,0.10463301562964422,0.1046174364944596,0.10464156896374242,-2.409329485290445e-05,0,0,0,0,0,0,0,56,1,neutral,0
57,0.9047619047619047,85.94727,81.87019818484377,52.10377785011165,0,0.10483942251270227,0.10482204562063481,0.10464551854764427,0.00017656613677863547,0,0,0,0,0,0,0,57,1,neutral,0
58,0.9206349206349206,69.89639,70.03374214362724,51.71478920639029,0,0.10505342283696814,0.10503508746698623,0.10464946579116892,0.0003856606272482861,0,0,0,0,0,0,0,58,1,neutral,0
59,0.9365079365079365,56.19629,60.604476295209224,51.33672358770194,0,0.1052708498533693,0.10525176468780013,0.10465341062556284,0.0005983928995866362,0,0,0,0,0,0,0,59,1,neutral,0
60,0.9523809523809523,45.77631,54.422230663998256,50.96923454414674,0,0.10548753681283347,0.1054674618396561,0.1046573529822974,0.0008101475788925979,0,0,0,0,0,0,0,60,1,neutral,0
61,0.9682539682539681,38.93729,51.70171986522778,50.61199170513146,0,0.10569931696628818,0.10567786981286921,0.10466129279319114,0.0010166156236534802,0,0,0,0,0,0,0,61,1,neutral,0
62,0.9841269841269841,35.26324,51.98465359222024,50.26467989551282,0,0.10590202356466105,0.10587908842720804,0.10466522999053142,0.0012138969213411639,0,0,0,0,0,0,0,62,1,neutral,0
63,1.0,33.71194,54.25757775089209,49.92699831041623,0,0.10609148985887966,0.10606770445716697,0.10466916450719319,0.0013985783135657156,0,0,0,0,0,0,0,63,1,neutral,0
0,0.0,19.2301,0.0,66.500765130766,0,0.10393451285615564,0.10393130295844112,0.10555572908275421,-0.0016243789570757929,0,0,0,0,0,0,0,1111,3,neutral,2
1,0.015873015873015872,20.56408,0.0,66.37411485172713,0,0.1040466664778865,0.10404441457978543,0.10555428195839431,-0.0015098090749787634,0,0,0,0,0,0,0,1112,3,neutral,2
2,0.031746031746031744,22.02904,0.0,66.24080767218878,0,0.10416350667325493,0.10416125711127969,0.10555283694938661,-0.0013915103219158936,0,0,0,0,0,0,0,1113,3,neutral,2
3,0.047619047619047616,23.41499,0.0,66.10122732791123,0,0.10428583861734174,0.1042824836196638,0.10555139407412475,-0.001268829649281453,0,0,0,0,0,0,0,1114,3,neutral,2
4,0.06349206349206349,24.40209,0.0,65.9557557997315,0,0.10441446748522773,0.10440906085316734,0.10554995335019574,-0.0011408003261734016,0,0,0,0,0,0,0,1115,3,neutral,2
5,0.07936507936507936,24.6489,0.0,65.80477267354205,0,0.10455019845199362,0.10454220406651328,0.10554851479445138,-0.0010062071144611964,0,0,0,0,0,0,0,1116,3,neutral,2
6,0.09523809523809523,23.8762,0.0,65.64865454639038,0,0.10469383669272024,0.10468329907548533,0.105547078423083,-0.0008636642142930944,0,0,0,0,0,0,0,1117,3,neutral,2
7,0.1111111111111111,22.01265,0.0,65.48777447876047,0,0.10484618738248837,0.1048338130646524,0.10554564425169996,-0.0007117044564502472,0,0,0,0,0,0,0,1118,3,neutral,2
8,0.12698412698412698,19.23685,0.0,65.3225014928323,0,0.10500805569637876,0.10499519602466331,0.1055442122954128,-0.0005488778651352036,0,0,0,0,0,0,0,1119,3,neutral,2
9,0.14285714285714285,15.94591,0.0,65.15320011627412,0,0.10518024680947227,0.10516877517078695,0.10554278256892197,-0.00037385723952032904,0,0,0,0,0,0,0,1120,3,neutral,2
10,0.15873015873015872,12.59319,0.0,64.98022997090453,0,0.10536356589684964,0.10535564528473437,0.10554135508661262,-0.00018554781202067183,0,0,0,0,0,0,0,1121,3,neutral,2
11,0.1746031746031746,9.498968,0.0,64.80394540536732,0,0.10555881813359166,0.10555655858604868,0.10553992986265665,1.6802622993937714e-05,0,0,0,0,0,0,0,1122,3,neutral,2
12,0.19047619047619047,6.725101,0.0,64.62469517079111,0,0.10576680869477913,0.10577181840384961,0.10553850691112215,0.00023349738083400113,0,0,0,0,0,0,0,1123,3,neutral,2
13,0.20634920634920634,4.070772,0.0,64.44282213825774,0,0.10598834275549283,0.10600118148601177,0.10553708624609107,0.0004642931955509902,0,0,0,0,0,0,0,1124,3,neutral,2
14,0.2222222222222222,1.231503,0.0,64.25866305677722,0,0.10622422549081355,0.1062437741416073,0.10553566788178484,0.0007083163622542629,0,0,0,0,0,0,0,1125,3,neutral,2
15,0.23809523809523808,-2.034488,0.0,64.07254835036274,0,0.10647500689443828,0.10649802746371888,0.10553425183269817,0.000963997959790373,0,0,0,0,0,0,0,1126,3,neutral,2
16,0.25396825396825395,-5.742408,0.0,63.88480195271367,0,0.10673799871180333,0.10676163655815238,0.10553283811374027,0.0012290330793143954,0,0,0,0,0,0,0,1127,3,neutral,2
17,0.2698412698412698,-9.63772,0.0,63.6957411779501,0,0.10700828676458678,0.10703154800203843,0.10553142674038261,0.001500368282743779,0,0,0,0,0,0,0,1128,3,neutral,2
18,0.2857142857142857,-13.30987,0.0,63.505676625793555,0,0.10728091311908537,0.10730397873386849,0.10553001772881195,0.00177422049264143,0,0,0,0,0,0,0,1129,3,neutral,2
19,0.30158730158730157,-16.36012,0.0,63.314912119558905,0,0.10755091984159582,0.1075744683372961,0.10552861109608669,0.0020461292758604905,0,0,0,0,0,0,0,1130,3,neutral,2
20,0.31746031746031744,-18.56702,0.0,63.12374467530564,0,0.10781334899841485,0.10783796533076151,0.10552720686029463,0.002311043133011255,0,0,0,0,0,0,0,1131,3,neutral,2
21,0.3333333333333333,-19.96159,0.0,62.93246450049619,0,0.10806324265583919,0.10808894668273805,0.10552580504070934,0.00256343901355121,0,0,0,0,0,0,0,1132,3,neutral,2
22,0.3492063492063492,-20.79418,0.0,62.74135502052014,0,0.10829564288016558,0.10832156836071752,0.10552440565794245,0.0027974728646181046,0,0,0,0,0,0,0,1133,3,neutral,2
23,0.36507936507936506,-21.40283,0.0,62.55069293146601,0,0.1085055917376907,0.10852984328433707,0.1055230087340884,0.003007157584012021,0,0,0,0,0,0,0,1134,3,neutral,2
24,0.38095238095238093,-22.09114,0.0,62.3607482775562,0,0.10868813129471132,0.10870784158179231,0.10552161429285864,0.003186563276474323,0,0,0,0,0,0,0,1135,3,neutral,2
25,0.3968253968253968,-22.97335,0.0,62.171784551703176,0,0.10883830361752408,0.10884990656134101,0.1055202223597016,0.0033300332250713687,0,0,0,0,0,0,0,1136,3,neutral,2
26,0.4126984126984127,-23.95153,0.0,61.984058817696145,0,0.10895115077242583,0.10895087836634758,0.10551883296190527,0.0034324075461363806,0,0,0,0,0,0,0,1137,3,neutral,2
27,0.42857142857142855,-24.65514,0.0,61.79782185258514,0,0.1090217148257132,0.10900631599290948,0.10551744612867896,0.0034892452068141324,0,0,0,0,0,0,0,1138,3,neutral,2
28,0.4444444444444444,-24.4945,0.0,61.61331830789393,0,0.10904503784368293,0.10901270736914485,0.10551606189121146,0.0034970341042903606,0,1,0,0,0,0,0,1139,3,neutral,2
29,0.4603174603174603,-22.7137,0.0,61.43078688836261,0,0.10901616189263175,0.10896765670892619,0.10551468028270305,0.0034533784194934383,0,0,0,0,0,0,0,1140,3,neutral,2
30,0.47619047619047616,-18.53593,0.0,61.25046054699415,0,0.10893012903885639,0.10887003854346566,0.10551330133836931,0.003357152648675982,0,0,0,0,0,0,0,1141,3,neutral,2
31,0.49206349206349204,-11.35831,0.0,61.07256669525715,0,0.10878237147229018,0.108720108841641,0.10551192509541539,0.00320861272376626,0,0,0,0,0,0,0,1142,3,neutral,2
32,0.5079365079365079,-0.904129,0.0,60.89732742737709,0,0.1085750145840367,0.10851956549887028,0.10551055159298028,0.0030094565012987956,0,0,0,0,0,0,0,1143,3,neutral,2
33,0.5238095238095237,12.62897,0.0,60.724959757731845,0,0.10831581228673128,0.10827155310531088,0.10550918087205106,0.0027628285306991913,0,0,0,0,0,0,0,1144,3,neutral,2
34,0.5396825396825397,28.65266,0.0,60.55567587045108,0,0.10801269367526119,0.10798061003978131,0.10550781297534809,0.0024732671483205537,0,0,0,0,0,0,0,1145,3,neutral,2
35,0.5555555555555556,46.31513,0.0,60.38968338040639,0,0.10767358784451364,0.10765255921229717,0.10550644794718317,0.0021465952201213845,0,0,0,0,0,0,0,1146,3,neutral,2
36,0.5714285714285714,64.69931,0.506334210919281,60.22718560486551,0,0.1073064238893759,0.10729434683202864,0.10550508583329314,0.0017897589097894968,0,0,0,0,0,0,0,1147,3,neutral,2
37,0.5873015873015872,83.00787,19.616409739884432,60.068381845172624,0,0.1069191309047352,0.10691383614736323,0.10550372668065215,0.0014106214189924273,0,0,0,0,0,0,0,1148,3,neutral,2
38,0.6031746031746031,100.6803,38.359869357572954,59.913467677904926,0,0.1065196379854787,0.10651956507222016,0.10550237053726673,0.0010177206138967131,0,0,0,0,0,0,0,1149,3,neutral,2
39,0.6190476190476191,117.3785,56.29414688321645,59.76263525504512,0,0.10611587422649381,0.10612047798037949,0.10550101745195815,0.000620000819714739,0,0,0,0,0,0,0,1150,3,neutral,2
40,0.6349206349206349,132.9077,73.07132619301645,59.61607361279861,0,0.10571576872266768,0.1057256427894039,0.10549966747413692,0.00022652990485192733,0,0,0,0,0,1,0,1151,3,neutral,2
41,0.6507936507936507,147.117,88.39044450132857,59.47396898877402,0,0.10532725056888757,0.10534396485800973,0.1054983206535744,-0.00015378682149377128,0,0,0,0,0,0,0,1152,3,neutral,2
42,0.6666666666666666,159.805,102.01203637604254,59.33650514733555,0,0.10495824886004072,0.10498390925506652,0.10549697704017696,-0.0005124843401066035,0,0,0,0,0,0,0,1153,3,neutral,2
43,0.6825396825396826,170.7368,113.85326968637888,59.20386371302636,0,0.10461669269101433,0.10465324265014303,0.10549563668376763,-0.000841796030988517,0,0,0,0,0,0,0,1154,3,neutral,2
44,0.6984126984126984,179.825,124.12250580148195,59.0762245120529,0,0.10431051115669572,0.10435880539861778,0.10549429963388,-0.0011348815880426288,0,0,0,0,0,0,0,1155,3,neutral,2
45,0.7142857142857142,187.3715,133.40127182165338,58.95376592191218,0,0.10404763335197206,0.10410632328060596,0.10549296593956908,-0.0013860152799571174,0,0,0,0,0,0,0,1156,3,neutral,2
46,0.7301587301587301,194.1631,142.57484986430072,58.8366652293369,0,0.10383598837173064,0.10390026671718804,0.10549163564924272,-0.0015907267338081065,0,0,0,0,0,0,0,1157,3,neutral,2
47,0.746031746031746,201.3483,152.56827434286083,58.72509899682743,0,0.10368326066808455,0.10374376306767627,0.10549030881051709,-0.001745888637648617,0,0,0,0,0,0,0,1158,3,neutral,2
48,0.7619047619047619,209.9473,163.94644509059742,58.619243438136266,0,0.10359122884598072,0.10363856482050002,0.10548898547009873,-0.0018497485495053187,0,0,0,0,0,0,0,1159,3,neutral,2
49,0.7777777777777777,220.2052,176.53547461401592,58.519274803168116,0,0.10355560633746964,0.10358507326484309,0.10548766567369497,-0.0019019052256515822,0,0,0,0,0,0,0,1160,3,neutral,2
50,0.7936507936507936,231.185,189.25698723925217,58.42536977286095,0,0.10357183005960284,0.10358241385087706,0.10548634946595375,-0.0019032332603140338,1,0,0,0,0,0,0,1161,3,neutral,2
51,0.8095238095238095,240.8221,200.30326068239313,58.33770586471684,0,0.10363533692943182,0.10362855629253338,0.10548503689043306,-0.0018557629828698425,0,0,0,0,0,0,0,1162,3,neutral,2
52,0.8253968253968254,246.5291,207.6365727200089,58.25646184976078,0,0.10374156386400808,0.1037204699139582,0.10548372798959957,-0.0017625251113905897,0,0,0,0,0,0,0,1163,3,neutral,2
53,0.8412698412698412,246.17,209.638492910578,58.18181818181818,1,0.10388594778038314,0.10385430305706017,0.1054824228048553,-0.0016273713451211151,0,0,0,0,0,0,0,1164,3,neutral,2
54,0.8571428571428571,238.9093,205.64793638330963,58.110506644445934,0,0.10406392559560851,0.1040255746636669,0.1054811213765907,-0.0014547827823761816,0,0,0,0,0,0,0,1165,3,neutral,2
55,0.873015873015873,225.5143,196.1630705990736,58.039162345455225,0,0.10427093422673564,0.1042293663880371,0.10547982374426175,-0.0012496778081053411,0,0,0,0,0,0,0,1166,3,neutral,2
56,0.8888888888888888,207.9852,182.62967592124053,57.96782198362956,0,0.10450241059081612,0.10446050464966775,0.10547852994648875,-0.001017230041184738,0,0,0,0,0,0,0,1167,3,neutral,2
57,0.9047619047619047,188.7341,166.92423074795414,57.896521901634955,0,0.10475379160490142,0.10471372371445613,0.10547724002117391,-0.0007627052533725079,0,0,0,0,0,0,0,1168,3,neutral,2
58,0.9206349206349206,169.6915,150.76926312751291,57.82529808738067,0,0.10502051418604308,0.10498380299008299,0.10547595400563477,-0.0004913240740591401,0,0,0,0,0,0,0,1169,3,neutral,2
59,0.9365079365079365,151.8135,135.3277413119189,57.75418617582767,0,0.10529801525129258,0.10526567404531993,0.10547467193675046,-0.00020815497110635603,0,0,0,0,0,0,0,1170,3,neutral,2
60,0.9523809523809523,135.1671,121.11392747361872,57.68322145123299,0,0.10558173171770144,0.10555449524618372,0.10547339385111783,8.196038515111972e-05,0,0,0,0,0,0,0,1171,3,neutral,2
61,0.9682539682539681,119.3629,108.19326218083386,57.61243884981906,0,0.10586710050232122,0.10584569421183596,0.1054721197852144,0.0003744495776422578,0,0,0,0,0,0,0,1172,3,neutral,2
62,0.9841269841269841,104.1355,96.51057442143372,57.54187296285627,0,0.10614955852220329,0.10613498043031777,0.10547084977556548,0.0006650220581272801,0,0,0,0,0,0,0,1173,3,neutral,2
63,1.0,89.66812,86.14763860422315,57.47155804014834,0,0.10642456550109455,0.10641833226492083,0.10546958385891275,0.0009496561534000484,0,0,0,0,0,0,0,1174,3,neutral,2
0,0.0,-42.75489,0.0,51.07408849609247,0,0.10519232169693463,0.10520299387068671,0.1070339895094642,-0.002073415253337711,0,0,0,0,0,0,0,2376,5,neutral,4
1,0.015873015873015872,-48.2542,0.0,50.68604451865358,0,0.10511107488395784,0.10512956705204196,0.10703458178017013,-0.0021485430735155614,0,0,0,0,0,0,0,2377,5,neutral,4
2,0.031746031746031744,-53.16196,0.0,50.302633588075125,0,0.10505699162313596,0.10508207055255206,0.10703517040652102,-0.002197738765359451,0,0,0,0,0,0,0,2378,5,neutral,4
3,0.047619047619047616,-56.2264,0.0,49.92409079464472,0,0.10503243021830587,0.10506129956583621,0.10703575539353057,-0.0022202071261949513,1,0,0,0,0,0,0,2379,5,neutral,4
4,0.06349206349206349,-56.34033,0.0,49.55063425449766,0,0.10503950525552624,0.10506760547389357,0.10703633674508622,-0.0022155967636994355,0,0,0,0,0,0,0,2380,5,neutral,4
5,0.07936507936507936,-52.91901,0.0,49.18246601294773,0,0.10507756692091207,0.10510087947338148,0.10703691446393693,-0.0021840164696108294,0,0,0,0,0,0,0,2381,5,neutral,4
6,0.09523809523809523,-46.04276,0.0,48.81977293633033,0,0.1051442140600998,0.10516055419790699,0.10703748855169634,-0.0021260335974387905,0,0,0,0,0,0,0,2382,5,neutral,4
7,0.1111111111111111,-36.46938,0.0,48.462727589476515,0,0.1052370177404467,0.10524562322926267,0.1070380590088617,-0.002042654551246994,0,0,0,0,0,0,0,2383,5,neutral,4
8,0.12698412698412698,-25.34107,0.0,48.11148909640426,0,0.10535354902931006,0.1053546769190377,0.10703862583484783,-0.0019352889640755432,0,0,0,0,0,0,0,2384,5,neutral,4
9,0.14285714285714285,-13.83318,0.0,47.76620398224224,0,0.10549137899404712,0.10548595167797825,0.1070391890280358,-0.0018057004086284956,0,0,0,0,0,0,0,2385,5,neutral,4
10,0.15873015873015872,-2.829636,0.0,47.42700699479433,0,0.10564807870201513,0.10563738896420134,0.10703974858583543,-0.001655947409121833,0,0,0,0,0,0,0,2386,5,neutral,4
11,0.1746031746031746,7.138374,0.0,47.09402190451057,0,0.10582121922057136,0.10580669967746081,0.10704030450476053,-0.0014883190470921612,0,0,0,0,0,0,0,2387,5,neutral,4
12,0.19047619047619047,15.80288,0.0,46.767362281953766,0,0.10600837161707317,0.10599142955024708,0.1070408567805159,-0.0013052695703832699,0,0,0,0,0,0,0,2388,5,neutral,4
13,0.20634920634920634,22.97693,0.0,46.44713225214349,0,0.10620710695887764,0.106189021379794,0.10704140540809458,-0.001109356161235807,0,0,0,0,0,0,0,2389,5,neutral,4
14,0.2222222222222222,28.44328,0.0,46.13342722542097,0,0.10641499631334214,0.10639687050429911,0.10704195038188402,-0.0009031834601726731,0,0,0,0,0,0,0,2390,5,neutral,4
15,0.23809523809523808,32.01009,0.0,45.82633460471352,0,0.1066296107478239,0.10661237071585186,0.10704249169577974,-0.0006893576531836822,0,0,0,0,0,0,0,2391,5,neutral,4
16,0.25396825396825395,33.64519,0.0,45.525934469285744,0,0.10684852132968023,0.10683294874358283,0.10704302934330498,-0.00047045198869537263,0,0,0,0,0,0,0,2392,5,neutral,4
17,0.2698412698412698,33.6319,0.0,45.2323002352502,0,0.10706929912626834,0.10705608645970517,0.1070435633177347,-0.00024898457165293484,0,0,0,0,0,0,0,2393,5,neutral,4
18,0.2857142857142857,32.54082,0.0,44.94549929327416,0,0.10728951520494548,0.10727933099255736,0.10704409361222263,-2.740825060386091e-05,0,0,0,0,0,0,0,2394,5,neutral,4
19,0.30158730158730157,31.08788,0.0,44.66559362406349,0,0.10750674063306899,0.1075002939172004,0.10704462021992979,0.00019188857277146126,0,0,0,0,0,0,0,2395,5,neutral,4
20,0.31746031746031744,29.87385,0.0,44.392640392331344,0,0.10771856557035012,0.10771664158563182,0.10704514313415313,0.00040657227374573995,0,0,0,0,0,0,0,2396,5,neutral,4
21,0.3333333333333333,29.2574,0.0,44.12669252007085,0,0.10792286934708344,0.10792607941013654,0.10704566234845286,0.0006143482877689396,0,0,0,0,0,0,0,2397,5,neutral,4
22,0.3492063492063492,29.32207,0.0,43.86779924004771,0,0.10811775569746147,0.10812633348185366,0.10704617785677706,0.0008129427289111993,0,0,0,0,0,0,0,2398,5,neutral,4
23,0.36507936507936506,30.01285,0.0,43.61600663051467,0,0.10830133423304843,0.108315133250937,0.10704668965358229,0.001000085069903353,0,0,0,0,0,0,0,2399,5,neutral,4
24,0.38095238095238093,31.3287,0.0,43.37135813222356,0,0.10847171456540872,0.10849019907750573,0.10704719773394894,0.0011734956929728947,0,0,0,0,0,0,0,2400,5,neutral,4
25,0.3968253968253968,33.40092,0.0,43.1338950488772,0,0.10862700630610657,0.10864923825662945,0.1070477020936899,0.0013308819147210616,0,0,0,0,0,0,0,2401,5,neutral,4
26,0.4126984126984127,36.51115,0.0,42.903657032221176,0,0.1087653190667063,0.10878995261488578,0.10704820272945122,0.001469945582580459,0,0,0,0,0,0,0,2402,5,neutral,4
27,0.42857142857142855,40.90466,0.0,42.68068255302842,0,0.10888476245877227,0.10891005998037202,0.10704869963880351,0.0015884045447359366,0,0,0,0,0,0,0,2403,5,neutral,4
28,0.4444444444444444,46.65016,0.0,42.46500935927637,0,0.10898344609386874,0.10900733077518894,0.10704919282032262,0.0016840292425283202,0,0,0,0,0,0,0,2404,5,neutral,4
29,0.4603174603174603,53.4719,0.0,42.25667492286174,0,0.10905947958356002,0.10907963972565514,0.10704968227365853,0.0017546944206006903,0,0,0,0,0,0,0,2405,5,neutral,4
30,0.47619047619047616,60.82895,0.0,42.055716876238876,0,0.10911097253941043,0.10912503131032329,0.10705016799959091,0.001798444574859656,0,0,0,0,0,0,0,2406,5,neutral,4
31,0.49206349206349204,68.01777,1.9703507267724505,41.86217344040957,0,0.10913603457298426,0.10914179617003253,0.10705065000007022,0.001813570362487323,0,1,0,0,0,0,0,2407,5,neutral,4
32,0.5079365079365079,74.43365,8.39240028012113,41.676083845732954,0,0.10913277529584585,0.10912855440581005,0.1070511282782433,0.0017986918998179509,0,0,0,0,0,0,0,2408,5,neutral,4
33,0.5238095238095237,79.77893,13.9791879467583,41.4974887470667,0,0.10909930431955946,0.10908434061772192,0.10705160283846246,0.0017528438011803747,0,0,0,0,0,0,0,2409,5,neutral,4
34,0.5396825396825397,84.12625,18.765264086436595,41.326430634795535,0,0.10903373125568944,0.10900868481847437,0.1070520736862772,0.0016755560925082716,0,0,0,0,0,0,0,2410,5,neutral,4
35,0.5555555555555556,87.86918,23.094069181648603,41.16295424335125,0,0.10893416571580003,0.10890168310164428,0.10705254082840811,0.0015669248795972994,0,0,0,0,0,0,0,2411,5,neutral,4
36,0.5714285714285714,91.54629,27.501712744792023,41.00710695888142,0,0.10879886604771924,0.10876405223225633,0.10705300427270274,0.0014276669387272203,0,0,0,0,0,0,0,2412,5,neutral,4
37,0.5873015873015872,95.68183,32.527768710074845,40.85893922778254,0,0.10862920472520032,0.10859716317423282,0.1070534640280734,0.001259153244174464,0,0,0,0,0,0,0,2413,5,neutral,4
38,0.6031746031746031,100.6148,38.50950164122373,40.718504967878644,0,0.10842950687302311,0.1084030499114271,0.10705392010441739,0.0010634177893261054,0,0,0,0,0,0,0,2414,5,neutral,4
39,0.6190476190476191,106.4053,45.42667601639641,40.58586198410014,0,0.10820421402854707,0.10818439160706061,0.10705437251252038,0.0008431397462140625,0,0,0,0,0,0,0,2415,5,neutral,4
40,0.6349206349206349,112.7861,52.86020786549748,40.46107239060045,0,0.10795776772913161,0.10794446797200495,0.1070548212639443,0.0006015988339101373,0,0,0,0,0,0,0,2416,5,neutral,4
41,0.6507936507936507,119.1373,60.104989261856176,40.34420304134203,0,0.10769460951213622,0.10768708946287713,0.10705526637090103,0.00034260551674812655,0,0,0,0,0,0,0,2417,5,neutral,4
42,0.6666666666666666,124.6544,66.43131642925522,40.23532597128928,0,0.10741918091492031,0.1074165054431502,0.1070557078461139,7.040916557368352e-05,0,0,0,0,0,0,0,2418,5,neutral,4
43,0.6825396825396826,128.6741,71.42653470216106,40.134518850465824,0,0.10713592347484334,0.10713729462487322,0.10705614570266925,-0.00021041150038672088,0,0,0,0,0,1,0,2419,5,neutral,4
44,0.6984126984126984,131.1039,75.29153428004497,40.0418654532698,0,0.10684927872926478,0.10685424294146485,0.10705657995386045,-0.0004950705405753227,0,0,0,0,0,0,0,2420,5,neutral,4
45,0.7142857142857142,132.6843,78.94884536957802,39.95745614559399,0,0.10656368821554406,0.10657221450206317,0.10705701061302685,-0.0007787038385917317,0,0,0,0,0,0,0,2421,5,neutral,4
46,0.7301587301587301,134.9797,83.86496530986605,39.881388392471706,0,0.10628359347104065,0.10629602148171087,0.1070574376933906,-0.0010564992118437234,0,0,0,0,0,0,0,2422,5,neutral,4
47,0.746031746031746,139.8713,91.59512319229101,39.81376728916507,0,0.10601343603311396,0.10603029874483784,0.1070578612078941,-0.0013238217879014778,0,0,0,0,0,0,0,2423,5,neutral,4
48,0.7619047619047619,148.8206,103.18470711673842,39.75470611883411,0,0.10575765743912344,0.10577938870461803,0.10705828116904068,-0.0015763291449807364,0,0,0,0,0,0,0,2424,5,neutral,4
49,0.7777777777777777,162.1203,118.64860167072987,39.70432694017507,0,0.10552069922642857,0.10554724139269937,0.10705869758874136,-0.001810071242058938,0,0,0,0,0,0,0,2425,5,neutral,4
50,0.7936507936507936,178.5119,136.7484188678452,39.662761208698555,0,0.10530700293238879,0.10533733394256073,0.10705911047817003,-0.0020215709353727683,0,0,0,0,0,0,0,2426,5,neutral,4
51,0.8095238095238095,195.4238,155.18754694676335,39.63015043563638,0,0.10512101009436355,0.10515261266056791,0.10705951984762947,-0.0022078819072274365,0,0,0,0,0,0,0,2427,5,neutral,4
52,0.8253968253968254,209.6363,171.18280183114686,39.60664688882597,0,0.10496708178452337,0.10499545956874012,0.10705992570643004,-0.0023666221231083604,0,0,0,0,0,0,0,2428,5,neutral,4
53,0.8412698412698412,218.2825,182.21900426686645,39.59241434032645,0,0.10484713138340988,0.10486768378287019,0.10706032806278294,-0.0024959824534533663,0,0,0,0,0,0,0,2429,5,neutral,4
54,0.8571428571428571,219.6369,186.71761691396918,39.58762886597938,1,0.10476023828353702,0.10477053642432035,0.10706072692370926,-0.0025947117617653274,0,0,0,0,0,0,0,2430,5,neutral,4
55,0.873015873015873,213.5986,184.3872801831279,39.59142015701346,0,0.10470532363250078,0.10470474610161976,0.10706112229496588,-0.002662081422939877,0,0,0,0,0,0,0,2431,5,neutral,4
56,0.8888888888888888,201.4859,176.15666065515623,39.602667567029066,0,0.10468130857789722,0.10467057052978739,0.10706151418098905,-0.0026978337038853785,0,0,0,0,0,0,0,2432,5,neutral,4
57,0.9047619047619047,185.4766,163.7587372686507,39.62118739389044,0,0.10468711426732234,0.10466785876829647,0.10706190258485605,-0.002702119525519524,1,0,0,0,0,0,0,2433,5,neutral,4
58,0.9206349206349206,167.8137,149.1646363094703,39.646803374204026,0,0.10472166184837223,0.10469611798735838,0.10706228750826513,-0.002675431696464571,0,0,0,0,0,0,0,2434,5,neutral,4
59,0.9365079365079365,150.1742,134.0980107657373,39.67934602447844,0,0.10478387246864286,0.10475457867308752,0.10706266895153348,-0.002618539707879828,0,0,0,0,0,0,0,2435,5,neutral,4
60,0.9523809523809523,133.4338,119.7876845015672,39.71865201547979,0,0.1048726672757303,0.1048422527355834,0.10706304691361322,-0.002532431625394926,0,0,0,0,0,0,0,2436,5,neutral,4
61,0.9682539682539681,117.8293,106.9783898081459,39.76456357648432,0,0.10498696741723057,0.10495798001194703,0.10706342139212488,-0.0024182675861261138,0,0,0,0,0,0,0,2437,5,neutral,4
62,0.9841269841269841,103.4527,96.09026804806837,39.81692792642717,0,0.10512569404073968,0.10510046004172971,0.1070637923834077,-0.0022773480232771643,0,0,0,0,0,0,0,2438,5,neutral,4
63,1.0,90.55719,87.36514383843387,39.87559672921491,0,0.10528776829385372,0.10526826759634078,0.10706415988258625,-0.002111098136797447,0,0,0,0,0,0,0,2439,5,neutral,4
