timestamp,value,norm_ts
1618824359.25306,21.34941,1.095060110092163
1618824359.26868,15.92558,1.110680103302002
1618824359.28431,10.07333,1.126310110092163
1618824359.29993,3.963272,1.141930103302002
1618824359.31556,-2.320801,1.157560110092163
1618824359.33119,-8.74575,1.1731901168823242
1618824359.34681,-15.27319,1.188810110092163
1618824359.36244,-21.80772,1.2044401168823242
1618824359.37806,-28.24258,1.220060110092163
1618824359.39369,-34.58618,1.2356901168823242
1618824359.40931,-41.04881,1.251310110092163
1618824359.42494,-48.00307,1.2669401168823242
1618824359.44057,-55.89653,1.2825701236724854
1618824359.45619,-64.91476,1.2981901168823242
1618824359.47182,-74.7861,1.3138201236724854
1618824359.48744,-84.657,1.3294401168823242
1618824359.50307,-93.19591,1.3450701236724854
1618824359.51869,-98.88469,1.3606901168823242
1618824359.53432,-100.3851,1.3763201236724854
1618824359.54995,-96.85794,1.3919498920440674
1618824359.56557,-88.12354,1.4075701236724854
1618824359.5812,-74.67972,1.4231998920440674
1618824359.59682,-57.54701,1.4388201236724854
1618824359.61245,-38.07532,1.4544498920440674
1618824359.62807,-17.73671,1.4700701236724854
1618824359.6437,2.105164,1.4856998920440674
1618824359.65933,20.35049,1.5013298988342285
1618824359.67495,36.28362,1.5169498920440674
1618824359.69058,49.54254,1.5325798988342285
1618824359.7062,60.07172,1.5481998920440674
1618824359.72183,67.96466,1.5638298988342285
1618824359.73745,73.42513,1.5794498920440674
1618824359.75308,76.73367,1.5950798988342285
1618824359.76871,78.25293,1.6107099056243896
1618824359.78433,78.44733,1.6263298988342285
1618824359.79996,77.80792,1.6419599056243896
1618824359.81558,76.76352,1.6575798988342285
1618824359.83121,75.59976,1.6732099056243896
1618824359.84683,74.46167,1.6888298988342285
1618824359.86246,73.39069,1.7044599056243896
1618824359.87809,72.4108,1.7200899124145508
1618824359.89371,71.57077,1.7357099056243896
1618824359.90934,70.90103,1.7513399124145508
1618824359.92496,70.33936,1.7669599056243896
1618824359.94059,69.707,1.7825899124145508
1618824359.95621,68.72165,1.7982099056243896
1618824359.97184,67.09357,1.8138399124145508
1618824359.98747,64.64978,1.829469919204712
1618824360.00309,61.35245,1.8450899124145508
1618824360.01872,57.27994,1.860719919204712
1618824360.03434,52.58191,1.8763399124145508
1618824360.04997,47.43015,1.891969919204712
1618824360.06559,41.96872,1.9075899124145508
1618824360.08122,36.36572,1.923219919204712
1618824360.09685,30.77228,1.938849925994873
1618824360.11247,25.30206,1.954469919204712
1618824360.1281,19.95697,1.970099925994873
1618824360.14372,14.60638,1.985719919204712
1618824360.15935,9.006134,2.001349925994873
1618824360.17497,2.934845,2.016969919204712
1618824360.1906,-3.702515,2.032599925994873
1618824360.20623,-10.81125,2.048229932785034
1618824360.22185,-18.08228,2.063849925994873
1618824360.23748,-25.15704,2.079479932785034
1618824360.2531,-31.74954,2.095099925994873
1618824360.26873,-37.77695,2.110729932785034
1618824360.28435,-43.46048,2.126349925994873
1618824360.29998,-49.26718,2.141979932785034
1618824360.31561,-55.76035,2.1576099395751953
1618824360.33123,-63.39145,2.173229932785034
1618824360.34686,-72.25024,2.1888599395751953
1618824360.36248,-81.83997,2.204479932785034
1618824360.37811,-91.10687,2.2201099395751953
1618824360.39373,-98.56149,2.235729932785034
1618824360.40936,-102.6423,2.2513599395751953
1618824360.42499,-102.1122,2.2669899463653564
1618824360.44061,-96.37372,2.2826099395751953
1618824360.45624,-85.60147,2.2982399463653564
1618824360.47186,-70.65753,2.3138599395751953
1618824360.48749,-52.85736,2.3294899463653564
1618824360.50311,-33.64557,2.3451099395751953
1618824360.51874,-14.41379,2.3607399463653564
1618824360.53437,3.671509,2.3763699531555176
1618824360.54999,19.74783,2.3919899463653564
1618824360.56562,33.27551,2.4076199531555176
1618824360.58124,44.03949,2.4232399463653564
1618824360.59687,52.11246,2.4388699531555176
1618824360.61249,57.75632,2.4544899463653564
1618824360.62812,61.30389,2.4701199531555176
1618824360.64375,63.1221,2.4857499599456787
1618824360.65937,63.5426,2.5013699531555176
1618824360.675,62.92148,2.5169999599456787
1618824360.69062,61.61676,2.5326199531555176
1618824360.70625,59.98877,2.5482499599456787
1618824360.72187,58.35492,2.5638699531555176
1618824360.7375,56.92789,2.5794999599456787
1618824360.75313,55.83789,2.59512996673584
1618824360.76875,55.13699,2.6107499599456787
1618824360.78438,54.87848,2.62637996673584
1618824360.8,55.08618,2.6419999599456787
1618824360.81563,55.69708,2.65762996673584
1618824360.83125,56.50647,2.6732499599456787
1618824360.84688,57.15906,2.68887996673584
1618824360.86251,57.23383,2.704509973526001
1618824360.87813,56.39279,2.72012996673584
1618824360.89376,54.5206,2.735759973526001
1618824360.90938,51.72784,2.75137996673584
1618824360.92501,48.28506,2.767009973526001
1618824360.94064,44.50317,2.782639980316162
1618824360.95626,40.61737,2.798259973526001
1618824360.97189,36.73251,2.813889980316162
1618824360.98751,32.82785,2.829509973526001
1618824361.00314,28.78714,2.845139980316162
1618824361.01876,24.45676,2.860759973526001
1618824361.03439,19.72418,2.876389980316162
1618824361.05002,14.53317,2.8920199871063232
1618824361.06564,8.941437,2.907639980316162
1618824361.08127,3.100403,2.9232699871063232
1618824361.09689,-2.783173,2.938889980316162
1618824361.11252,-8.540588,2.9545199871063232
1618824361.12814,-14.04391,2.970139980316162
1618824361.14377,-19.23648,2.9857699871063232
1618824361.1594,-24.1525,3.0013999938964844
1618824361.17502,-28.88263,3.0170199871063232
1618824361.19065,-33.66513,3.0326499938964844
1618824361.20627,-38.85297,3.0482699871063232
1618824361.2219,-44.8717,3.0638999938964844
1618824361.23752,-52.00415,3.0795199871063232
1618824361.25315,-60.19464,3.0951499938964844
1618824361.26878,-68.86069,3.1107800006866455
1618824361.2844,-76.94797,3.1263999938964844
1618824361.30003,-83.16388,3.1420300006866455
1618824361.31565,-86.29187,3.1576499938964844
1618824361.33128,-85.45444,3.1732800006866455
1618824361.3469,-80.2803,3.1888999938964844
1618824361.36253,-70.93079,3.2045300006866455
1618824361.37816,-58.0553,3.2201600074768066
1618824361.39378,-42.69336,3.2357800006866455
1618824361.40941,-26.12646,3.2514100074768066
1618824361.42503,-9.678802,3.2670300006866455
1618824361.44066,5.485901,3.2826600074768066
1618824361.45628,18.60184,3.2982800006866455
1618824361.47191,29.33252,3.3139100074768066
1618824361.48754,37.73669,3.3295400142669678
1618824361.50316,44.07053,3.3451600074768066
1618824361.51879,48.6333,3.3607900142669678
1618824361.53441,51.66641,3.3764100074768066
1618824361.55004,53.39001,3.3920400142669678
1618824361.56566,54.02527,3.4076600074768066
1618824361.58129,53.88129,3.4232900142669678
1618824361.59692,53.30685,3.438920021057129
1618824361.61254,52.62836,3.4545400142669678
1618824361.62817,52.08774,3.470170021057129
1618824361.64379,51.81326,3.4857900142669678
1618824361.65942,51.84393,3.501420021057129
1618824361.67504,52.14755,3.5170400142669678
1618824361.69067,52.63406,3.532670021057129
1618824361.7063,53.16586,3.54830002784729
1618824361.72192,53.54111,3.563920021057129
1618824361.73755,53.53149,3.57955002784729
1618824361.75317,52.93954,3.595170021057129
1618824361.7688,51.67957,3.61080002784729
1618824361.78442,49.77786,3.626420021057129
1618824361.80005,47.35361,3.64205002784729
1618824361.81568,44.52078,3.657680034637451
1618824361.8313,41.34393,3.67330002784729
1618824361.84693,37.79269,3.688930034637451
1618824361.86255,33.83414,3.70455002784729
1618824361.87818,29.50137,3.720180034637451
1618824361.8938,24.94196,3.73580002784729
1618824361.90943,20.37762,3.751430034637451
1618824361.92506,16.01715,3.7670600414276123
1618824361.94068,11.93176,3.782680034637451
1618824361.95631,8.018097,3.7983100414276123
1618824361.97193,4.100464,3.813930034637451
1618824361.98756,0.01577759,3.8295600414276123
1618824362.00318,-4.27301,3.845180034637451
1618824362.01881,-8.683594,3.8608100414276123
1618824362.03444,-13.07516,3.8764400482177734
1618824362.05006,-17.38019,3.8920600414276123
1618824362.06569,-21.59988,3.9076900482177734
1618824362.08131,-25.8194,3.9233100414276123
1618824362.09694,-30.09299,3.9389400482177734
1618824362.11256,-34.44281,3.9545600414276123
1618824362.12819,-38.86774,3.9701900482177734
1618824362.14382,-43.47397,3.9858200550079346
1618824362.15944,-48.49579,4.001440048217773
1618824362.17507,-54.15689,4.017070055007935
1618824362.19069,-60.4668,4.032690048217773
1618824362.20632,-66.96393,4.048320055007935
1618824362.22194,-72.69427,4.063940048217773
1618824362.23757,-76.42822,4.079570055007935
1618824362.2532,-77.05252,4.095200061798096
1618824362.26882,-73.9642,4.110820055007935
1618824362.28445,-67.19955,4.126450061798096
1618824362.30007,-57.36862,4.142070055007935
1618824362.3157,-45.36792,4.157700061798096
1618824362.33132,-32.1087,4.173320055007935
1618824362.34695,-18.4093,4.188950061798096
1618824362.36258,-4.952789,4.204580068588257
1618824362.3782,7.638977,4.220200061798096
1618824362.39383,18.82587,4.235830068588257
1618824362.40945,28.20053,4.251450061798096
1618824362.42508,35.5994,4.267080068588257
1618824362.4407,41.10007,4.282700061798096
1618824362.45633,44.95483,4.298330068588257
1618824362.47196,47.48856,4.313960075378418
1618824362.48758,48.97119,4.329580068588257
1618824362.50321,49.65112,4.345210075378418
1618824362.51883,49.73993,4.360830068588257
1618824362.53446,49.43512,4.376460075378418
1618824362.55008,48.90237,4.392080068588257
1618824362.56571,48.29047,4.407710075378418
1618824362.58134,47.71289,4.423340082168579
1618824362.59696,47.29636,4.438960075378418
1618824362.61259,47.12451,4.454590082168579
1618824362.62821,47.24182,4.470210075378418
1618824362.64384,47.60883,4.485840082168579
1618824362.65946,48.0477,4.501460075378418
1618824362.67509,48.31561,4.517090082168579
1618824362.69072,48.18176,4.53272008895874
1618824362.70634,47.52982,4.548340082168579
1618824362.72197,46.39719,4.56397008895874
1618824362.73759,44.96109,4.579590082168579
1618824362.75322,43.41733,4.59522008895874
1618824362.76884,41.88745,4.610840082168579
1618824362.78447,40.38223,4.62647008895874
1618824362.8001,38.75537,4.642100095748901
1618824362.81572,36.8432,4.65772008895874
1618824362.83135,34.54483,4.673350095748901
1618824362.84697,31.89569,4.68897008895874
1618824362.8626,29.12921,4.704600095748901
1618824362.87822,26.58673,4.72022008895874
1618824362.89385,24.59531,4.735850095748901
1618824362.90948,23.32883,4.7514801025390625
1618824362.9251,22.6987,4.767100095748901
1618824362.94073,22.36261,4.7827301025390625
1618824362.95635,21.83456,4.798350095748901
1618824362.97198,20.6846,4.8139801025390625
1618824362.9876,18.75891,4.829600095748901
1618824363.00323,16.27789,4.8452301025390625
1618824363.01886,13.81482,4.860860109329224
1618824363.03448,12.06111,4.8764801025390625
1618824363.05011,11.50716,4.892110109329224
1618824363.06573,12.17245,4.9077301025390625
1618824363.08136,13.43353,4.923360109329224
1618824363.09699,14.10522,4.938990116119385
1618824363.11261,12.79289,4.954610109329224
1618824363.12824,8.322113,4.970240116119385
1618824363.14386,0.1725464,4.985860109329224
1618824363.15949,-11.23331,5.001490116119385
1618824363.17511,-24.53853,5.017110109329224
1618824363.19074,-37.67014,5.032740116119385
1618824363.20637,-48.26865,5.048370122909546
1618824363.22199,-54.27582,5.063990116119385
1618824363.23762,-54.56174,5.079620122909546
1618824363.25324,-49.45605,5.095240116119385
1618824363.26887,-41.02328,5.110870122909546
1618824363.28449,-32.67281,5.126490116119385
1618824363.30012,-28.23451,5.142120122909546
1618824363.31575,-30.57838,5.157749891281128
1618824363.33137,-40.47498,5.173370122909546
1618824363.347,-56.18765,5.188999891281128
1618824363.36262,-74.10233,5.204620122909546
1618824363.37825,-90.09602,5.220249891281128
1618824363.39387,-101.0589,5.235870122909546
1618824363.4095,-105.8512,5.251499891281128
1618824363.42513,-105.2813,5.267129898071289
1618824363.44075,-101.321,5.282749891281128
1618824363.45638,-96.03719,5.298379898071289
1618824363.472,-90.87163,5.313999891281128
1618824363.48763,-86.42973,5.329629898071289
1618824363.50325,-82.82305,5.345249891281128
1618824363.51888,-79.97231,5.360879898071289
1618824363.53451,-77.76966,5.37650990486145
1618824363.55013,-76.00099,5.392129898071289
1618824363.56576,-74.13251,5.40775990486145
1618824363.58138,-71.38262,5.423379898071289
1618824363.59701,-67.01565,5.43900990486145
1618824363.61263,-60.76192,5.454629898071289
1618824363.62826,-53.10178,5.47025990486145
1618824363.64389,-45.24279,5.485889911651611
1618824363.65951,-38.66651,5.50150990486145
1618824363.67514,-34.51736,5.517139911651611
1618824363.69076,-33.11729,5.53275990486145
1618824363.70639,-33.78876,5.548389911651611
1618824363.72201,-35.11555,5.56400990486145
1618824363.73764,-35.50887,5.579639911651611
1618824363.75327,-33.80995,5.5952699184417725
1618824363.76889,-29.59618,5.610889911651611
1618824363.78452,-23.166,5.6265199184417725
1618824363.80014,-15.11694,5.642139911651611
1618824363.81577,-5.944077,5.6577699184417725
1618824363.83139,4.167892,5.673389911651611
1618824363.84702,15.20103,5.6890199184417725
1618824363.86265,26.9326,5.704649925231934
1618824363.87827,38.71555,5.7202699184417725
1618824363.8939,49.5437,5.735899925231934
1618824363.90952,58.5086,5.7515199184417725
1618824363.92515,65.25663,5.767149925231934
1618824363.94077,70.18032,5.7827699184417725
1618824363.9564,74.16915,5.798399925231934
1618824363.97203,78.04913,5.814029932022095
1618824363.98765,82.16224,5.829649925231934
1618824364.00328,86.2452,5.845279932022095
1618824364.0189,89.81693,5.860899925231934
1618824364.03453,92.63387,5.876529932022095
1618824364.05015,94.95602,5.892149925231934
1618824364.06578,97.3728,5.907779932022095
1618824364.08141,100.3284,5.923409938812256
1618824364.09703,103.7736,5.939029932022095
1618824364.11266,107.1525,5.954659938812256
1618824364.12828,109.7575,5.970279932022095
1618824364.14391,111.2108,5.985909938812256
1618824364.15953,111.7246,6.001529932022095
1618824364.17516,111.9977,6.017159938812256
1618824364.19079,112.7965,6.032789945602417
1618824364.20641,114.5454,6.048409938812256
1618824364.22204,117.0907,6.064039945602417
1618824364.23766,119.8015,6.079659938812256
1618824364.25329,121.7956,6.095289945602417
1618824364.26891,122.2437,6.110909938812256
1618824364.28454,120.5934,6.126539945602417
1618824364.30017,116.6357,6.142169952392578
1618824364.31579,110.5314,6.157789945602417
1618824364.33142,102.7045,6.173419952392578
1618824364.34704,93.7778,6.189039945602417
1618824364.36267,84.40468,6.204669952392578
1618824364.37829,75.18646,6.220289945602417
1618824364.39392,66.53645,6.235919952392578
1618824364.40955,58.60839,6.251549959182739
1618824364.42517,51.28346,6.267169952392578
1618824364.4408,44.16681,6.282799959182739
1618824364.45642,36.71569,6.298419952392578
1618824364.47205,28.41761,6.314049959182739
1618824364.48767,19.03223,6.329669952392578
1618824364.5033,8.717911,6.345299959182739
1618824364.51893,-1.958466,6.3609299659729
1618824364.53455,-12.21393,6.376549959182739
1618824364.55018,-21.33552,6.3921799659729
1618824364.5658,-28.91776,6.407799959182739
1618824364.58143,-34.93353,6.4234299659729
1618824364.59705,-39.60031,6.439049959182739
1618824364.61268,-43.1804,6.4546799659729
1618824364.62831,-45.78329,6.4703099727630615
1618824364.64393,-47.36963,6.4859299659729
1618824364.65956,-47.86047,6.5015599727630615
1618824364.67518,-47.2955,6.5171799659729
1618824364.69081,-45.92365,6.5328099727630615
1618824364.70643,-44.17108,6.5484299659729
1618824364.72206,-42.54175,6.5640599727630615
1618824364.73769,-41.44455,6.579689979553223
1618824364.75331,-41.12376,6.5953099727630615
1618824364.76894,-41.56195,6.610939979553223
1618824364.78456,-42.47881,6.6265599727630615
1618824364.80019,-43.36731,6.642189979553223
1618824364.81581,-43.61987,6.6578099727630615
1618824364.83144,-42.72943,6.673439979553223
1618824364.84707,-40.44421,6.689069986343384
1618824364.86269,-36.88824,6.704689979553223
1618824364.87832,-32.46704,6.720319986343384
1618824364.89394,-27.68561,6.735939979553223
1618824364.90957,-22.97714,6.751569986343384
1618824364.92519,-18.55191,6.767189979553223
1618824364.94082,-14.45178,6.782819986343384
1618824364.95645,-10.6196,6.798449993133545
1618824364.97207,-7.004761,6.814069986343384
1618824364.9877,-3.611633,6.829699993133545
1618824365.00332,-0.4368591,6.845319986343384
1618824365.01895,2.569092,6.860949993133545
1618824365.03457,5.439728,6.876569986343384
1618824365.0502,8.122192,6.892199993133545
1618824365.06583,10.37753,6.907829999923706
1618824365.08145,11.76993,6.923449993133545
1618824365.09708,11.8421,6.939079999923706
1618824365.1127,10.35443,6.954699993133545
1618824365.12833,7.571198,6.970329999923706
1618824365.14395,4.297791,6.985949993133545
1618824365.15958,1.654297,7.001579999923706
1618824365.17521,0.6528931,7.017210006713867
1618824365.19083,1.715149,7.032829999923706
1618824365.20646,4.503113,7.048460006713867
1618824365.22208,8.07373,7.064079999923706
1618824365.23771,11.34924,7.079710006713867
1618824365.25333,13.57831,7.095329999923706
1618824365.26896,14.59247,7.110960006713867
1618824365.28459,14.72852,7.126590013504028
1618824365.30021,14.43829,7.142210006713867
1618824365.31584,13.95898,7.157840013504028
1618824365.33146,13.2207,7.173460006713867
1618824365.34709,12.0412,7.189090013504028
1618824365.36272,10.44745,7.2047200202941895
1618824365.37834,8.948486,7.220340013504028
1618824365.39397,8.418518,7.2359700202941895
1618824365.40959,9.809448,7.251590013504028
1618824365.42522,13.67651,7.2672200202941895
1618824365.44084,19.95691,7.282840013504028
1618824365.45647,27.97052,7.2984700202941895
1618824365.4721,36.70367,7.314100027084351
1618824365.48772,45.15198,7.3297200202941895
1618824365.50335,52.58179,7.345350027084351
1618824365.51897,58.66266,7.3609700202941895
1618824365.5346,63.33478,7.376600027084351
1618824365.55022,66.66211,7.3922200202941895
1618824365.56585,68.68854,7.407850027084351
1618824365.58148,69.3587,7.423480033874512
1618824365.5971,68.52393,7.439100027084351
1618824365.61273,65.98041,7.454730033874512
1618824365.62835,61.5567,7.470350027084351
1618824365.64398,55.17871,7.485980033874512
1618824365.6596,46.99432,7.501600027084351
1618824365.67523,37.43707,7.517230033874512
1618824365.69086,27.19507,7.532860040664673
1618824365.70648,17.0744,7.548480033874512
1618824365.72211,7.764587,7.564110040664673
1618824365.73773,-0.4545898,7.579730033874512
1618824365.75336,-7.815735,7.595360040664673
1618824365.76898,-14.98206,7.610980033874512
1618824365.78461,-22.69202,7.626610040664673
1618824365.80024,-31.37732,7.642240047454834
1618824365.81586,-40.91309,7.657860040664673
1618824365.83149,-50.6806,7.673490047454834
1618824365.84711,-59.8136,7.689110040664673
1618824365.86274,-67.63013,7.704740047454834
1618824365.87836,-73.79773,7.720360040664673
1618824365.89399,-78.38818,7.735990047454834
1618824365.90962,-81.68518,7.751620054244995
1618824365.92524,-84.03772,7.767240047454834
1618824365.94087,-85.74487,7.782870054244995
1618824365.95649,-87.04565,7.798490047454834
1618824365.97212,-88.12317,7.814120054244995
1618824365.98774,-89.11145,7.829740047454834
1618824366.00337,-90.05273,7.845370054244995
1618824366.019,-90.83276,7.861000061035156
1618824366.03462,-91.19739,7.876620054244995
1618824366.05025,-90.84387,7.892250061035156
1618824366.06587,-89.52856,7.907870054244995
1618824366.0815,-87.16382,7.923500061035156
1618824366.09712,-83.82898,7.939120054244995
1618824366.11275,-79.73877,7.954750061035156
1618824366.12838,-75.1626,7.970380067825317
1618824366.144,-70.34827,7.986000061035156
1618824366.15963,-65.46863,8.001630067825317
1618824366.17525,-60.59802,8.017250061035156
1618824366.19088,-55.72595,8.032880067825317
1618824366.2065,-50.83997,8.048500061035156
1618824366.22213,-45.9801,8.064130067825317
1618824366.23776,-41.28455,8.079760074615479
1618824366.25338,-36.98706,8.095380067825317
1618824366.26901,-33.33704,8.111010074615479
1618824366.28463,-30.50647,8.126630067825317
1618824366.30026,-28.50293,8.142260074615479
1618824366.31588,-27.22681,8.157880067825317
1618824366.33151,-26.51709,8.173510074615479
1618824366.34714,-26.25793,8.18914008140564
1618824366.36276,-26.42371,8.204760074615479
1618824366.37839,-27.03503,8.22039008140564
1618824366.39401,-28.09192,8.236010074615479
1618824366.40964,-29.53735,8.25164008140564
1618824366.42526,-31.2124,8.267260074615479
1618824366.44089,-32.95984,8.28289008140564
1618824366.45652,-34.69006,8.2985200881958
1618824366.47214,-36.43628,8.31414008140564
1618824366.48777,-38.29468,8.3297700881958
1618824366.50339,-40.31287,8.34539008140564
1618824366.51902,-42.34277,8.3610200881958
1618824366.53464,-44.01721,8.37664008140564
1618824366.55027,-44.89099,8.3922700881958
1618824366.5659,-44.58691,8.407900094985962
1618824366.58152,-43.02441,8.4235200881958
1618824366.59715,-40.47034,8.439150094985962
1618824366.61277,-37.41455,8.4547700881958
1618824366.6284,-34.37561,8.470400094985962
1618824366.64402,-31.698,8.4860200881958
1618824366.65965,-29.45898,8.501650094985962
1618824366.67528,-27.52649,8.517280101776123
1618824366.6909,-25.71045,8.532900094985962
1618824366.70653,-23.89526,8.548530101776123
1618824366.72215,-22.09985,8.564150094985962
1618824366.73778,-20.46033,8.579780101776123
1618824366.7534,-19.09717,8.595400094985962
1618824366.76903,-18.04443,8.611030101776123
1618824366.78466,-17.22168,8.626660108566284
1618824366.80028,-16.42554,8.642280101776123
1618824366.81591,-15.46545,8.657910108566284
1618824366.83153,-14.19324,8.673530101776123
1618824366.84716,-12.5929,8.689160108566284
1618824366.86278,-10.76709,8.704780101776123
1618824366.87841,-8.902954,8.720410108566284
1618824366.89404,-7.177612,8.736040115356445
1618824366.90966,-5.689697,8.751660108566284
1618824366.92529,-4.459595,8.767290115356445
1618824366.94091,-3.456909,8.782910108566284
1618824366.95654,-2.607178,8.798540115356445
1618824366.97216,-1.884033,8.814160108566284
1618824366.98779,-1.325684,8.829790115356445
1618824367.00342,-1.014771,8.845420122146606
1618824367.01904,-1.052368,8.861040115356445
1618824367.03467,-1.528076,8.876670122146606
1618824367.05029,-2.471069,8.892290115356445
1618824367.06592,-3.848877,8.907920122146606
1618824367.08154,-5.516968,8.923540115356445
1618824367.09717,-7.304688,8.939170122146606
1618824367.1128,-9.020996,8.954799890518188
1618824367.12842,-10.54114,8.970420122146606
1618824367.14405,-11.8949,8.986049890518188
1618824367.15967,-13.22412,9.001670122146606
1618824367.1753,-14.76306,9.017299890518188
1618824367.19092,-16.72974,9.032920122146606
1618824367.20655,-19.22485,9.048549890518188
1618824367.22218,-22.11963,9.06417989730835
1618824367.2378,-25.06531,9.079799890518188
1618824367.25343,-27.51831,9.09542989730835
1618824367.26905,-28.89209,9.111049890518188
1618824367.28468,-28.74023,9.12667989730835
1618824367.3003,-26.88171,9.142299890518188
1618824367.31593,-23.48499,9.15792989730835
1618824367.33156,-18.98816,9.17355990409851
1618824367.34718,-14.01025,9.18917989730835
1618824367.36281,-9.140137,9.20480990409851
1618824367.37843,-4.84082,9.22042989730835
1618824367.39406,-1.388794,9.23605990409851
1618824367.40968,1.108032,9.25167989730835
1618824367.42531,2.617554,9.26730990409851
1618824367.44094,3.097656,9.282939910888672
1618824367.45656,2.510986,9.29855990409851
1618824367.47219,0.8640137,9.314189910888672
1618824367.48781,-1.722046,9.32980990409851
1618824367.50344,-4.939331,9.345439910888672
1618824367.51906,-8.341919,9.36105990409851
1618824367.53469,-11.45496,9.376689910888672
1618824367.55032,-13.94409,9.392319917678833
1618824367.56594,-15.70435,9.407939910888672
1618824367.58157,-16.85388,9.423569917678833
1618824367.59719,-17.61304,9.439189910888672
1618824367.61282,-18.13171,9.454819917678833
1618824367.62844,-18.40234,9.470439910888672
1618824367.64407,-18.27356,9.486069917678833
1618824367.6597,-17.59302,9.501699924468994
1618824367.67532,-16.34143,9.517319917678833
1618824367.69095,-14.67224,9.532949924468994
1618824367.70657,-12.83801,9.548569917678833
1618824367.7222,-11.01868,9.564199924468994
1618824367.73782,-9.220825,9.579819917678833
1618824367.75345,-7.323486,9.595449924468994
1618824367.76908,-5.175171,9.611079931259155
1618824367.7847,-2.755859,9.626699924468994
1618824367.80033,-0.2764893,9.642329931259155
1618824367.81595,1.916016,9.657949924468994
1618824367.83158,3.500977,9.673579931259155
1618824367.8472,4.300903,9.689199924468994
1618824367.86283,4.369629,9.704829931259155
1618824367.87846,3.907227,9.720459938049316
1618824367.89408,3.160156,9.736079931259155
1618824367.90971,2.359741,9.751709938049316
1618824367.92533,1.667725,9.767329931259155
1618824367.94096,1.235718,9.782959938049316
1618824367.95659,1.198975,9.798589944839478
1618824367.97221,1.666992,9.814209938049316
1618824367.98784,2.611328,9.829839944839478
1618824368.00346,3.869263,9.845459938049316
1618824368.01909,5.13147,9.861089944839478
1618824368.03471,6.047363,9.876709938049316
1618824368.05034,6.307007,9.892339944839478
1618824368.06597,5.702393,9.907969951629639
1618824368.08159,4.185303,9.923589944839478
1618824368.09722,1.803955,9.939219951629639
1618824368.11284,-1.255737,9.954839944839478
1618824368.12847,-4.713501,9.970469951629639
1618824368.14409,-8.234253,9.986089944839478
1618824368.15972,-11.4845,10.001719951629639
1618824368.17535,-14.2572,10.0173499584198
1618824368.19097,-16.56213,10.032969951629639
1618824368.2066,-18.67163,10.0485999584198
1618824368.22222,-20.99512,10.064219951629639
1618824368.23785,-23.92285,10.0798499584198
1618824368.25347,-27.59229,10.095469951629639
1618824368.2691,-31.77795,10.1110999584198
1618824368.28473,-35.87891,10.126729965209961
1618824368.30035,-39.03955,10.1423499584198
1618824368.31598,-40.38928,10.157979965209961
1618824368.3316,-39.23218,10.1735999584198
1618824368.34723,-35.22827,10.189229965209961
1618824368.36285,-28.46008,10.2048499584198
1618824368.37848,-19.43335,10.220479965209961
1618824368.39411,-9.006348,10.236109972000122
1618824368.40973,1.768433,10.251729965209961
1618824368.42536,11.823,10.267359972000122
1618824368.44098,20.26648,10.282979965209961
1618824368.45661,26.5542,10.298609972000122
1618824368.47223,30.54382,10.314229965209961
1618824368.48786,32.46252,10.329859972000122
1618824368.50349,32.75842,10.345489978790283
1618824368.51911,31.94458,10.361109972000122
1618824368.53474,30.47461,10.376739978790283
1618824368.55036,28.66711,10.392359972000122
1618824368.56599,26.73804,10.407989978790283
1618824368.58161,24.8551,10.423609972000122
1618824368.59724,23.13342,10.439239978790283
1618824368.61287,21.63245,10.454869985580444
1618824368.62849,20.32141,10.470489978790283
1618824368.64412,19.08704,10.486119985580444
1618824368.65974,17.81995,10.501739978790283
1618824368.67537,16.50244,10.517369985580444
1618824368.69099,15.24121,10.532989978790283
1618824368.70662,14.22986,10.548619985580444
1618824368.72225,13.6405,10.564249992370605
1618824368.73787,13.53809,10.579869985580444
1618824368.7535,13.81641,10.595499992370605
1618824368.76912,14.2323,10.611119985580444
1618824368.78475,14.46289,10.626749992370605
1618824368.80037,14.17053,10.642369985580444
1618824368.816,13.05652,10.657999992370605
1618824368.83163,10.94861,10.673629999160767
1618824368.84725,7.867065,10.689249992370605
1618824368.86288,4.070801,10.704879999160767
1618824368.8785,0.01257324,10.720499992370605
1618824368.89413,-3.799194,10.736129999160767
1618824368.90975,-7.028076,10.751749992370605
1618824368.92538,-9.640381,10.767379999160767
1618824368.94101,-11.92822,10.783010005950928
1618824368.95663,-14.35083,10.798629999160767
1618824368.97226,-17.29236,10.814260005950928
1618824368.98788,-20.84741,10.829879999160767
1618824369.00351,-24.77258,10.845510005950928
1618824369.01913,-28.65051,10.861129999160767
1618824369.03476,-32.0426,10.876760005950928
1618824369.05039,-34.74133,10.892390012741089
1618824369.06601,-36.85449,10.908010005950928
1618824369.08164,-38.75781,10.923640012741089
1618824369.09726,-41.01465,10.939260005950928
1618824369.11289,-44.20203,10.954890012741089
1618824369.12851,-48.70569,10.970510005950928
1618824369.14414,-54.46069,10.986140012741089
1618824369.15977,-60.74365,11.00177001953125
1618824369.17539,-66.104,11.017390012741089
1618824369.19102,-68.64148,11.03302001953125
1618824369.20664,-66.52014,11.048640012741089
1618824369.22227,-58.64856,11.06427001953125
1618824369.23789,-45.14087,11.079890012741089
1618824369.25352,-27.39502,11.09552001953125
1618824369.26915,-7.665283,11.111150026321411
1618824369.28477,11.58173,11.12677001953125
1618824369.3004,28.35052,11.142400026321411
1618824369.31602,41.45441,11.15802001953125
1618824369.33165,50.53699,11.173650026321411
1618824369.34727,55.82135,11.18927001953125
1618824369.3629,57.83215,11.204900026321411
1618824369.37853,57.18237,11.220530033111572
1618824369.39415,54.52075,11.236150026321411
1618824369.40978,50.52936,11.251780033111572
1618824369.4254,45.89148,11.267400026321411
1618824369.44103,41.2254,11.283030033111572
1618824369.45665,36.96527,11.298650026321411
1618824369.47228,33.27234,11.314280033111572
1618824369.48791,30.07867,11.329910039901733
1618824369.50353,27.18781,11.345530033111572
1618824369.51916,24.3988,11.361160039901733
1618824369.53478,21.63373,11.376780033111572
1618824369.55041,19.0163,11.392410039901733
1618824369.56603,16.77802,11.408030033111572
1618824369.58166,15.12878,11.423660039901733
1618824369.59729,14.10486,11.439290046691895
1618824369.61291,13.48425,11.454910039901733
1618824369.62854,12.83575,11.470540046691895
1618824369.64416,11.75116,11.486160039901733
1618824369.65979,10.00122,11.501790046691895
1618824369.67541,7.698792,11.517410039901733
1618824369.69104,5.150696,11.533040046691895
1618824369.70667,2.684143,11.548670053482056
1618824369.72229,0.4057617,11.564290046691895
1618824369.73792,-1.889648,11.579920053482056
1618824369.75354,-4.581909,11.595540046691895
1618824369.76917,-8.041504,11.611170053482056
1618824369.78479,-12.35138,11.626790046691895
1618824369.80042,-17.27325,11.642420053482056
1618824369.81605,-22.28003,11.658050060272217
1618824369.83167,-26.79669,11.673670053482056
1618824369.8473,-30.48981,11.689300060272217
1618824369.86292,-33.38922,11.704920053482056
1618824369.87855,-35.9245,11.720550060272217
1618824369.89417,-38.73364,11.736170053482056
1618824369.9098,-42.49036,11.751800060272217
1618824369.92543,-47.6543,11.767430067062378
1618824369.94105,-54.24438,11.783050060272217
1618824369.95668,-61.59503,11.798680067062378
1618824369.9723,-68.289,11.814300060272217
1618824369.98793,-72.315,11.829930067062378
1618824370.00355,-71.53406,11.845550060272217
1618824370.01918,-64.38959,11.861180067062378
1618824370.03481,-50.57477,11.876810073852539
1618824370.05043,-31.36194,11.892430067062378
1618824370.06606,-9.317749,11.908060073852539
1618824370.08168,12.42041,11.923680067062378
1618824370.09731,31.15851,11.939310073852539
1618824370.11293,45.32269,11.954930067062378
1618824370.12856,54.67163,11.970560073852539
1618824370.14419,59.94904,11.9861900806427
1618824370.15981,62.18488,12.001810073852539
1618824370.17544,62.23792,12.0174400806427
1618824370.19106,60.54797,12.033060073852539
1618824370.20669,57.36682,12.0486900806427
1618824370.22232,53.03375,12.064320087432861
1618824370.23794,48.12543,12.0799400806427
1618824370.25357,43.3808,12.095570087432861
1618824370.26919,39.37805,12.1111900806427
1618824370.28482,36.30981,12.126820087432861
1618824370.30044,33.92578,12.1424400806427
1618824370.31607,31.71002,12.158070087432861
1618824370.3317,29.25037,12.173700094223022
1618824370.34732,26.52179,12.189320087432861
1618824370.36295,23.93512,12.204950094223022
1618824370.37857,22.08813,12.220570087432861
1618824370.3942,21.42896,12.236200094223022
1618824370.40982,21.90552,12.251820087432861
1618824370.42545,22.95325,12.267450094223022
1618824370.44108,23.67639,12.283080101013184
1618824370.4567,23.24902,12.298700094223022
1618824370.47233,21.20905,12.314330101013184
1618824370.48795,17.65656,12.329950094223022
1618824370.50358,13.13214,12.345580101013184
1618824370.5192,8.345093,12.361200094223022
1618824370.53483,3.898621,12.376830101013184
1618824370.55046,-0.01672363,12.392460107803345
1618824370.56608,-3.605591,12.408080101013184
1618824370.58171,-7.357788,12.423710107803345
1618824370.59733,-11.71338,12.439330101013184
1618824370.61296,-16.82233,12.454960107803345
1618824370.62858,-22.41046,12.470580101013184
1618824370.64421,-27.87146,12.486210107803345
1618824370.65984,-32.62909,12.501840114593506
1618824370.67546,-36.35461,12.517460107803345
1618824370.69109,-39.19397,12.533090114593506
1618824370.70671,-41.66803,12.548710107803345
1618824370.72234,-44.49231,12.564340114593506
1618824370.73796,-48.34741,12.579960107803345
1618824370.75359,-53.65436,12.595590114593506
1618824370.76922,-60.41333,12.611220121383667
1618824370.78484,-68.02454,12.626840114593506
1618824370.80047,-75.16272,12.642470121383667
1618824370.81609,-79.8363,12.658090114593506
1618824370.83172,-79.83667,12.673720121383667
1618824370.84734,-73.41864,12.689340114593506
1618824370.86297,-60.09711,12.704970121383667
1618824370.8786,-41.0343,12.720599889755249
1618824370.89422,-18.81653,12.736220121383667
1618824370.90985,3.392273,12.751849889755249
1618824370.92547,22.93225,12.767470121383667
1618824370.9411,38.38422,12.783099889755249
1618824370.95672,49.72028,12.798720121383667
1618824370.97235,57.73865,12.814349889755249
1618824370.98798,63.34564,12.82997989654541
1618824371.0036,67.02069,12.845599889755249
1618824371.01923,68.74738,12.86122989654541
1618824371.03485,68.35345,12.876849889755249
1618824371.05048,65.91992,12.89247989654541
1618824371.0661,61.94275,12.908099889755249
1618824371.08173,57.2486,12.92372989654541
1618824371.09736,52.65918,12.939359903335571
1618824371.11298,48.70306,12.95497989654541
1618824371.12861,45.5332,12.970609903335571
1618824371.14423,43.03699,12.98622989654541
1618824371.15986,40.96814,13.001859903335571
1618824371.17548,39.1434,13.01747989654541
1618824371.19111,37.47226,13.033109903335571
1618824371.20674,35.95996,13.048739910125732
1618824371.22236,34.65128,13.064359903335571
1618824371.23799,33.63123,13.079989910125732
1618824371.25361,32.91382,13.095609903335571
1618824371.26924,32.43701,13.111239910125732
1618824371.28486,31.96545,13.126859903335571
1618824371.30049,31.07907,13.142489910125732
1618824371.31612,29.3223,13.158119916915894
1618824371.33174,26.37231,13.173739910125732
1618824371.34737,22.24121,13.189369916915894
1618824371.36299,17.29199,13.204989910125732
1618824371.37862,12.13947,13.220619916915894
1618824371.39424,7.353455,13.236239910125732
1618824371.40987,3.215759,13.251869916915894
1618824371.4255,-0.3805237,13.267499923706055
1618824371.44112,-3.832794,13.283119916915894
1618824371.45675,-7.586761,13.298749923706055
1618824371.47237,-11.91901,13.314369916915894
1618824371.488,-16.7728,13.329999923706055
1618824371.50362,-21.78162,13.345619916915894
1618824371.51925,-26.45422,13.361249923706055
1618824371.53488,-30.37689,13.376879930496216
1618824371.5505,-33.42206,13.392499923706055
1618824371.56613,-35.79086,13.408129930496216
1618824371.58175,-37.98856,13.423749923706055
1618824371.59738,-40.6113,13.439379930496216
1618824371.613,-44.2225,13.454999923706055
1618824371.62863,-49.22388,13.470629930496216
1618824371.64426,-55.71225,13.486259937286377
1618824371.65988,-63.33359,13.501879930496216
1618824371.67551,-71.10599,13.517509937286377
1618824371.69113,-77.33841,13.533129930496216
1618824371.70676,-79.86441,13.548759937286377
1618824371.72238,-76.60178,13.564379930496216
1618824371.73801,-66.31812,13.580009937286377
1618824371.75364,-49.28244,13.595639944076538
1618824371.76926,-27.41223,13.611259937286377
1618824371.78489,-3.810028,13.626889944076538
1618824371.80051,18.26352,13.642509937286377
1618824371.81614,36.37537,13.658139944076538
1618824371.83176,49.53598,13.673759937286377
1618824371.84739,58.08136,13.689389944076538
1618824371.86302,63.09253,13.7050199508667
1618824371.87864,65.62433,13.720639944076538
1618824371.89427,66.33551,13.7362699508667
1618824371.90989,65.44586,13.751889944076538
1618824371.92552,63.0668,13.7675199508667
1618824371.94114,59.49652,13.783139944076538
1618824371.95677,55.26556,13.7987699508667
1618824371.9724,51.01736,13.81439995765686
1618824371.98802,47.24353,13.8300199508667
1618824372.00365,44.15207,13.84564995765686
1618824372.01927,41.67795,13.8612699508667
1618824372.0349,39.65176,13.87689995765686
1618824372.05052,37.94592,13.8925199508667
1618824372.06615,36.53735,13.90814995765686
1618824372.08178,35.44168,13.923779964447021
1618824372.0974,34.65646,13.93939995765686
1618824372.11303,34.08105,13.955029964447021
1618824372.12865,33.5119,13.97064995765686
1618824372.14428,32.75854,13.986279964447021
1618824372.1599,31.62637,14.00189995765686
1618824372.17553,30.00089,14.017529964447021
1618824372.19116,27.78735,14.033159971237183
1618824372.20678,24.92407,14.048779964447021
1618824372.22241,21.40842,14.064409971237183
1618824372.23803,17.33655,14.080029964447021
1618824372.25366,12.96637,14.095659971237183
1618824372.26928,8.64624,14.111279964447021
1618824372.28491,4.73175,14.126909971237183
1618824372.30054,1.427612,14.142539978027344
1618824372.31616,-1.297058,14.158159971237183
1618824372.33179,-3.731506,14.173789978027344
1618824372.34741,-6.312836,14.189409971237183
1618824372.36304,-9.430786,14.205039978027344
1618824372.37866,-13.26715,14.220659971237183
1618824372.39429,-17.72665,14.236289978027344
1618824372.40992,-22.48288,14.251919984817505
1618824372.42554,-27.0845,14.267539978027344
1618824372.44117,-31.13168,14.283169984817505
1618824372.45679,-34.39691,14.298789978027344
1618824372.47242,-36.88382,14.314419984817505
1618824372.48804,-38.82562,14.330039978027344
1618824372.50367,-40.66586,14.345669984817505
1618824372.5193,-42.99295,14.361299991607666
1618824372.53492,-46.43915,14.376919984817505
1618824372.55055,-51.44617,14.392549991607666
1618824372.56617,-57.9353,14.408169984817505
1618824372.5818,-65.02704,14.423799991607666
1618824372.59742,-70.95572,14.439419984817505
1618824372.61305,-73.43356,14.455049991607666
1618824372.62868,-70.38342,14.470679998397827
1618824372.6443,-60.73825,14.486299991607666
1618824372.65993,-44.99686,14.501929998397827
1618824372.67555,-25.19409,14.517549991607666
1618824372.69118,-4.217346,14.533179998397827
1618824372.7068,15.138,14.548799991607666
1618824372.72243,30.97226,14.564429998397827
1618824372.73806,42.60535,14.580060005187988
1618824372.75368,50.34726,14.595679998397827
1618824372.76931,54.97153,14.611310005187988
1618824372.78493,57.20651,14.626929998397827
1618824372.80056,57.5239,14.642560005187988
1618824372.81619,56.18643,14.65819001197815
1618824372.83181,53.4639,14.673810005187988
1618824372.84744,49.7355,14.68944001197815
1618824372.86306,45.51755,14.705060005187988
1618824372.87869,41.28645,14.72069001197815
1618824372.89431,37.41748,14.736310005187988
1618824372.90994,34.03224,14.75194001197815
1618824372.92557,31.06741,14.76757001876831
1618824372.94119,28.38708,14.78319001197815
1618824372.95682,25.92754,14.79882001876831
1618824372.97244,23.82669,14.81444001197815
1618824372.98807,22.41072,14.83007001876831
1618824373.00369,22.01221,14.84569001197815
1618824373.01932,22.72134,14.86132001876831
1618824373.03495,24.2205,14.876950025558472
1618824373.05057,25.776,14.89257001876831
1618824373.0662,26.45866,14.908200025558472
1618824373.08182,25.51573,14.92382001876831
1618824373.09745,22.6651,14.939450025558472
1618824373.11307,18.24399,14.95507001876831
1618824373.1287,13.02878,14.970700025558472
1618824373.14433,7.960037,14.986330032348633
1618824373.15995,3.734604,15.001950025558472
1618824373.17558,0.5419006,15.017580032348633
1618824373.1912,-1.947952,15.033200025558472
1618824373.20683,-4.457397,15.048830032348633
1618824373.22245,-7.692535,15.064450025558472
1618824373.23808,-12.03662,15.080080032348633
1618824373.25371,-17.3466,15.095710039138794
1618824373.26933,-23.00342,15.111330032348633
1618824373.28496,-28.15886,15.126960039138794
1618824373.30058,-32.15816,15.142580032348633
1618824373.31621,-34.75409,15.158210039138794
1618824373.33183,-36.24474,15.173830032348633
1618824373.34746,-37.35583,15.189460039138794
1618824373.36309,-38.97455,15.205090045928955
1618824373.37871,-41.9594,15.220710039138794
1618824373.39434,-46.83989,15.236340045928955
1618824373.40996,-53.67242,15.251960039138794
1618824373.42559,-61.74072,15.267590045928955
1618824373.44121,-69.5732,15.283210039138794
1618824373.45684,-74.97789,15.298840045928955
1618824373.47247,-75.54829,15.314470052719116
1618824373.48809,-69.50694,15.330090045928955
1618824373.50372,-56.45258,15.345720052719116
1618824373.51934,-37.75085,15.361340045928955
1618824373.53497,-16.09821,15.376970052719116
1618824373.55059,5.262238,15.392590045928955
1618824373.56622,23.6302,15.408220052719116
1618824373.58185,37.39879,15.423850059509277
1618824373.59747,46.2952,15.439470052719116
1618824373.6131,51.03867,15.455100059509277
1618824373.62872,52.69998,15.470720052719116
1618824373.64435,52.17238,15.486350059509277
1618824373.65997,49.9162,15.501970052719116
1618824373.6756,46.09027,15.517600059509277
1618824373.69123,40.86497,15.533230066299438
1618824373.70685,34.64595,15.548850059509277
1618824373.72248,27.95668,15.564480066299438
1618824373.7381,21.50998,15.580100059509277
1618824373.75373,16.09692,15.595730066299438
1618824373.76935,12.29958,15.611350059509277
1618824373.78498,10.24178,15.626980066299438
1618824373.80061,9.588776,15.6426100730896
1618824373.81623,9.774017,15.658230066299438
1618824373.83186,10.25829,15.6738600730896
1618824373.84748,10.81807,15.689480066299438
1618824373.86311,11.19659,15.7051100730896
1618824373.87873,11.58696,15.720730066299438
1618824373.89436,12.72707,15.7363600730896
1618824373.90999,15.3427,15.75199007987976
1618824373.92561,19.45819,15.7676100730896
1618824373.94124,24.16849,15.78324007987976
1618824373.95686,27.99686,15.7988600730896
1618824373.97249,29.46048,15.81449007987976
1618824373.98811,27.6055,15.8301100730896
1618824374.00374,21.35854,15.84574007987976
1618824374.01937,10.77806,15.861370086669922
1618824374.03499,-2.357452,15.87699007987976
1618824374.05062,-15.02484,15.892620086669922
1618824374.06624,-24.07213,15.90824007987976
1618824374.08187,-27.09717,15.923870086669922
1618824374.09749,-23.1179,15.93949007987976
1618824374.11312,-13.04062,15.955120086669922
1618824374.12875,0.29039,15.970750093460083
1618824374.14437,11.41399,15.986370086669922
1618824374.16,15.62927,16.002000093460083
1618824374.17562,11.42931,16.017620086669922
1618824374.19125,0.7012024,16.033250093460083
1618824374.20687,-13.13543,16.048870086669922
1618824374.2225,-26.89819,16.064500093460083
1618824374.23813,-38.53798,16.080130100250244
1618824374.25375,-47.32341,16.095750093460083
1618824374.26938,-53.32591,16.111380100250244
1618824374.285,-58.95837,16.127000093460083
1618824374.30063,-66.02812,16.142630100250244
1618824374.31625,-74.51258,16.158250093460083
1618824374.33188,-83.24041,16.173880100250244
1618824374.34751,-91.55113,16.189510107040405
1618824374.36313,-99.52629,16.205130100250244
1618824374.37876,-107.0277,16.220760107040405
1618824374.39438,-113.2557,16.236380100250244
1618824374.41001,-104.998,16.252010107040405
1618824374.42563,-76.28111,16.267630100250244
1618824374.44126,-34.15611,16.283260107040405
1618824374.45689,6.770889,16.298890113830566
1618824374.47251,36.70496,16.314510107040405
1618824374.48814,54.4541,16.330140113830566
1618824374.50376,63.77788,16.345760107040405
1618824374.51939,69.22247,16.361390113830566
1618824374.53501,73.5756,16.377010107040405
1618824374.55064,77.84796,16.392640113830566
1618824374.56627,79.71408,16.408270120620728
1618824374.58189,77.27997,16.423890113830566
1618824374.59752,71.10503,16.439520120620728
1618824374.61314,63.63161,16.455140113830566
1618824374.62877,56.95501,16.470770120620728
1618824374.64439,51.60069,16.486390113830566
1618824374.66002,47.00266,16.502020120620728
1618824374.67565,41.75386,16.51764988899231
1618824374.69127,35.34658,16.533270120620728
1618824374.7069,26.52053,16.54889988899231
1618824374.72252,15.06504,16.564520120620728
1618824374.73815,2.559006,16.58014988899231
1618824374.75377,-8.282173,16.595770120620728
1618824374.7694,-15.11948,16.61139988899231
1618824374.78503,-16.74441,16.62702989578247
1618824374.80065,-11.31135,16.64264988899231
1618824374.81628,-0.6805763,16.65827989578247
1618824374.8319,12.38718,16.67389988899231
1618824374.84753,23.89328,16.68952989578247
1618824374.86315,30.77632,16.70514988899231
1618824374.87878,32.4507,16.72077989578247
1618824374.89441,30.80931,16.736409902572632
1618824374.91003,28.65578,16.75202989578247
1618824374.92566,27.94145,16.767659902572632
1618824374.94128,28.90466,16.78327989578247
1618824374.95691,29.53332,16.798909902572632
1618824374.97253,27.36817,16.81452989578247
1618824374.98816,20.27788,16.830159902572632
1618824375.00379,8.309586,16.845789909362793
1618824375.01941,-5.84215,16.861409902572632
1618824375.03504,-17.94835,16.877039909362793
1618824375.05066,-24.43413,16.892659902572632
1618824375.06629,-24.47443,16.908289909362793
1618824375.08192,-18.95997,16.923919916152954
1618824375.09754,-10.69711,16.939539909362793
1618824375.11317,-2.441055,16.955169916152954
1618824375.12879,3.892189,16.970789909362793
1618824375.14442,7.829866,16.986419916152954
1618824375.16004,10.05021,17.002039909362793
1618824375.17567,11.61662,17.017669916152954
1618824375.1913,13.1946,17.033299922943115
1618824375.20692,14.91568,17.048919916152954
1618824375.22255,16.77488,17.064549922943115
1618824375.23817,18.65369,17.080169916152954
1618824375.2538,20.87358,17.095799922943115
1618824375.26942,23.81243,17.111419916152954
1618824375.28505,27.62087,17.127049922943115
1618824375.30068,31.95341,17.142679929733276
1618824375.3163,36.1102,17.158299922943115
1618824375.33193,39.28645,17.173929929733276
1618824375.34755,40.83218,17.189549922943115
1618824375.36318,40.50478,17.205179929733276
1618824375.3788,38.27267,17.220799922943115
1618824375.39443,34.47163,17.236429929733276
1618824375.41006,29.56649,17.252059936523438
1618824375.42568,23.97738,17.267679929733276
1618824375.44131,17.9152,17.283309936523438
1618824375.45693,11.30468,17.298929929733276
1618824375.47256,4.039194,17.314559936523438
1618824375.48818,-3.72714,17.330179929733276
1618824375.50381,-11.58606,17.345809936523438
1618824375.51944,-18.97157,17.3614399433136
1618824375.53506,-25.10868,17.377059936523438
1618824375.55069,-29.28561,17.3926899433136
1618824375.56631,-31.11833,17.408309936523438
1618824375.58194,-30.70192,17.4239399433136
1618824375.59756,-28.54232,17.439559936523438
1618824375.61319,-25.38007,17.4551899433136
1618824375.62882,-21.90913,17.47081995010376
1618824375.64444,-18.61388,17.4864399433136
1618824375.66007,-15.74574,17.50206995010376
1618824375.67569,-13.39117,17.5176899433136
1618824375.69132,-11.58352,17.53331995010376
1618824375.70694,-10.39095,17.5489399433136
1618824375.72257,-9.907246,17.56456995010376
1618824375.7382,-10.13257,17.58019995689392
1618824375.75382,-10.94952,17.59581995010376
1618824375.76945,-12.12022,17.61144995689392
1618824375.78507,-13.3867,17.62706995010376
1618824375.8007,-14.67759,17.64269995689392
1618824375.81632,-16.0941,17.65831995010376
1618824375.83195,-17.9458,17.67394995689392
1618824375.84758,-20.53219,17.689579963684082
1618824375.8632,-23.95141,17.70519995689392
1618824375.87883,-27.97281,17.720829963684082
1618824375.89445,-32.06099,17.73644995689392
1618824375.91008,-35.64042,17.752079963684082
1618824375.9257,-38.33305,17.76769995689392
1618824375.94133,-40.20443,17.783329963684082
1618824375.95696,-41.71299,17.798959970474243
1618824375.97258,-43.59893,17.814579963684082
1618824375.98821,-46.60794,17.830209970474243
1618824376.00383,-51.27409,17.845829963684082
1618824376.01946,-57.78984,17.861459970474243
1618824376.03508,-65.80009,17.877079963684082
1618824376.05071,-74.26432,17.892709970474243
1618824376.06634,-81.32764,17.908339977264404
1618824376.08196,-84.54553,17.923959970474243
1618824376.09759,-81.40356,17.939589977264404
1618824376.11321,-70.2913,17.955209970474243
1618824376.12884,-51.26567,17.970839977264404
1618824376.14446,-26.39883,17.986459970474243
1618824376.16009,0.6966047,18.002089977264404
1618824376.17572,25.98222,18.017719984054565
1618824376.19134,46.27518,18.033339977264404
1618824376.20697,60.044,18.048969984054565
1618824376.22259,67.44327,18.064589977264404
1618824376.23822,69.71713,18.080219984054565
1618824376.25384,68.3537,18.095839977264404
1618824376.26947,64.5153,18.111469984054565
1618824376.2851,58.98203,18.127099990844727
1618824376.30072,52.34766,18.142719984054565
1618824376.31635,45.29406,18.158349990844727
1618824376.33197,38.56484,18.173969984054565
1618824376.3476,32.76138,18.189599990844727
1618824376.36322,28.08845,18.205219984054565
1618824376.37885,24.36602,18.220849990844727
1618824376.39448,21.21804,18.236479997634888
1618824376.4101,18.38165,18.252099990844727
1618824376.42573,15.94046,18.267729997634888
1618824376.44135,14.25581,18.283349990844727
1618824376.45698,13.70982,18.298979997634888
1618824376.4726,14.40536,18.314599990844727
1618824376.48823,16.00711,18.330229997634888
1618824376.50386,17.83521,18.34586000442505
1618824376.51948,19.14909,18.361479997634888
1618824376.53511,19.41056,18.37711000442505
1618824376.55073,18.40078,18.392729997634888
1618824376.56636,16.20065,18.40836000442505
1618824376.58198,13.05455,18.423979997634888
1618824376.59761,9.195763,18.43961000442505
1618824376.61324,4.813881,18.45524001121521
1618824376.62886,0.02133179,18.47086000442505
1618824376.64449,-5.048317,18.48649001121521
1618824376.66011,-10.26918,18.50211000442505
1618824376.67574,-15.47909,18.51774001121521
1618824376.69136,-20.58924,18.53336000442505
1618824376.70699,-25.495,18.54899001121521
1618824376.72262,-30.13267,18.56462001800537
1618824376.73824,-34.42295,18.58024001121521
1618824376.75387,-38.31303,18.59587001800537
1618824376.76949,-41.8531,18.61149001121521
1618824376.78512,-45.25348,18.62712001800537
1618824376.80074,-48.95793,18.64274001121521
1618824376.81637,-53.55987,18.65837001800537
1618824376.832,-59.58009,18.674000024795532
1618824376.84762,-67.00978,18.68962001800537
1618824376.86325,-75.0056,18.705250024795532
1618824376.87887,-81.69492,18.72087001800537
1618824376.8945,-84.5838,18.736500024795532
1618824376.91012,-81.30886,18.75212001800537
1618824376.92575,-70.6339,18.767750024795532
1618824376.94138,-53.09401,18.783380031585693
1618824376.957,-30.92869,18.799000024795532
1618824376.97263,-7.380081,18.814630031585693
1618824376.98825,14.46056,18.830250024795532
1618824377.00388,32.53465,18.845880031585693
1618824377.0195,46.18613,18.861500024795532
1618824377.03513,55.80453,18.877130031585693
1618824377.05076,62.17429,18.892760038375854
1618824377.06638,65.92574,18.908380031585693
1618824377.08201,67.33768,18.924010038375854
1618824377.09763,66.54306,18.939630031585693
1618824377.11326,63.80595,18.955260038375854
1618824377.12888,59.64554,18.970880031585693
1618824377.14451,54.73581,18.986510038375854
1618824377.16014,49.66035,19.002140045166016
1618824377.17576,44.78847,19.017760038375854
1618824377.19139,40.27281,19.033390045166016
1618824377.20701,36.18741,19.049010038375854
1618824377.22264,32.66856,19.064640045166016
1618824377.23826,29.93079,19.080260038375854
1618824377.25389,28.18538,19.095890045166016
1618824377.26952,27.5031,19.111520051956177
1618824377.28514,27.71297,19.127140045166016
1618824377.30077,28.40369,19.142770051956177
1618824377.31639,29.0452,19.158390045166016
1618824377.33202,29.12329,19.174020051956177
1618824377.34765,28.31749,19.189650058746338
1618824377.36327,26.54549,19.205270051956177
1618824377.3789,23.93922,19.220900058746338
1618824377.39452,20.73462,19.236520051956177
1618824377.41015,17.09584,19.252150058746338
1618824377.42577,13.04445,19.267770051956177
1618824377.4414,8.454636,19.283400058746338
1618824377.45703,3.186966,19.2990300655365
1618824377.47265,-2.756882,19.314650058746338
1618824377.48828,-9.14798,19.3302800655365
1618824377.5039,-15.52708,19.345900058746338
1618824377.51953,-21.38583,19.3615300655365
1618824377.53515,-26.34157,19.377150058746338
1618824377.55078,-30.34335,19.3927800655365
1618824377.56641,-33.6483,19.40841007232666
1618824377.58203,-36.81067,19.4240300655365
1618824377.59766,-40.56413,19.43966007232666
1618824377.61328,-45.67847,19.4552800655365
1618824377.62891,-52.65442,19.47091007232666
1618824377.64453,-61.33722,19.4865300655365
1618824377.66016,-70.59544,19.50216007232666
1618824377.67579,-78.22987,19.51779007911682
1618824377.69141,-81.46761,19.53341007232666
1618824377.70704,-77.90504,19.54904007911682
1618824377.72266,-66.49786,19.56466007232666
1618824377.73829,-48.18578,19.58029007911682
1618824377.75391,-25.69765,19.59591007232666
1618824377.76954,-2.582733,19.61154007911682
1618824377.78517,17.99965,19.627170085906982
1618824377.80079,34.21481,19.64279007911682
1618824377.81642,45.77263,19.658420085906982
1618824377.83204,53.422,19.67404007911682
1618824377.84767,58.18195,19.689670085906982
1618824377.86329,60.73836,19.70529007911682
1618824377.87892,61.33005,19.720920085906982
1618824377.89455,60.01314,19.736550092697144
1618824377.91017,57.03632,19.752170085906982
1618824377.9258,52.99216,19.767800092697144
1618824377.94142,48.64511,19.783420085906982
1618824377.95705,44.58499,19.799050092697144
1618824377.97267,41.05377,19.814670085906982
1618824377.9883,37.89682,19.830300092697144
1618824378.00393,34.85449,19.845930099487305
1618824378.01955,31.84271,19.861550092697144
1618824378.03518,29.10889,19.877180099487305
1618824378.0508,27.13782,19.892800092697144
1618824378.06643,26.41949,19.908430099487305
1618824378.08205,27.09891,19.924050092697144
1618824378.09768,28.85947,19.939680099487305
1618824378.11331,30.96329,19.955310106277466
1618824378.12893,32.48041,19.970930099487305
1618824378.14456,32.6167,19.986560106277466
1618824378.16018,30.96222,20.002180099487305
1618824378.17581,27.59537,20.017810106277466
1618824378.19143,23.00784,20.033430099487305
1618824378.20706,17.91968,20.049060106277466
1618824378.22269,12.98758,20.064690113067627
1618824378.23831,8.568024,20.080310106277466
1618824378.25394,4.635315,20.095940113067627
1618824378.26956,0.8010559,20.111560106277466
1618824378.28519,-3.423401,20.127190113067627
1618824378.30081,-8.374756,20.142810106277466
1618824378.31644,-14.04623,20.158440113067627
1618824378.33207,-20.10681,20.174070119857788
1618824378.34769,-26.0632,20.189690113067627
1618824378.36332,-31.48581,20.205320119857788
1618824378.37894,-36.15906,20.220940113067627
1618824378.39457,-40.12726,20.236570119857788
1618824378.41019,-43.67419,20.252190113067627
1618824378.42582,-47.22427,20.267820119857788
1618824378.44145,-51.33401,20.28345012664795
1618824378.45707,-56.61768,20.299070119857788
1618824378.4727,-63.55518,20.31470012664795
1618824378.48832,-72.03107,20.330320119857788
1618824378.50395,-80.94641,20.34595012664795
1618824378.51957,-88.10596,20.361570119857788
1618824378.5352,-90.66196,20.37720012664795
1618824378.55083,-86.15488,20.39282989501953
1618824378.56645,-73.55917,20.40845012664795
1618824378.58208,-53.92529,20.42407989501953
1618824378.5977,-30.14014,20.43970012664795
1618824378.61333,-5.92395,20.45532989501953
1618824378.62895,15.48831,20.47095012664795
1618824378.64458,32.28128,20.48657989501953
1618824378.66021,44.26227,20.502209901809692
1618824378.67583,52.31808,20.51782989501953
1618824378.69146,57.5582,20.533459901809692
1618824378.70708,60.711,20.54907989501953
1618824378.72271,61.99069,20.564709901809692
1618824378.73833,61.35773,20.58032989501953
1618824378.75396,58.97125,20.595959901809692
1618824378.76959,55.37482,20.611589908599854
1618824378.78521,51.37518,20.627209901809692
1618824378.80084,47.7002,20.642839908599854
1618824378.81646,44.76044,20.658459901809692
1618824378.83209,42.49887,20.674089908599854
1618824378.84771,40.59808,20.689709901809692
1618824378.86334,38.75204,20.705339908599854
1618824378.87897,36.90976,20.720969915390015
1618824378.89459,35.31708,20.736589908599854
1618824378.91022,34.36783,20.752219915390015
1618824378.92584,34.32947,20.767839908599854
1618824378.94147,35.09476,20.783469915390015
1618824378.95709,36.19168,20.799089908599854
1618824378.97272,36.89682,20.814719915390015
1618824378.98835,36.55539,20.830349922180176
1618824379.00397,34.80988,20.845969915390015
1618824379.0196,31.71347,20.861599922180176
1618824379.03522,27.65405,20.877219915390015
1618824379.05085,23.17126,20.892849922180176
1618824379.06647,18.74695,20.908469915390015
1618824379.0821,14.68567,20.924099922180176
1618824379.09773,11.04156,20.939729928970337
1618824379.11335,7.62439,20.955349922180176
1618824379.12898,4.086365,20.970979928970337
1618824379.1446,0.04803467,20.986599922180176
1618824379.16023,-4.767456,21.002229928970337
1618824379.17585,-10.37515,21.017849922180176
1618824379.19148,-16.46851,21.033479928970337
1618824379.20711,-22.51028,21.049109935760498
1618824379.22273,-27.86737,21.064729928970337
1618824379.23836,-32.09476,21.080359935760498
1618824379.25398,-35.08432,21.095979928970337
1618824379.26961,-37.14175,21.111609935760498
1618824379.28523,-38.89011,21.127229928970337
1618824379.30086,-41.12732,21.142859935760498
1618824379.31649,-44.64545,21.15848994255066
1618824379.33211,-50.07031,21.174109935760498
1618824379.34774,-57.60516,21.18973994255066
1618824379.36336,-66.69522,21.205359935760498
1618824379.37899,-75.81659,21.22098994255066
1618824379.39461,-82.53796,21.236609935760498
1618824379.41024,-84.11932,21.25223994255066
1618824379.42587,-78.45712,21.26786994934082
1618824379.44149,-65.01007,21.28348994255066
1618824379.45712,-45.21304,21.29911994934082
1618824379.47274,-22.09946,21.31473994255066
1618824379.48837,0.7167969,21.33036994934082
1618824379.50399,20.26447,21.34598994255066
1618824379.51962,35.00662,21.36161994934082
1618824379.53525,44.9422,21.37724995613098
1618824379.55087,51.0278,21.39286994934082
1618824379.5665,54.41403,21.40849995613098
1618824379.58212,55.92902,21.42411994934082
1618824379.59775,55.96262,21.43974995613098
1618824379.61337,54.71423,21.45536994934082
1618824379.629,52.48615,21.47099995613098
1618824379.64463,49.76843,21.486629962921143
1618824379.66025,47.0896,21.50224995613098
1618824379.67588,44.82224,21.517879962921143
1618824379.6915,43.01581,21.53349995613098
1618824379.70713,41.48859,21.549129962921143
1618824379.72275,40.00476,21.56474995613098
1618824379.73838,38.45499,21.580379962921143
1618824379.75401,36.9736,21.596009969711304
1618824379.76963,35.84818,21.611629962921143
1618824379.78526,35.3508,21.627259969711304
1618824379.80088,35.55472,21.642879962921143
1618824379.81651,36.28909,21.658509969711304
1618824379.83213,37.16312,21.674129962921143
1618824379.84776,37.68951,21.689759969711304
1618824379.86339,37.4343,21.705389976501465
1618824379.87901,36.09448,21.721009969711304
1618824379.89464,33.5824,21.736639976501465
1618824379.91026,30.00348,21.752259969711304
1618824379.92589,25.65088,21.767889976501465
1618824379.94152,20.88498,21.783519983291626
1618824379.95714,16.0509,21.799139976501465
1618824379.97277,11.39966,21.814769983291626
1618824379.98839,7.03717,21.830389976501465
1618824380.00402,2.971252,21.846019983291626
1618824380.01964,-0.8720703,21.861639976501465
1618824380.03527,-4.589844,21.877269983291626
1618824380.0509,-8.375458,21.892899990081787
1618824380.06652,-12.49139,21.908519983291626
1618824380.08215,-17.21158,21.924149990081787
1618824380.09777,-22.68719,21.939769983291626
1618824380.1134,-28.73969,21.955399990081787
1618824380.12902,-34.82571,21.971019983291626
1618824380.14465,-40.20026,21.986649990081787
1618824380.16028,-44.25085,22.00227999687195
1618824380.1759,-46.77802,22.017899990081787
1618824380.19153,-48.17688,22.03352999687195
1618824380.20715,-49.31345,22.049149990081787
1618824380.22278,-51.22388,22.06477999687195
1618824380.2384,-54.81729,22.080399990081787
1618824380.25403,-60.61459,22.09602999687195
1618824380.26966,-68.55038,22.11166000366211
1618824380.28528,-77.76492,22.12727999687195
1618824380.30091,-86.53528,22.14291000366211
1618824380.31653,-92.39047,22.15852999687195
1618824380.33216,-92.70944,22.17416000366211
1618824380.34778,-85.5994,22.18977999687195
1618824380.36341,-70.67926,22.20541000366211
1618824380.37904,-49.49011,22.22104001045227
1618824380.39466,-25.07587,22.23666000366211
1618824380.41029,-0.9770508,22.25229001045227
1618824380.42591,20.02588,22.26791000366211
1618824380.44154,36.53888,22.28354001045227
1618824380.45716,48.57346,22.29916000366211
1618824380.47279,56.8763,22.31479001045227
1618824380.48842,62.21921,22.33042001724243
1618824380.50404,65.09789,22.34604001045227
1618824380.51967,65.73068,22.36167001724243
1618824380.53529,64.39519,22.37729001045227
1618824380.55092,61.6947,22.39292001724243
1618824380.56654,58.56297,22.40854001045227
1618824380.58217,55.99861,22.42417001724243
1618824380.5978,54.65382,22.439800024032593
1618824380.61342,54.53033,22.45542001724243
1618824380.62905,54.99585,22.471050024032593
1618824380.64467,55.18106,22.48667001724243
1618824380.6603,54.27556,22.502300024032593
1618824380.67592,51.93898,22.51792001724243
1618824380.69155,48.47368,22.533550024032593
1618824380.70718,44.83479,22.549180030822754
1618824380.7228,42.31604,22.564800024032593
1618824380.73843,42.07156,22.580430030822754
1618824380.75405,44.64925,22.596050024032593
1618824380.76968,49.74887,22.611680030822754
1618824380.7853,56.53616,22.627300024032593
1618824380.80093,63.57553,22.642930030822754
1618824380.81656,68.88828,22.658560037612915
1618824380.83218,70.25023,22.674180030822754
1618824380.84781,65.8924,22.689810037612915
1618824380.86343,55.24263,22.705430030822754
1618824380.87906,39.43857,22.721060037612915
1618824380.89468,21.38466,22.736680030822754
1618824380.91031,5.157425,22.752310037612915
1618824380.92594,-4.687897,22.767940044403076
1618824380.94156,-5.352127,22.783560037612915
1618824380.95719,2.540894,22.799190044403076
1618824380.97281,14.78461,22.814810037612915
1618824380.98844,25.31323,22.830440044403076
1618824381.00406,28.66174,22.846060037612915
1618824381.01969,21.84073,22.861690044403076
1618824381.03532,5.100845,22.877320051193237
1618824381.05094,-18.55815,22.892940044403076
1618824381.06657,-43.86688,22.908570051193237
1618824381.08219,-65.71594,22.924190044403076
1618824381.09782,-80.94025,22.939820051193237
1618824381.11344,-88.62805,22.955440044403076
1618824381.12907,-88.97746,22.971070051193237
1618824381.1447,-82.39398,22.9867000579834
1618824381.16032,-69.66354,23.002320051193237
1618824381.17595,-52.46661,23.0179500579834
1618824381.19157,-33.6474,23.033570051193237
1618824381.2072,-15.5326,23.0492000579834
1618824381.22282,0.2162323,23.064820051193237
1618824381.23845,12.77283,23.0804500579834
1618824381.25408,22.50266,23.09608006477356
1618824381.2697,31.41499,23.1117000579834
1618824381.28533,42.24538,23.12733006477356
1618824381.30095,56.55865,23.1429500579834
1618824381.31658,73.37964,23.15858006477356
1618824381.3322,81.81319,23.1742000579834
1618824381.34783,72.6477,23.18983006477356
1618824381.36346,45.93565,23.20546007156372
1618824381.37908,11.56667,23.22108006477356
1618824381.39471,-18.9533,23.23671007156372
1618824381.41033,-38.96931,23.25233006477356
1618824381.42596,-47.54429,23.26796007156372
1618824381.44158,-47.75885,23.28358006477356
1618824381.45721,-44.21425,23.29921007156372
1618824381.47284,-40.84182,23.314840078353882
1618824381.48846,-38.66176,23.33046007156372
1618824381.50409,-36.26057,23.346090078353882
1618824381.51971,-32.21932,23.36171007156372
1618824381.53534,-26.70193,23.377340078353882
1618824381.55096,-20.97116,23.39296007156372
1618824381.56659,-16.5594,23.408590078353882
1618824381.58222,-14.78774,23.424220085144043
1618824381.59784,-16.34736,23.439840078353882
1618824381.61347,-21.40982,23.455470085144043
1618824381.62909,-29.36954,23.471090078353882
1618824381.64472,-38.91798,23.486720085144043
1618824381.66034,-49.63581,23.502340078353882
1618824381.67597,-62.13559,23.517970085144043
1618824381.6916,-76.72235,23.533600091934204
1618824381.70722,-92.29294,23.549220085144043
1618824381.72285,-106.3013,23.564850091934204
1618824381.73847,-115.4531,23.580470085144043
1618824381.7541,-114.0324,23.596100091934204
1618824381.76972,-102.0514,23.611720085144043
1618824381.78535,-81.82002,23.627350091934204
1618824381.80098,-57.59521,23.642980098724365
1618824381.8166,-34.24694,23.658600091934204
1618824381.83223,-15.37332,23.674230098724365
1618824381.84785,-2.243837,23.689850091934204
1618824381.86348,5.823499,23.705480098724365
1618824381.8791,10.4566,23.721100091934204
1618824381.89473,12.70005,23.736730098724365
1618824381.91036,12.38339,23.752360105514526
1618824381.92598,9.243727,23.767980098724365
1618824381.94161,2.958776,23.783610105514526
1618824381.95723,-6.188811,23.799230098724365
1618824381.97286,-16.85881,23.814860105514526
1618824381.98848,-26.85043,23.830480098724365
1618824382.00411,-34.30379,23.846110105514526
1618824382.01974,-37.70191,23.861740112304688
1618824382.03536,-36.94024,23.877360105514526
1618824382.05099,-33.34726,23.892990112304688
1618824382.06661,-28.26844,23.908610105514526
1618824382.08224,-22.97646,23.924240112304688
1618824382.09786,-18.29979,23.939860105514526
1618824382.11349,-14.66623,23.955490112304688
1618824382.12912,-12.28416,23.97112011909485
1618824382.14474,-11.48401,23.986740112304688
1618824382.16037,-12.34493,24.00237011909485
1618824382.17599,-14.76993,24.017990112304688
1618824382.19162,-18.06073,24.03362011909485
1618824382.20725,-20.21481,24.04925012588501
1618824382.22287,-18.65573,24.06487011909485
1618824382.2385,-11.3138,24.08050012588501
1618824382.25412,2.163244,24.09612011909485
1618824382.26975,19.87209,24.11175012588501
1618824382.28537,38.02495,24.12737011909485
1618824382.301,52.67077,24.14300012588501
1618824382.31663,60.73307,24.158629894256592
1618824382.33225,61.24072,24.17425012588501
1618824382.34788,55.66526,24.189879894256592
1618824382.3635,46.93132,24.20550012588501
1618824382.37913,38.09189,24.221129894256592
1618824382.39475,31.24596,24.23675012588501
1618824382.41038,27.36961,24.252379894256592
1618824382.42601,24.52659,24.268009901046753
1618824382.44163,21.94134,24.283629894256592
1618824382.45726,19.06045,24.299259901046753
1618824382.47288,15.7247,24.314879894256592
1618824382.48851,12.12119,24.330509901046753
1618824382.50413,8.57188,24.346129894256592
1618824382.51976,5.357243,24.361759901046753
1618824382.53539,2.737415,24.377389907836914
1618824382.55101,0.9476509,24.393009901046753
1618824382.56664,0.1589127,24.408639907836914
1618824382.58226,0.7572327,24.424259901046753
1618824382.59789,2.656307,24.439889907836914
1618824382.61351,5.44487,24.455509901046753
1618824382.62914,8.481884,24.471139907836914
1618824382.64477,11.1106,24.486769914627075
1618824382.66039,12.80615,24.502389907836914
1618824382.67602,13.25489,24.518019914627075
1618824382.69164,12.31849,24.533639907836914
1618824382.70727,9.998692,24.549269914627075
1618824382.72289,6.658138,24.564889907836914
1618824382.73852,2.717331,24.580519914627075
1618824382.75415,-1.260548,24.596149921417236
1618824382.76977,-4.692001,24.611769914627075
1618824382.7854,-7.188637,24.627399921417236
1618824382.80102,-8.779694,24.643019914627075
1618824382.81665,-9.937759,24.658649921417236
1618824382.83227,-11.41558,24.674269914627075
1618824382.8479,-13.89098,24.689899921417236
1618824382.86353,-17.53522,24.705529928207397
1618824382.87915,-22.11646,24.721149921417236
1618824382.89478,-27.07864,24.736779928207397
1618824382.9104,-31.78521,24.752399921417236
1618824382.92603,-35.79508,24.768029928207397
1618824382.94165,-38.96525,24.783649921417236
1618824382.95728,-41.41488,24.799279928207397
1618824382.97291,-43.43794,24.81490993499756
1618824382.98853,-45.3476,24.830529928207397
1618824383.00416,-47.41998,24.84615993499756
1618824383.01978,-49.98335,24.861779928207397
1618824383.03541,-53.4157,24.87740993499756
1618824383.05103,-57.96603,24.893029928207397
1618824383.06666,-63.5273,24.90865993499756
1618824383.08229,-69.31736,24.92428994178772
1618824383.09791,-73.8708,24.93990993499756
1618824383.11354,-75.2762,24.95553994178772
1618824383.12916,-71.76907,24.97115993499756
1618824383.14479,-62.43648,24.98678994178772
1618824383.16041,-47.671,25.00240993499756
1618824383.17604,-29.21973,25.01803994178772
1618824383.19167,-9.578926,25.03366994857788
1618824383.20729,8.757965,25.04928994178772
1618824383.22292,24.02865,25.06491994857788
1618824383.23854,35.49489,25.08053994178772
1618824383.25417,43.32869,25.09616994857788
1618824383.26979,48.17433,25.11178994178772
1618824383.28542,50.77226,25.12741994857788
1618824383.30105,51.70767,25.143049955368042
1618824383.31667,51.37285,25.15866994857788
1618824383.3323,50.04636,25.174299955368042
1618824383.34792,47.96309,25.18991994857788
1618824383.36355,45.33012,25.205549955368042
1618824383.37917,42.34018,25.22116994857788
1618824383.3948,39.19617,25.236799955368042
1618824383.41043,36.0957,25.252429962158203
1618824383.42605,33.2052,25.268049955368042
1618824383.44168,30.64822,25.283679962158203
1618824383.4573,28.51157,25.299299955368042
1618824383.47293,26.8403,25.314929962158203
1618824383.48855,25.73389,25.330549955368042
1618824383.50418,25.36186,25.346179962158203
1618824383.51981,25.88333,25.361809968948364
1618824383.53543,27.29147,25.377429962158203
1618824383.55106,29.26791,25.393059968948364
1618824383.56668,31.17599,25.408679962158203
1618824383.58231,32.22191,25.424309968948364
1618824383.59793,31.74829,25.439929962158203
1618824383.61356,29.50325,25.455559968948364
1618824383.62919,25.75381,25.471189975738525
1618824383.64481,21.17038,25.486809968948364
1618824383.66044,16.54089,25.502439975738525
1618824383.67606,12.48589,25.518059968948364
1618824383.69169,9.254333,25.533689975738525
1618824383.70731,6.742737,25.549309968948364
1618824383.72294,4.619736,25.564939975738525
1618824383.73857,2.471115,25.580569982528687
1618824383.75419,-0.02786255,25.596189975738525
1618824383.76982,-3.065735,25.611819982528687
1618824383.78544,-6.664673,25.627439975738525
1618824383.80107,-10.72186,25.643069982528687
1618824383.81669,-15.07675,25.658689975738525
1618824383.83232,-19.48672,25.674319982528687
1618824383.84795,-23.66289,25.689949989318848
1618824383.86357,-27.29868,25.705569982528687
1618824383.8792,-30.21869,25.721199989318848
1618824383.89482,-32.50797,25.736819982528687
1618824383.91045,-34.61078,25.752449989318848
1618824383.92607,-37.2897,25.768069982528687
1618824383.9417,-41.33748,25.783699989318848
1618824383.95733,-47.17107,25.79932999610901
1618824383.97295,-54.35878,25.814949989318848
1618824383.98858,-61.47185,25.83057999610901
1618824384.0042,-66.33569,25.846199989318848
1618824384.01983,-66.70332,25.86182999610901
1618824384.03545,-61.03949,25.877449989318848
1618824384.05108,-49.17392,25.89307999610901
1618824384.06671,-32.36642,25.90871000289917
1618824384.08233,-12.9485,25.92432999610901
1618824384.09796,6.46907,25.93996000289917
1618824384.11358,23.71164,25.95557999610901
1618824384.12921,37.49948,25.97121000289917
1618824384.14483,47.47363,25.98682999610901
1618824384.16046,53.91431,26.00246000289917
1618824384.17609,57.40167,26.01809000968933
1618824384.19171,58.49805,26.03371000289917
1618824384.20734,57.67264,26.04934000968933
1618824384.22296,55.40222,26.06496000289917
1618824384.23859,52.1669,26.08059000968933
1618824384.25421,48.47067,26.09621000289917
1618824384.26984,44.75037,26.11184000968933
1618824384.28547,41.25662,26.127470016479492
1618824384.30109,38.02985,26.14309000968933
1618824384.31672,34.98627,26.158720016479492
1618824384.33234,32.02603,26.17434000968933
1618824384.34797,29.1741,26.189970016479492
1618824384.3636,26.61087,26.205600023269653
1618824384.37922,24.62604,26.221220016479492
1618824384.39485,23.46707,26.236850023269653
1618824384.41047,23.25418,26.252470016479492
1618824384.4261,23.87381,26.268100023269653
1618824384.44172,25.01166,26.283720016479492
1618824384.45735,26.18604,26.299350023269653
1618824384.47298,26.82181,26.314980030059814
1618824384.4886,26.39529,26.330600023269653
1618824384.50423,24.51498,26.346230030059814
1618824384.51985,21.11951,26.361850023269653
1618824384.53548,16.53763,26.377480030059814
1618824384.5511,11.44266,26.393100023269653
1618824384.56673,6.584991,26.408730030059814
1618824384.58236,2.527069,26.424360036849976
1618824384.59798,-0.6197815,26.439980030059814
1618824384.61361,-3.22995,26.455610036849976
1618824384.62923,-5.902466,26.471230030059814
1618824384.64486,-9.223267,26.486860036849976
1618824384.66048,-13.38422,26.502480030059814
1618824384.67611,-18.21097,26.518110036849976
1618824384.69174,-23.20969,26.533740043640137
1618824384.70736,-27.87097,26.549360036849976
1618824384.72299,-31.86664,26.564990043640137
1618824384.73861,-35.15503,26.580610036849976
1618824384.75424,-37.93307,26.596240043640137
1618824384.76986,-40.50159,26.611860036849976
1618824384.78549,-43.14639,26.627490043640137
1618824384.80112,-46.12692,26.643120050430298
1618824384.81674,-49.70297,26.658740043640137
1618824384.83237,-54.13229,26.674370050430298
1618824384.84799,-59.50592,26.689990043640137
1618824384.86362,-65.48358,26.705620050430298
1618824384.87924,-71.05389,26.721240043640137
1618824384.89487,-74.53748,26.736870050430298
1618824384.9105,-73.98596,26.75250005722046
1618824384.92612,-67.89224,26.768120050430298
1618824384.94175,-55.87012,26.78375005722046
1618824384.95737,-38.98218,26.799370050430298
1618824384.973,-19.46414,26.81500005722046
1618824384.98862,0.02526855,26.830620050430298
1618824385.00425,17.26199,26.84625005722046
1618824385.01988,31.02109,26.86188006401062
1618824385.0355,41.11176,26.87750005722046
1618824385.05113,48.07928,26.89313006401062
1618824385.06675,52.65161,26.90875005722046
1618824385.08238,55.4624,26.92438006401062
1618824385.098,56.88959,26.94000005722046
1618824385.11363,57.16434,26.95563006401062
1618824385.12926,56.45862,26.97126007080078
1618824385.14488,54.92014,26.98688006401062
1618824385.16051,52.69995,27.00251007080078
1618824385.17613,49.92822,27.01813006401062
1618824385.19176,46.74643,27.03376007080078
1618824385.20738,43.34045,27.04938006401062
1618824385.22301,39.94528,27.06501007080078
1618824385.23864,36.81842,27.080640077590942
1618824385.25426,34.20392,27.09626007080078
1618824385.26989,32.23996,27.111890077590942
1618824385.28551,30.97916,27.12751007080078
1618824385.30114,30.36307,27.143140077590942
1618824385.31676,30.23218,27.15876007080078
1618824385.33239,30.31607,27.174390077590942
1618824385.34802,30.27249,27.190020084381104
1618824385.36364,29.74548,27.205640077590942
1618824385.37927,28.42792,27.221270084381104
1618824385.39489,26.19119,27.236890077590942
1618824385.41052,23.11249,27.252520084381104
1618824385.42614,19.46503,27.268140077590942
1618824385.44177,15.6218,27.283770084381104
1618824385.4574,11.94495,27.299400091171265
1618824385.47302,8.658905,27.315020084381104
1618824385.48865,5.735657,27.330650091171265
1618824385.50427,2.931305,27.346270084381104
1618824385.5199,-0.09545898,27.361900091171265
1618824385.53552,-3.631134,27.377520084381104
1618824385.55115,-7.745117,27.393150091171265
1618824385.56678,-12.24329,27.408780097961426
1618824385.5824,-16.754,27.424400091171265
1618824385.59803,-20.86639,27.440030097961426
1618824385.61365,-24.30383,27.455650091171265
1618824385.62928,-27.01572,27.471280097961426
1618824385.6449,-29.20056,27.486900091171265
1618824385.66053,-31.2449,27.502530097961426
1618824385.67616,-33.66269,27.518160104751587
1618824385.69178,-37.01599,27.533780097961426
1618824385.70741,-41.81274,27.549410104751587
1618824385.72303,-48.30692,27.565030097961426
1618824385.73866,-56.23392,27.580660104751587
1618824385.75428,-64.54422,27.596280097961426
1618824385.76991,-71.42816,27.611910104751587
1618824385.78554,-74.6749,27.627540111541748
1618824385.80116,-72.38455,27.643160104751587
1618824385.81679,-63.69861,27.658790111541748
1618824385.83241,-49.29092,27.674410104751587
1618824385.84804,-31.20313,27.690040111541748
1618824385.86366,-12.19937,27.705660104751587
1618824385.87929,5.147583,27.721290111541748
1618824385.89492,19.18365,27.73692011833191
1618824385.91054,29.39868,27.752540111541748
1618824385.92617,36.2081,27.76817011833191
1618824385.94179,40.38773,27.783790111541748
1618824385.95742,42.6293,27.79942011833191
1618824385.97304,43.37488,27.815040111541748
1618824385.98867,42.87555,27.83067011833191
1618824386.0043,41.34927,27.84630012512207
1618824386.01992,39.14847,27.86192011833191
1618824386.03555,36.68597,27.87755012512207
1618824386.05117,34.34253,27.89317011833191
1618824386.0668,32.33871,27.90880012512207
1618824386.08242,30.69049,27.92442011833191
1618824386.09805,29.27606,27.94005012512207
1618824386.11368,27.94791,27.955679893493652
1618824386.1293,26.65424,27.97130012512207
1618824386.14493,25.48184,27.986929893493652
1618824386.16055,24.62732,28.00255012512207
1618824386.17618,24.30307,28.018179893493652
1618824386.1918,24.60315,28.03380012512207
1618824386.20743,25.42715,28.049429893493652
1618824386.22306,26.40778,28.065059900283813
1618824386.23868,27.00299,28.080679893493652
1618824386.25431,26.68604,28.096309900283813
1618824386.26993,25.1308,28.111929893493652
1618824386.28556,22.37149,28.127559900283813
1618824386.30118,18.80066,28.143179893493652
1618824386.31681,15.02103,28.158809900283813
1618824386.33244,11.57465,28.174439907073975
1618824386.34806,8.714081,28.190059900283813
1618824386.36369,6.351776,28.205689907073975
1618824386.37931,4.100098,28.221309900283813
1618824386.39494,1.515564,28.236939907073975
1618824386.41056,-1.733948,28.252559900283813
1618824386.42619,-5.685425,28.268189907073975
1618824386.44182,-10.10529,28.283819913864136
1618824386.45744,-14.60196,28.299439907073975
1618824386.47307,-18.75027,28.315069913864136
1618824386.48869,-22.271,28.330689907073975
1618824386.50432,-25.06641,28.346319913864136
1618824386.51994,-27.24673,28.361939907073975
1618824386.53557,-29.09518,28.377569913864136
1618824386.5512,-31.05112,28.393199920654297
1618824386.56682,-33.65237,28.408819913864136
1618824386.58245,-37.48236,28.424449920654297
1618824386.59807,-42.92764,28.440069913864136
1618824386.6137,-49.9043,28.455699920654297
1618824386.62932,-57.57056,28.471319913864136
1618824386.64495,-64.21832,28.486949920654297
1618824386.66058,-67.67126,28.502579927444458
1618824386.6762,-65.91916,28.518199920654297
1618824386.69183,-57.95551,28.533829927444458
1618824386.70745,-44.28961,28.549449920654297
1618824386.72308,-26.87521,28.565079927444458
1618824386.7387,-8.45755,28.580699920654297
1618824386.75433,8.389893,28.596329927444458
1618824386.76996,22.02139,28.61195993423462
1618824386.78558,31.99686,28.627579927444458
1618824386.80121,38.75803,28.64320993423462
1618824386.81683,43.05234,28.658829927444458
1618824386.83246,45.47614,28.67445993423462
1618824386.84808,46.29984,28.690079927444458
1618824386.86371,45.66568,28.70570993423462
1618824386.87934,43.819,28.72133994102478
1618824386.89496,41.24396,28.73695993423462
1618824386.91059,38.50369,28.75258994102478
1618824386.92621,36.05859,28.76820993423462
1618824386.94184,34.04919,28.78383994102478
1618824386.95746,32.32645,28.79945993423462
1618824386.97309,30.58527,28.81508994102478
1618824386.98872,28.58151,28.83071994781494
1618824387.00434,26.32272,28.84633994102478
1618824387.01997,24.09,28.86196994781494
1618824387.03559,22.32846,28.87758994102478
1618824387.05122,21.45587,28.89321994781494
1618824387.06685,21.67557,28.908849954605103
1618824387.08247,22.86105,28.92446994781494
1618824387.0981,24.54791,28.940099954605103
1618824387.11372,26.07306,28.95571994781494
1618824387.12935,26.74515,28.971349954605103
1618824387.14497,26.11227,28.98696994781494
1618824387.1606,24.0632,29.002599954605103
1618824387.17623,20.86819,29.018229961395264
1618824387.19185,17.0574,29.033849954605103
1618824387.20748,13.22058,29.049479961395264
1618824387.2231,9.748138,29.065099954605103
1618824387.23873,6.74057,29.080729961395264
1618824387.25435,3.998657,29.096349954605103
1618824387.26998,1.140289,29.111979961395264
1618824387.28561,-2.151093,29.127609968185425
1618824387.30123,-5.954163,29.143229961395264
1618824387.31686,-10.02414,29.158859968185425
1618824387.33248,-13.9007,29.174479961395264
1618824387.34811,-17.11151,29.190109968185425
1618824387.36373,-19.44739,29.205729961395264
1618824387.37936,-21.0578,29.221359968185425
1618824387.39499,-22.38739,29.236989974975586
1618824387.41061,-23.98016,29.252609968185425
1618824387.42624,-26.2944,29.268239974975586
1618824387.44186,-29.6181,29.283859968185425
1618824387.45749,-34.04617,29.299489974975586
1618824387.47311,-39.42297,29.315109968185425
1618824387.48874,-45.13379,29.330739974975586
1618824387.50437,-50.01572,29.346369981765747
1618824387.51999,-52.39783,29.361989974975586
1618824387.53562,-50.52325,29.377619981765747
1618824387.55124,-43.27643,29.393239974975586
1618824387.56687,-30.81284,29.408869981765747
1618824387.58249,-14.70261,29.424489974975586
1618824387.59812,2.517761,29.440119981765747
1618824387.61375,18.29034,29.455749988555908
1618824387.62937,30.9147,29.471369981765747
1618824387.645,39.91537,29.486999988555908
1618824387.66062,45.73941,29.502619981765747
1618824387.67625,49.08441,29.518249988555908
1618824387.69187,50.3457,29.533869981765747
1618824387.7075,49.49731,29.549499988555908
1618824387.72313,46.43216,29.56512999534607
1618824387.73875,41.40036,29.580749988555908
1618824387.75438,35.19666,29.59637999534607
1618824387.77,28.90323,29.611999988555908
1618824387.78563,23.414,29.62762999534607
1618824387.80125,19.07574,29.643249988555908
1618824387.81688,15.64938,29.65887999534607
1618824387.83251,12.58701,29.67451000213623
1618824387.84813,9.490311,29.69012999534607
1618824387.86376,6.402863,29.70576000213623
1618824387.87938,3.774338,29.72137999534607
1618824387.89501,2.191162,29.73701000213623
1618824387.91063,1.993332,29.75262999534607
1618824387.92626,3.036224,29.76826000213623
1618824387.94189,4.724106,29.78389000892639
1618824387.95751,6.230591,29.79951000213623
1618824387.97314,6.840317,29.81514000892639
1618824387.98876,6.187592,29.83076000213623
1618824388.00439,4.40741,29.84639000892639
1618824388.02001,1.954163,29.86201000213623
1618824388.03564,-0.6015625,29.87764000892639
1618824388.05127,-2.834518,29.893270015716553
1618824388.06689,-4.663513,29.90889000892639
1618824388.08252,-6.333969,29.924520015716553
1618824388.09814,-8.294815,29.94014000892639
1618824388.11377,-10.9659,29.955770015716553
1618824388.12939,-14.54942,29.97139000892639
1618824388.14502,-18.95055,29.987020015716553
1618824388.16065,-23.82065,30.002650022506714
1618824388.17627,-28.62328,30.018270015716553
1618824388.1919,-32.83426,30.033900022506714
1618824388.20752,-36.03889,30.049520015716553
1618824388.22315,-38.13075,30.065150022506714
1618824388.23877,-39.38446,30.080770015716553
1618824388.2544,-40.41121,30.096400022506714
1618824388.27003,-42.06808,30.112030029296875
1618824388.28565,-45.1736,30.127650022506714
1618824388.30128,-50.14874,30.143280029296875
1618824388.3169,-56.69658,30.158900022506714
1618824388.33253,-63.65231,30.174530029296875
1618824388.34815,-69.14124,30.190150022506714
1618824388.36378,-71.05414,30.205780029296875
1618824388.37941,-67.76167,30.221410036087036
1618824388.39503,-58.70667,30.237030029296875
1618824388.41066,-44.67468,30.252660036087036
1618824388.42628,-27.58459,30.268280029296875
1618824388.44191,-9.875473,30.283910036087036
1618824388.45753,6.209778,30.299530029296875
1618824388.47316,19.19228,30.315160036087036
1618824388.48879,28.53244,30.330790042877197
1618824388.50441,34.48436,30.346410036087036
1618824388.52004,37.71408,30.362040042877197
1618824388.53566,38.96024,30.377660036087036
1618824388.55129,38.82953,30.393290042877197
1618824388.56691,37.74754,30.408910036087036
1618824388.58254,36.03639,30.424540042877197
1618824388.59817,33.9519,30.44017004966736
1618824388.61379,31.76431,30.455790042877197
1618824388.62942,29.73125,30.47142004966736
1618824388.64504,28.05431,30.487040042877197
1618824388.66067,26.79337,30.50267004966736
1618824388.67629,25.8488,30.518290042877197
1618824388.69192,24.98534,30.53392004966736
1618824388.70755,23.97717,30.54955005645752
1618824388.72317,22.76373,30.56517004966736
1618824388.7388,21.52112,30.58080005645752
1618824388.75442,20.62926,30.59642004966736
1618824388.77005,20.44241,30.61205005645752
1618824388.78567,21.07834,30.62767004966736
1618824388.8013,22.25012,30.64330005645752
1618824388.81693,23.34767,30.65893006324768
1618824388.83255,23.62671,30.67455005645752
1618824388.84818,22.50777,30.69018006324768
1618824388.8638,19.80371,30.70580005645752
1618824388.87943,15.79231,30.72143006324768
1618824388.89505,11.10889,30.73705005645752
1618824388.91068,6.519485,30.75268006324768
1618824388.92631,2.629532,30.768310070037842
1618824388.94193,-0.3230286,30.78393006324768
1618824388.95756,-2.548904,30.799560070037842
1618824388.97318,-4.58783,30.81518006324768
1618824388.98881,-7.059753,30.830810070037842
1618824389.00443,-10.35501,30.84643006324768
1618824389.02006,-14.45805,30.862060070037842
1618824389.03569,-18.92455,30.877690076828003
1618824389.05131,-23.15434,30.893310070037842
1618824389.06694,-26.63402,30.908940076828003
1618824389.08256,-29.20381,30.924560070037842
1618824389.09819,-31.11411,30.940190076828003
1618824389.11381,-32.91173,30.955810070037842
1618824389.12944,-35.2657,30.971440076828003
1618824389.14507,-38.74034,30.987070083618164
1618824389.16069,-43.70541,31.002690076828003
1618824389.17632,-50.16272,31.018320083618164
1618824389.19194,-57.59833,31.033940076828003
1618824389.20757,-64.90936,31.049570083618164
1618824389.2232,-70.37579,31.065200090408325
1618824389.23882,-72.09096,31.080820083618164
1618824389.25445,-68.50853,31.096450090408325
1618824389.27007,-59.10936,31.112070083618164
1618824389.2857,-44.74191,31.127700090408325
1618824389.30132,-27.43513,31.143320083618164
1618824389.31695,-9.769302,31.158950090408325
1618824389.33258,5.99794,31.174580097198486
1618824389.3482,18.45718,31.190200090408325
1618824389.36383,27.29152,31.205830097198486
1618824389.37945,32.93004,31.221450090408325
1618824389.39508,36.12526,31.237080097198486
1618824389.4107,37.54057,31.252700090408325
1618824389.42633,37.61507,31.268330097198486
1618824389.44196,36.623,31.283960103988647
1618824389.45758,34.82072,31.299580097198486
1618824389.47321,32.50838,31.315210103988647
1618824389.48883,30.03555,31.330830097198486
1618824389.50446,27.74919,31.346460103988647
1618824389.52008,25.92062,31.362080097198486
1618824389.53571,24.6862,31.377710103988647
1618824389.55134,24.02017,31.39334011077881
1618824389.56696,23.72681,31.408960103988647
1618824389.58259,23.51358,31.42459011077881
1618824389.59821,23.13979,31.440210103988647
1618824389.61384,22.5537,31.45584011077881
1618824389.62946,21.91393,31.471460103988647
1618824389.64509,21.53239,31.48709011077881
1618824389.66072,21.63194,31.50272011756897
1618824389.67634,22.16396,31.51834011077881
1618824389.69197,22.77451,31.53397011756897
1618824389.70759,22.90305,31.54959011077881
1618824389.72322,22.03038,31.56522011756897
1618824389.73884,19.91505,31.58084011077881
1618824389.75447,16.69489,31.59647011756897
1618824389.7701,12.80489,31.61210012435913
1618824389.78572,8.827209,31.62772011756897
1618824389.80135,5.239059,31.64335012435913
1618824389.81697,2.247437,31.65897011756897
1618824389.8326,-0.277298,31.67460012435913
1618824389.84822,-2.75441,31.69022011756897
1618824389.86385,-5.667587,31.70585012435913
1618824389.87948,-9.312485,31.721479892730713
1618824389.8951,-13.60472,31.73710012435913
1618824389.91073,-18.13068,31.752729892730713
1618824389.92635,-22.28307,31.76835012435913
1618824389.94198,-25.57889,31.783979892730713
1618824389.9576,-27.90303,31.79960012435913
1618824389.97323,-29.50072,31.815229892730713
1618824389.98886,-30.88277,31.830859899520874
1618824390.00448,-32.56252,31.846479892730713
1618824390.02011,-34.95261,31.862109899520874
1618824390.03573,-38.33786,31.877729892730713
1618824390.05136,-42.9252,31.893359899520874
1618824390.06698,-48.78398,31.908979892730713
1618824390.08261,-55.5779,31.924609899520874
1618824390.09824,-62.31508,31.940239906311035
1618824390.11386,-67.29312,31.955859899520874
1618824390.12949,-68.50989,31.971489906311035
1618824390.14511,-64.37556,31.987109899520874
1618824390.16074,-54.47415,32.002739906311035
1618824390.17636,-39.8903,32.018359899520874
1618824390.19199,-22.92339,32.033989906311035
1618824390.20762,-6.255035,32.049619913101196
1618824390.22324,7.998032,32.065239906311035
1618824390.23887,18.87238,32.080869913101196
1618824390.25449,26.58202,32.096489906311035
1618824390.27012,31.97821,32.112119913101196
1618824390.28574,35.9057,32.127739906311035
1618824390.30137,38.79926,32.143369913101196
1618824390.317,40.61508,32.15899991989136
1618824390.33262,41.13779,32.174619913101196
1618824390.34825,40.34085,32.19024991989136
1618824390.36387,38.51332,32.205869913101196
1618824390.3795,36.21489,32.22149991989136
1618824390.39512,34.00212,32.237119913101196
1618824390.41075,32.17223,32.25274991989136
1618824390.42638,30.74205,32.26837992668152
1618824390.442,29.51601,32.28399991989136
1618824390.45763,28.31613,32.29962992668152
1618824390.47325,27.13002,32.31524991989136
1618824390.48888,26.15753,32.33087992668152
1618824390.5045,25.65465,32.34649991989136
1618824390.52013,25.80238,32.36212992668152
1618824390.53576,26.5318,32.37775993347168
1618824390.55138,27.54636,32.39337992668152
1618824390.56701,28.34973,32.40900993347168
1618824390.58263,28.4364,32.42462992668152
1618824390.59826,27.3934,32.44025993347168
1618824390.61388,25.10213,32.45587992668152
1618824390.62951,21.77647,32.47150993347168
1618824390.64514,17.87675,32.48713994026184
1618824390.66076,13.97455,32.50275993347168
1618824390.67639,10.50937,32.51838994026184
1618824390.69201,7.668747,32.53400993347168
1618824390.70764,5.327332,32.54963994026184
1618824390.72326,3.146378,32.56525993347168
1618824390.73889,0.7255096,32.58088994026184
1618824390.75452,-2.219711,32.596519947052
1618824390.77014,-5.761368,32.61213994026184
1618824390.78577,-9.760742,32.627769947052
1618824390.80139,-13.9063,32.64338994026184
1618824390.81702,-17.82719,32.659019947052
1618824390.83264,-21.20274,32.67463994026184
1618824390.84827,-23.84341,32.690269947052
1618824390.8639,-25.76141,32.70589995384216
1618824390.87952,-27.20766,32.721519947052
1618824390.89515,-28.56995,32.73714995384216
1618824390.91077,-30.34331,32.752769947052
1618824390.9264,-33.028,32.76839995384216
1618824390.94202,-37.05858,32.784019947052
1618824390.95765,-42.68849,32.79964995384216
1618824390.97328,-49.75119,32.815279960632324
1618824390.9889,-57.42447,32.83089995384216
1618824391.00453,-64.10533,32.846529960632324
1618824391.02015,-67.70938,32.86214995384216
1618824391.03578,-66.28143,32.877779960632324
1618824391.0514,-58.84171,32.89339995384216
1618824391.06703,-45.92378,32.909029960632324
1618824391.08266,-29.5284,32.924659967422485
1618824391.09828,-12.42758,32.940279960632324
1618824391.11391,2.843018,32.955909967422485
1618824391.12953,14.78615,32.971529960632324
1618824391.14516,23.22243,32.987159967422485
1618824391.16078,28.84589,33.002779960632324
1618824391.17641,32.6077,33.018409967422485
1618824391.19204,35.11923,33.03403997421265
1618824391.20766,36.54843,33.049659967422485
1618824391.22329,36.79752,33.06528997421265
1618824391.23891,35.92065,33.080909967422485
1618824391.25454,34.22971,33.09653997421265
1618824391.27016,32.24626,33.112159967422485
1618824391.28579,30.44974,33.12778997421265
1618824391.30142,29.04938,33.14341998100281
1618824391.31704,27.98512,33.15903997421265
1618824391.33267,26.9859,33.17466998100281
1618824391.34829,25.85414,33.19028997421265
1618824391.36392,24.5742,33.20591998100281
1618824391.37954,23.33105,33.22153997421265
1618824391.39517,22.4173,33.23716998100281
1618824391.4108,22.0656,33.25279998779297
1618824391.42642,22.30455,33.26841998100281
1618824391.44205,22.93011,33.28404998779297
1618824391.45767,23.57098,33.29966998100281
1618824391.4733,23.79036,33.31529998779297
1618824391.48892,23.23581,33.33091998100281
1618824391.50455,21.74001,33.34654998779297
1618824391.52018,19.32077,33.36217999458313
1618824391.5358,16.19505,33.37779998779297
1618824391.55143,12.67288,33.39342999458313
1618824391.56705,9.156143,33.40904998779297
1618824391.58268,6.000046,33.42467999458313
1618824391.5983,3.452499,33.44029998779297
1618824391.61393,1.520218,33.45592999458313
1618824391.62956,-0.07832336,33.47156000137329
1618824391.64518,-1.850983,33.48717999458313
1618824391.66081,-4.344635,33.50281000137329
1618824391.67643,-7.877029,33.51842999458313
1618824391.69206,-12.42667,33.53406000137329
1618824391.70768,-17.56348,33.54967999458313
1618824391.72331,-22.6609,33.56531000137329
1618824391.73894,-27.11644,33.58094000816345
1618824391.75456,-30.56232,33.59656000137329
1618824391.77019,-32.93466,33.61219000816345
1618824391.78581,-34.47604,33.62781000137329
1618824391.80144,-35.6344,33.64344000816345
1618824391.81707,-37.00217,33.65907001495361
1618824391.83269,-39.2617,33.67469000816345
1618824391.84832,-42.9777,33.69032001495361
1618824391.86394,-48.32125,33.70594000816345
1618824391.87957,-54.75248,33.72157001495361
1618824391.89519,-60.86082,33.73719000816345
1618824391.91082,-64.5809,33.75282001495361
1618824391.92645,-63.8465,33.768450021743774
1618824391.94207,-57.38383,33.78407001495361
1618824391.9577,-45.31855,33.799700021743774
1618824391.97332,-29.2747,33.81532001495361
1618824391.98895,-11.80341,33.830950021743774
1618824392.00457,4.482773,33.84657001495361
1618824392.0202,17.73115,33.862200021743774
1618824392.03583,27.2355,33.877830028533936
1618824392.05145,33.29425,33.893450021743774
1618824392.06708,36.73737,33.909080028533936
1618824392.0827,38.39721,33.924700021743774
1618824392.09833,38.83585,33.940330028533936
1618824392.11395,38.31893,33.955950021743774
1618824392.12958,37.02965,33.971580028533936
1618824392.14521,35.18529,33.9872100353241
1618824392.16083,33.07632,34.002830028533936
1618824392.17646,30.98554,34.0184600353241
1618824392.19208,29.06619,34.034080028533936
1618824392.20771,27.34809,34.0497100353241
1618824392.22333,25.77553,34.065330028533936
1618824392.23896,24.31595,34.0809600353241
1618824392.25459,23.03081,34.09659004211426
1618824392.27021,22.03176,34.1122100353241
1618824392.28584,21.40488,34.12784004211426
1618824392.30146,21.15822,34.1434600353241
1618824392.31709,21.19853,34.15909004211426
1618824392.33271,21.3908,34.1747100353241
1618824392.34834,21.56071,34.19034004211426
1618824392.36397,21.58179,34.20597004890442
1618824392.37959,21.33323,34.22159004211426
1618824392.39522,20.67004,34.23722004890442
1618824392.41084,19.42899,34.25284004211426
1618824392.42647,17.4768,34.26847004890442
1618824392.44209,14.79283,34.28409004211426
1618824392.45772,11.56331,34.29972004890442
1618824392.47335,8.144234,34.31535005569458
1618824392.48897,4.951782,34.33097004890442
1618824392.5046,2.262909,34.34660005569458
1618824392.52022,0.06130981,34.36222004890442
1618824392.53585,-1.989769,34.37785005569458
1618824392.55147,-4.397606,34.39347004890442
1618824392.5671,-7.569656,34.40910005569458
1618824392.58273,-11.58983,34.42473006248474
1618824392.59835,-16.10469,34.44035005569458
1618824392.61398,-20.50364,34.45598006248474
1618824392.6296,-24.16158,34.47160005569458
1618824392.64523,-26.75567,34.48723006248474
1618824392.66085,-28.41293,34.50285005569458
1618824392.67648,-29.63045,34.51848006248474
1618824392.69211,-31.07479,34.5341100692749
1618824392.70773,-33.34106,34.54973006248474
1618824392.72336,-36.84727,34.5653600692749
1618824392.73898,-41.74685,34.58098006248474
1618824392.75461,-47.82762,34.5966100692749
1618824392.77023,-54.41763,34.61223006248474
1618824392.78586,-60.28079,34.6278600692749
1618824392.80149,-63.76194,34.64349007606506
1618824392.81711,-63.18551,34.6591100692749
1618824392.83274,-57.46583,34.67474007606506
1618824392.84836,-46.64849,34.6903600692749
1618824392.86399,-32.05204,34.70599007606506
1618824392.87961,-15.88119,34.7216100692749
1618824392.89524,-0.4803467,34.73724007606506
1618824392.91087,12.43692,34.752870082855225
1618824392.92649,22.19389,34.76849007606506
1618824392.94212,29.05222,34.784120082855225
1618824392.95774,33.70853,34.79974007606506
1618824392.97337,36.7737,34.815370082855225
1618824392.98899,38.5271,34.83099007606506
1618824393.00462,38.91482,34.846620082855225
1618824393.02025,37.90601,34.862250089645386
1618824393.03587,35.67886,34.877870082855225
1618824393.0515,32.67113,34.893500089645386
1618824393.06712,29.47446,34.909120082855225
1618824393.08275,26.56583,34.924750089645386
1618824393.09837,24.21238,34.940370082855225
1618824393.114,22.44566,34.956000089645386
1618824393.12963,21.21864,34.97163009643555
1618824393.14525,20.47778,34.987250089645386
1618824393.16088,20.22316,35.00288009643555
1618824393.1765,20.45744,35.018500089645386
1618824393.19213,21.08173,35.03413009643555
1618824393.20775,21.90485,35.049750089645386
1618824393.22338,22.65202,35.06538009643555
1618824393.23901,23.06503,35.08101010322571
1618824393.25463,22.95097,35.09663009643555
1618824393.27026,22.23601,35.11226010322571
1618824393.28588,20.94266,35.12788009643555
1618824393.30151,19.13647,35.14351010322571
1618824393.31713,16.90205,35.15913009643555
1618824393.33276,14.31816,35.17476010322571
1618824393.34839,11.4999,35.19039011001587
1618824393.36401,8.602844,35.20601010322571
1618824393.37964,5.800255,35.22164011001587
1618824393.39526,3.185806,35.23726010322571
1618824393.41089,0.7107925,35.25289011001587
1618824393.42651,-1.86042,35.26851010322571
1618824393.44214,-4.858368,35.28414011001587
1618824393.45777,-8.489861,35.29977011680603
1618824393.47339,-12.72374,35.31539011001587
1618824393.48902,-17.20838,35.33102011680603
1618824393.50464,-21.36285,35.34664011001587
1618824393.52027,-24.64706,35.36227011680603
1618824393.53589,-26.82635,35.37789011001587
1618824393.55152,-28.06017,35.39352011680603
1618824393.56715,-28.84933,35.40915012359619
1618824393.58277,-29.82249,35.42477011680603
1618824393.5984,-31.52074,35.44040012359619
1618824393.61402,-34.35338,35.45602011680603
1618824393.62965,-38.56203,35.47165012359619
1618824393.64527,-44.22575,35.48727011680603
1618824393.6609,-51.01553,35.50290012359619
1618824393.67653,-58.03104,35.51852989196777
1618824393.69215,-63.6711,35.53415012359619
1618824393.70778,-66.0156,35.54977989196777
1618824393.7234,-63.3844,35.56540012359619
1618824393.73903,-55.12797,35.58102989196777
1618824393.75465,-42.02355,35.59665012359619
1618824393.77028,-26.05051,35.61227989196777
1618824393.78591,-9.765953,35.627909898757935
1618824393.80153,4.67408,35.64352989196777
1618824393.81716,16.08791,35.659159898757935
1618824393.83278,24.39394,35.67477989196777
1618824393.84841,30.15762,35.690409898757935
1618824393.86403,34.05795,35.70602989196777
1618824393.87966,36.44106,35.721659898757935
1618824393.89529,37.35988,35.737289905548096
1618824393.91091,36.81036,35.752909898757935
1618824393.92654,35.024,35.768539905548096
1618824393.94216,32.51004,35.784159898757935
1618824393.95779,29.85997,35.799789905548096
1618824393.97341,27.49364,35.815409898757935
1618824393.98904,25.45354,35.831039905548096
1618824394.00467,23.55495,35.84666991233826
1618824394.02029,21.57214,35.862289905548096
1618824394.03592,19.49456,35.87791991233826
1618824394.05154,17.6,35.893539905548096
1618824394.06717,16.31705,35.90916991233826
1618824394.0828,15.98263,35.92479991912842
1618824394.09842,16.64602,35.94041991233826
1618824394.11405,18.04831,35.95604991912842
1618824394.12967,19.67661,35.97166991233826
1618824394.1453,20.9643,35.98729991912842
1618824394.16092,21.47074,36.00291991233826
1618824394.17655,20.91859,36.01854991912842
1618824394.19218,19.26791,36.03417992591858
1618824394.2078,16.64851,36.04979991912842
1618824394.22343,13.35546,36.06542992591858
1618824394.23905,9.793968,36.08104991912842
1618824394.25468,6.412689,36.09667992591858
1618824394.2703,3.569389,36.11229991912842
1618824394.28593,1.423317,36.12792992591858
1618824394.30156,-0.1533279,36.14355993270874
1618824394.31718,-1.535797,36.15917992591858
1618824394.33281,-3.21122,36.17480993270874
1618824394.34843,-5.579964,36.19042992591858
1618824394.36406,-8.780952,36.20605993270874
1618824394.37968,-12.59962,36.22167992591858
1618824394.39531,-16.51669,36.23730993270874
1618824394.41094,-19.96432,36.2529399394989
1618824394.42656,-22.55846,36.26855993270874
1618824394.44219,-24.26959,36.2841899394989
1618824394.45781,-25.45078,36.29980993270874
1618824394.47344,-26.71808,36.3154399394989
1618824394.48906,-28.73933,36.33105993270874
1618824394.50469,-32.06903,36.3466899394989
1618824394.52032,-36.97124,36.36231994628906
1618824394.53594,-43.25777,36.3779399394989
1618824394.55157,-50.1067,36.39356994628906
1618824394.56719,-56.02335,36.4091899394989
1618824394.58282,-59.04977,36.42481994628906
1618824394.59844,-57.33729,36.4404399394989
1618824394.61407,-49.86627,36.45606994628906
1618824394.6297,-37.0335,36.471699953079224
1618824394.64532,-20.66944,36.48731994628906
1618824394.66095,-3.50602,36.502949953079224
1618824394.67657,11.77966,36.51856994628906
1618824394.6922,23.4671,36.534199953079224
1618824394.70782,31.1576,36.54981994628906
1618824394.72345,35.50022,36.565449953079224
1618824394.73908,37.58133,36.581079959869385
1618824394.7547,38.27293,36.596699953079224
1618824394.77033,37.97248,36.612329959869385
1618824394.78595,36.75636,36.627949953079224
1618824394.80158,34.68144,36.643579959869385
1618824394.8172,32.06046,36.659199953079224
1618824394.83283,29.37386,36.674829959869385
1618824394.84846,27.11254,36.690459966659546
1618824394.86408,25.49792,36.706079959869385
1618824394.87971,24.39236,36.721709966659546
1618824394.89533,23.46348,36.737329959869385
1618824394.91096,22.36694,36.752959966659546
1618824394.92658,21.03283,36.768579959869385
1618824394.94221,19.71718,36.784209966659546
1618824394.95784,18.88213,36.79983997344971
1618824394.97346,18.93611,36.815459966659546
1618824394.98909,19.98576,36.83108997344971
1618824395.00471,21.68886,36.846709966659546
1618824395.02034,23.34744,36.86233997344971
1618824395.03596,24.17671,36.877959966659546
1618824395.05159,23.58501,36.89358997344971
1618824395.06722,21.39503,36.90921998023987
1618824395.08284,17.87064,36.92483997344971
1618824395.09847,13.5978,36.94046998023987
1618824395.11409,9.275452,36.95608997344971
1618824395.12972,5.499054,36.97171998023987
1618824395.14534,2.63343,36.98733997344971
1618824395.16097,0.7150726,37.00296998023987
1618824395.1766,-0.5643311,37.01859998703003
1618824395.19222,-1.777725,37.03421998023987
1618824395.20785,-3.582489,37.04984998703003
1618824395.22347,-6.437027,37.06546998023987
1618824395.2391,-10.40717,37.08109998703003
1618824395.25472,-15.02981,37.09671998023987
1618824395.27035,-19.52418,37.11234998703003
1618824395.28598,-23.14287,37.12797999382019
1618824395.3016,-25.54234,37.14359998703003
1618824395.31723,-26.94559,37.15922999382019
1618824395.33285,-28.04124,37.17484998703003
1618824395.34848,-29.68421,37.19047999382019
1618824395.3641,-32.55582,37.20609998703003
1618824395.37973,-37.00188,37.22172999382019
1618824395.39536,-42.87936,37.23736000061035
1618824395.41098,-49.58467,37.25297999382019
1618824395.42661,-55.97147,37.26861000061035
1618824395.44223,-60.47584,37.28422999382019
1618824395.45786,-61.36301,37.29986000061035
1618824395.47348,-57.27913,37.31547999382019
1618824395.48911,-47.79302,37.33111000061035
1618824395.50474,-33.70643,37.34674000740051
1618824395.52036,-16.94121,37.36236000061035
1618824395.53599,0.03713226,37.37799000740051
1618824395.55161,14.98076,37.39361000061035
1618824395.56724,26.52525,37.40924000740051
1618824395.58286,34.33309,37.42486000061035
1618824395.59849,38.8683,37.44049000740051
1618824395.61412,40.873,37.456120014190674
1618824395.62974,41.01069,37.47174000740051
1618824395.64537,39.68082,37.487370014190674
1618824395.66099,37.14492,37.50299000740051
1618824395.67662,33.71896,37.518620014190674
1618824395.69224,29.85621,37.53424000740051
1618824395.70787,26.10085,37.549870014190674
1618824395.7235,22.909,37.565500020980835
1618824395.73912,20.48566,37.581120014190674
1618824395.75475,18.78605,37.596750020980835
1618824395.77037,17.57301,37.612370014190674
1618824395.786,16.63075,37.628000020980835
1618824395.80162,15.88352,37.643620014190674
1618824395.81725,15.43738,37.659250020980835
1618824395.83288,15.44376,37.674880027770996
1618824395.8485,15.96808,37.690500020980835
1618824395.86413,16.83195,37.706130027770996
1618824395.87975,17.64977,37.721750020980835
1618824395.89538,17.96191,37.737380027770996
1618824395.911,17.41087,37.753000020980835
1618824395.92663,15.83706,37.768630027770996
1618824395.94226,13.37505,37.78426003456116
1618824395.95788,10.36238,37.799880027770996
1618824395.97351,7.241364,37.81551003456116
1618824395.98913,4.377518,37.831130027770996
1618824396.00476,1.96936,37.84676003456116
1618824396.02038,-0.03587341,37.862380027770996
1618824396.03601,-1.913277,37.87801003456116
1618824396.05164,-4.044777,37.89364004135132
1618824396.06726,-6.737175,37.90926003456116
1618824396.08289,-10.04824,37.92489004135132
1618824396.09851,-13.7314,37.94051003456116
1618824396.11414,-17.33005,37.95614004135132
1618824396.12976,-20.39747,37.97176003456116
1618824396.14539,-22.71111,37.98739004135132
1618824396.16102,-24.43799,38.00302004814148
1618824396.17664,-26.06655,38.01864004135132
1618824396.19227,-28.24581,38.03427004814148
1618824396.20789,-31.55966,38.04989004135132
1618824396.22352,-36.33194,38.06552004814148
1618824396.23914,-42.4738,38.08114004135132
1618824396.25477,-49.34311,38.09677004814148
1618824396.2704,-55.73796,38.11240005493164
1618824396.28602,-60.01569,38.12802004814148
1618824396.30165,-60.5118,38.14365005493164
1618824396.31727,-56.02622,38.15927004814148
1618824396.3329,-46.3792,38.17490005493164
1618824396.34853,-32.56371,38.1905300617218
1618824396.36415,-16.55127,38.20615005493164
1618824396.37978,-0.6732483,38.2217800617218
1618824396.3954,13.09734,38.23740005493164
1618824396.41103,23.64964,38.2530300617218
1618824396.42665,30.78777,38.26865005493164
1618824396.44228,35.01379,38.2842800617218
1618824396.45791,37.05429,38.29991006851196
1618824396.47353,37.55689,38.3155300617218
1618824396.48916,36.92915,38.33116006851196
1618824396.50478,35.45354,38.3467800617218
1618824396.52041,33.37057,38.36241006851196
1618824396.53603,30.92442,38.3780300617218
1618824396.55166,28.35763,38.39366006851196
1618824396.56729,25.83366,38.409290075302124
1618824396.58291,23.42008,38.42491006851196
1618824396.59854,21.10815,38.440540075302124
1618824396.61416,18.89628,38.45616006851196
1618824396.62979,16.87457,38.471790075302124
1618824396.64541,15.26933,38.48741006851196
1618824396.66104,14.3656,38.503040075302124
1618824396.67667,14.36424,38.518670082092285
1618824396.69229,15.22744,38.534290075302124
1618824396.70792,16.55921,38.549920082092285
1618824396.72354,17.72193,38.565540075302124
1618824396.73917,18.018,38.581170082092285
1618824396.75479,16.97101,38.596790075302124
1618824396.77042,14.56118,38.612420082092285
1618824396.78605,11.20462,38.628050088882446
1618824396.80167,7.571068,38.643670082092285
1618824396.8173,4.295204,38.659300088882446
1618824396.83292,1.710266,38.674920082092285
1618824396.84855,-0.2570419,38.690550088882446
1618824396.86417,-1.99279,38.706170082092285
1618824396.8798,-4.015831,38.721800088882446
1618824396.89543,-6.709412,38.73743009567261
1618824396.91105,-10.17394,38.753050088882446
1618824396.92668,-14.19669,38.76868009567261
1618824396.9423,-18.33862,38.784300088882446
1618824396.95793,-22.12057,38.79993009567261
1618824396.97355,-25.24149,38.815550088882446
1618824396.98918,-27.72545,38.83118009567261
1618824397.00481,-29.88137,38.84681010246277
1618824397.02043,-32.20792,38.86243009567261
1618824397.03606,-35.21423,38.87806010246277
1618824397.05168,-39.24802,38.89368009567261
1618824397.06731,-44.33032,38.90931010246277
1618824397.08293,-50.01065,38.92493009567261
1618824397.09856,-55.33994,38.94056010246277
1618824397.11419,-58.88371,38.95619010925293
1618824397.12981,-59.11781,38.97181010246277
1618824397.14544,-54.85806,38.98744010925293
1618824397.16106,-45.84155,39.00306010246277
1618824397.17669,-32.95854,39.01869010925293
1618824397.19231,-18.07652,39.03431010246277
1618824397.20794,-3.483398,39.04994010925293
1618824397.22357,8.92485,39.06557011604309
1618824397.23919,18.17678,39.08119010925293
1618824397.25482,24.36394,39.09682011604309
1618824397.27044,28.24103,39.11244010925293
1618824397.28607,30.64991,39.12807011604309
1618824397.30169,32.09487,39.14369010925293
1618824397.31732,32.62556,39.15932011604309
1618824397.33295,32.08292,39.17495012283325
1618824397.34857,30.40488,39.19057011604309
1618824397.3642,27.84943,39.20620012283325
1618824397.37982,24.91486,39.22182011604309
1618824397.39545,22.15208,39.23745012283325
1618824397.41107,19.96028,39.25307011604309
1618824397.4267,18.47605,39.26870012283325
1618824397.44233,17.6315,39.284329891204834
1618824397.45795,17.25681,39.29995012283325
1618824397.47358,17.16505,39.315579891204834
1618824397.4892,17.19717,39.33120012283325
1618824397.50483,17.22832,39.346829891204834
1618824397.52045,17.15244,39.36245012283325
1618824397.53608,16.91191,39.378079891204834
1618824397.55171,16.45503,39.393709897994995
1618824397.56733,15.73644,39.409329891204834
1618824397.58296,14.68179,39.424959897994995
1618824397.59858,13.17359,39.440579891204834
1618824397.61421,11.12865,39.456209897994995
1618824397.62983,8.480034,39.471829891204834
1618824397.64546,5.305061,39.487459897994995
1618824397.66109,1.75412,39.503089904785156
1618824397.67671,-1.974007,39.518709897994995
1618824397.69234,-5.700348,39.534339904785156
1618824397.70796,-9.310173,39.549959897994995
1618824397.72359,-12.72018,39.565589904785156
1618824397.73921,-15.87898,39.581209897994995
1618824397.75484,-18.74377,39.596839904785156
1618824397.77047,-21.39656,39.61246991157532
1618824397.78609,-24.03157,39.628089904785156
1618824397.80172,-27.04362,39.64371991157532
1618824397.81734,-30.85624,39.659339904785156
1618824397.83297,-35.7329,39.67496991157532
1618824397.84859,-41.48927,39.690589904785156
1618824397.86422,-47.30811,39.70621991157532
1618824397.87985,-51.84068,39.72184991836548
1618824397.89547,-53.53002,39.73746991157532
1618824397.9111,-51.15213,39.75309991836548
1618824397.92672,-44.29299,39.76871991157532
1618824397.94235,-33.61053,39.78434991836548
1618824397.95797,-20.61642,39.79996991157532
1618824397.9736,-7.191322,39.81559991836548
1618824397.98923,5.005211,39.83122992515564
1618824398.00485,14.97353,39.84684991836548
1618824398.02048,22.4487,39.86247992515564
1618824398.0361,27.71931,39.87809991836548
1618824398.05173,31.2716,39.89372992515564
1618824398.06735,33.51807,39.90934991836548
1618824398.08298,34.66978,39.92497992515564
1618824398.09861,34.82808,39.9406099319458
1618824398.11423,34.05484,39.95622992515564
1618824398.12986,32.46702,39.9718599319458
1618824398.14548,30.26129,39.98747992515564
1618824398.16111,27.71016,40.0031099319458
1618824398.17673,25.11124,40.01872992515564
1618824398.19236,22.73418,40.0343599319458
1618824398.20799,20.77274,40.04998993873596
1618824398.22361,19.32574,40.0656099319458
1618824398.23924,18.43708,40.08123993873596
1618824398.25486,18.11089,40.0968599319458
1618824398.27049,18.34468,40.11248993873596
1618824398.28611,19.0535,40.1281099319458
1618824398.30174,19.96292,40.14373993873596
1618824398.31737,20.62105,40.15936994552612
1618824398.33299,20.48967,40.17498993873596
1618824398.34862,19.16843,40.19061994552612
1618824398.36424,16.61842,40.20623993873596
1618824398.37987,13.22628,40.22186994552612
1618824398.39549,9.642838,40.23748993873596
1618824398.41112,6.437561,40.25311994552612
1618824398.42675,3.860527,40.268749952316284
1618824398.44237,1.705612,40.28436994552612
1618824398.458,-0.4816284,40.299999952316284
1618824398.47362,-3.152687,40.31561994552612
1618824398.48925,-6.52198,40.331249952316284
1618824398.50487,-10.43951,40.34686994552612
1618824398.5205,-14.55489,40.362499952316284
1618824398.53613,-18.44531,40.378129959106445
1618824398.55175,-21.85438,40.393749952316284
1618824398.56738,-24.73479,40.409379959106445
1618824398.583,-27.25609,40.424999952316284
1618824398.59863,-29.75224,40.440629959106445
1618824398.61425,-32.68868,40.456249952316284
1618824398.62988,-36.52122,40.471879959106445
1618824398.64551,-41.54002,40.487509965896606
1618824398.66113,-47.57729,40.503129959106445
1618824398.67676,-53.82832,40.518759965896606
1618824398.69238,-58.8443,40.534379959106445
1618824398.70801,-60.876,40.550009965896606
1618824398.72363,-58.45357,40.565629959106445
1618824398.73926,-50.97852,40.581259965896606
1618824398.75489,-39.12059,40.59688997268677
1618824398.77051,-24.65109,40.612509965896606
1618824398.78614,-9.888367,40.62813997268677
1618824398.80176,3.116096,40.643759965896606
1618824398.81739,13.17637,40.65938997268677
1618824398.83301,20.19464,40.675009965896606
1618824398.84864,24.84167,40.69063997268677
1618824398.86427,28.026,40.70626997947693
1618824398.87989,30.41224,40.72188997268677
1618824398.89552,32.20711,40.73751997947693
1618824398.91114,33.30238,40.75313997268677
1618824398.92677,33.52138,40.76876997947693
1618824398.94239,32.84633,40.78438997268677
1618824398.95802,31.49522,40.80001997947693
1618824398.97365,29.81941,40.81564998626709
1618824398.98927,28.14311,40.83126997947693
1618824399.0049,26.62921,40.84689998626709
1618824399.02052,25.29408,40.86251997947693
1618824399.03615,24.08696,40.87814998626709
1618824399.05178,22.98965,40.89377999305725
1618824399.0674,22.13249,40.90939998626709
1618824399.08303,21.70457,40.92502999305725
1618824399.09865,21.80104,40.94064998626709
1618824399.11428,22.33826,40.95627999305725
1618824399.1299,23.05136,40.97189998626709
1618824399.14553,23.5751,40.98752999305725
1618824399.16116,23.52168,41.00315999984741
1618824399.17678,22.60939,41.01877999305725
1618824399.19241,20.78323,41.03440999984741
1618824399.20803,18.22566,41.05002999305725
1618824399.22366,15.20181,41.06565999984741
1618824399.23928,11.88902,41.08127999305725
1618824399.25491,8.369812,41.09690999984741
1618824399.27054,4.713867,41.11254000663757
1618824399.28616,1.081177,41.12815999984741
1618824399.30179,-2.25531,41.14379000663757
1618824399.31741,-5.063477,41.15940999984741
1618824399.33304,-7.273926,41.17504000663757
1618824399.34866,-8.967926,41.19065999984741
1618824399.36429,-10.59416,41.20629000663757
1618824399.37992,-12.81024,41.221920013427734
1618824399.39554,-16.08301,41.23754000663757
1618824399.41117,-20.26233,41.253170013427734
1618824399.42679,-24.5256,41.26879000663757
1618824399.44242,-27.82669,41.284420013427734
1618824399.45804,-29.56976,41.30004000663757
1618824399.47367,-30.16408,41.315670013427734
1618824399.4893,-30.59604,41.331300020217896
1618824399.50492,-32.48344,41.346920013427734
1618824399.52055,-37.20699,41.362550020217896
1618824399.53617,-44.80669,41.378170013427734
1618824399.5518,-53.22876,41.393800020217896
1618824399.56742,-58.83589,41.409420013427734
1618824399.58305,-57.9352,41.425050020217896
1618824399.59868,-48.3461,41.44068002700806
1618824399.6143,-30.34872,41.456300020217896
1618824399.62993,-5.629135,41.47193002700806
1618824399.64555,22.10497,41.487550020217896
1618824399.66118,47.79463,41.50318002700806
1618824399.6768,66.31175,41.518800020217896
1618824399.69243,74.17313,41.53443002700806
1618824399.70806,70.41975,41.55006003379822
1618824399.72368,56.81589,41.56568002700806
1618824399.73931,37.62698,41.58131003379822
1618824399.75493,18.88612,41.59693002700806
1618824399.77056,8.248505,41.61256003379822
1618824399.78618,10.62949,41.62818002700806
1618824399.80181,25.60191,41.64381003379822
1618824399.81744,47.44922,41.65944004058838
1618824399.83306,68.17362,41.67506003379822
1618824399.84869,81.09461,41.69069004058838
1618824399.86431,83.34613,41.70631003379822
1618824399.87994,76.66417,41.72194004058838
1618824399.89556,66.23402,41.73756003379822
1618824399.91119,60.06898,41.75319004058838
1618824399.92682,63.54083,41.76882004737854
1618824399.94244,77.00449,41.78444004058838
1618824399.95807,96.4818,41.80007004737854
1618824399.97369,116.8004,41.81569004058838
1618824399.98932,133.9679,41.83132004737854
1618824400.00494,145.7568,41.84694004058838
1618824400.02057,151.3078,41.86257004737854
1618824400.0362,138.7895,41.8782000541687
1618824400.05182,104.1865,41.89382004737854
1618824400.06745,55.34831,41.9094500541687
1618824400.08307,6.928215,41.92507004737854
1618824400.0987,-31.1624,41.9407000541687
1618824400.11432,-56.76133,41.95632004737854
1618824400.12995,-71.63169,41.9719500541687
1618824400.14558,-78.09246,41.98758006095886
1618824400.1612,-77.942,42.0032000541687
1618824400.17683,-72.94089,42.01883006095886
1618824400.19245,-63.45108,42.0344500541687
1618824400.20808,-51.70143,42.05008006095886
1618824400.2237,-41.23129,42.0657000541687
1618824400.23933,-35.61915,42.08133006095886
1618824400.25496,-35.87616,42.09696006774902
1618824400.27058,-39.98104,42.11258006095886
