timestamp,value,norm_ts
1618159695.2339,14.39498,2.890429973602295
1618159695.24953,13.71288,2.906059980392456
1618159695.26515,12.90286,2.921679973602295
1618159695.28078,12.02489,2.937309980392456
1618159695.29641,11.16548,2.952939987182617
1618159695.31203,10.37371,2.968559980392456
1618159695.32766,9.640068,2.984189987182617
1618159695.34328,8.860474,2.999809980392456
1618159695.35891,7.829567,3.015439987182617
1618159695.37453,6.24086,3.031059980392456
1618159695.39016,3.795837,3.046689987182617
1618159695.40579,0.3486557,3.0623199939727783
1618159695.42141,-3.968651,3.077939987182617
1618159695.43704,-8.675301,3.0935699939727783
1618159695.45266,-13.11047,3.109189987182617
1618159695.46829,-16.62873,3.1248199939727783
1618159695.48391,-18.90542,3.140439987182617
1618159695.49954,-20.05502,3.1560699939727783
1618159695.51517,-20.65569,3.1717000007629395
1618159695.53079,-21.53748,3.1873199939727783
1618159695.54642,-23.43036,3.2029500007629395
1618159695.56204,-26.69617,3.2185699939727783
1618159695.57767,-31.0078,3.2342000007629395
1618159695.59329,-35.38679,3.2498199939727783
1618159695.60892,-38.40828,3.2654500007629395
1618159695.62455,-38.67913,3.2810800075531006
1618159695.64017,-35.28786,3.2967000007629395
1618159695.6558,-28.18856,3.3123300075531006
1618159695.67142,-18.22901,3.3279500007629395
1618159695.68705,-6.849533,3.3435800075531006
1618159695.70267,4.375954,3.3592000007629395
1618159695.7183,14.19653,3.3748300075531006
1618159695.73393,21.89997,3.3904600143432617
1618159695.74955,27.30339,3.4060800075531006
1618159695.76518,30.50893,3.4217100143432617
1618159695.7808,31.76076,3.4373300075531006
1618159695.79643,31.33084,3.4529600143432617
1618159695.81205,29.53126,3.4685800075531006
1618159695.82768,26.80223,3.4842100143432617
1618159695.84331,23.66976,3.499840021133423
1618159695.85893,20.65571,3.5154600143432617
1618159695.87456,18.09922,3.531090021133423
1618159695.89018,16.13361,3.5467100143432617
1618159695.90581,14.64573,3.562340021133423
1618159695.92143,13.37258,3.5779600143432617
1618159695.93706,12.09285,3.593590021133423
1618159695.95269,10.70075,3.609219789505005
1618159695.96831,9.315311,3.624840021133423
1618159695.98394,8.122948,3.640469789505005
1618159695.99956,7.283779,3.656090021133423
1618159696.01519,6.76004,3.671719789505005
1618159696.03081,6.343014,3.687340021133423
1618159696.04644,5.702276,3.702969789505005
1618159696.06207,4.53632,3.718599796295166
1618159696.07769,2.763689,3.734219789505005
1618159696.09332,0.515152,3.749849796295166
1618159696.10894,-1.874422,3.765469789505005
1618159696.12457,-4.070753,3.781099796295166
1618159696.14019,-5.881886,3.796719789505005
1618159696.15582,-7.339596,3.812349796295166
1618159696.17145,-8.646338,3.827979803085327
1618159696.18707,-10.10091,3.843599796295166
1618159696.2027,-11.98822,3.859229803085327
1618159696.21832,-14.4613,3.874849796295166
1618159696.23395,-17.52789,3.890479803085327
1618159696.24957,-20.83588,3.906099796295166
1618159696.2652,-23.74558,3.921729803085327
1618159696.28083,-25.38091,3.9373598098754883
1618159696.29645,-24.83888,3.952979803085327
1618159696.31208,-21.4892,3.9686098098754883
1618159696.3277,-15.2626,3.984229803085327
1618159696.34333,-6.72954,3.9998598098754883
1618159696.35895,3.047811,4.015479803085327
1618159696.37458,12.7233,4.031109809875488
1618159696.39021,21.14542,4.046739816665649
1618159696.40583,27.57364,4.062359809875488
1618159696.42146,31.82674,4.077989816665649
1618159696.43708,34.15438,4.093609809875488
1618159696.45271,35.01459,4.109239816665649
1618159696.46833,34.86019,4.124859809875488
1618159696.48396,33.96527,4.140489816665649
1618159696.49959,32.44228,4.1561198234558105
1618159696.51521,30.27537,4.171739816665649
1618159696.53084,27.47965,4.1873698234558105
1618159696.54646,24.1869,4.202989816665649
1618159696.56209,20.69223,4.2186198234558105
1618159696.57771,17.3962,4.234239816665649
1618159696.59334,14.66337,4.2498698234558105
1618159696.60897,12.68522,4.265499830245972
1618159696.62459,11.41899,4.2811198234558105
1618159696.64022,10.55968,4.296749830245972
1618159696.65584,9.578144,4.3123698234558105
1618159696.67147,7.854675,4.327999830245972
1618159696.68709,4.859578,4.3436198234558105
1618159696.70272,0.2271268,4.359249830245972
1618159696.71835,-6.138254,4.374879837036133
1618159696.73397,-14.09191,4.390499830245972
1618159696.7496,-23.22842,4.406129837036133
1618159696.76522,-32.88976,4.421749830245972
1618159696.78085,-42.26371,4.437379837036133
1618159696.79647,-50.48371,4.452999830245972
1618159696.8121,-56.7952,4.468629837036133
1618159696.82773,-60.75513,4.484259843826294
1618159696.84335,-62.33047,4.499879837036133
1618159696.85898,-61.88678,4.515509843826294
1618159696.8746,-59.95052,4.531129837036133
1618159696.89023,-56.98993,4.546759843826294
1618159696.90585,-53.15627,4.562379837036133
1618159696.92148,-48.19981,4.578009843826294
1618159696.93711,-41.6436,4.593639850616455
1618159696.95273,-33.0637,4.609259843826294
1618159696.96836,-22.38792,4.624889850616455
1618159696.98398,-10.10672,4.640509843826294
1618159696.99961,2.720263,4.656139850616455
1618159697.01523,14.79523,4.671759843826294
1618159697.03086,24.88673,4.687389850616455
1618159697.04649,32.19204,4.703019857406616
1618159697.06211,36.45205,4.718639850616455
1618159697.07774,37.89275,4.734269857406616
1618159697.09336,37.00629,4.749889850616455
1618159697.10899,34.33047,4.765519857406616
1618159697.12461,30.35386,4.781139850616455
1618159697.14024,25.46545,4.796769857406616
1618159697.15587,20.13603,4.812399864196777
1618159697.17149,14.86901,4.828019857406616
1618159697.18712,10.24176,4.843649864196777
1618159697.20274,6.728958,4.859269857406616
1618159697.21837,4.632298,4.874899864196777
1618159697.23399,3.988335,4.890519857406616
1618159697.24962,4.60387,4.906149864196777
1618159697.26525,6.176151,4.9217798709869385
1618159697.28087,8.27726,4.937399864196777
1618159697.2965,10.50376,4.9530298709869385
1618159697.31212,12.44279,4.968649864196777
1618159697.32775,13.73258,4.9842798709869385
1618159697.34337,14.12456,4.999899864196777
1618159697.359,13.55841,5.0155298709869385
1618159697.37463,12.14609,5.0311598777771
1618159697.39025,10.14035,5.0467798709869385
1618159697.40588,7.819412,5.0624098777771
1618159697.4215,5.291702,5.0780298709869385
1618159697.43713,2.469627,5.0936598777771
1618159697.45275,-0.9839134,5.1092798709869385
1618159697.46838,-5.510204,5.1249098777771
1618159697.48401,-11.44402,5.140539884567261
1618159697.49963,-18.84096,5.1561598777771
1618159697.51526,-27.30346,5.171789884567261
1618159697.53088,-35.96722,5.1874098777771
1618159697.54651,-43.61659,5.203039884567261
1618159697.56213,-48.92233,5.2186598777771
1618159697.57776,-50.68964,5.234289884567261
1618159697.59339,-48.23208,5.249919891357422
1618159697.60901,-41.51164,5.265539884567261
1618159697.62464,-31.21934,5.281169891357422
1618159697.64026,-18.61737,5.296789884567261
1618159697.65589,-5.208458,5.312419891357422
1618159697.67151,7.569786,5.328039884567261
1618159697.68714,18.63094,5.343669891357422
1618159697.70277,27.31654,5.359299898147583
1618159697.71839,33.37915,5.374919891357422
1618159697.73402,36.82366,5.390549898147583
1618159697.74964,37.8226,5.406169891357422
1618159697.76527,36.70924,5.421799898147583
1618159697.78089,33.94604,5.437419891357422
1618159697.79652,30.13268,5.453049898147583
1618159697.81215,25.91682,5.468679904937744
1618159697.82777,21.89314,5.484299898147583
1618159697.8434,18.46777,5.499929904937744
1618159697.85902,15.84173,5.515549898147583
1618159697.87465,14.01891,5.531179904937744
1618159697.89028,12.85627,5.546809911727905
1618159697.9059,12.18164,5.562429904937744
1618159697.92153,11.81968,5.578059911727905
1618159697.93715,11.64429,5.593679904937744
1618159697.95278,11.57023,5.609309911727905
1618159697.9684,11.55489,5.624929904937744
1618159697.98403,11.56056,5.640559911727905
1618159697.99966,11.54832,5.656189918518066
1618159698.01528,11.42266,5.671809911727905
1618159698.03091,11.03556,5.687439918518066
1618159698.04653,10.20715,5.703059911727905
1618159698.06216,8.764313,5.718689918518066
1618159698.07778,6.668457,5.734309911727905
1618159698.09341,4.159782,5.749939918518066
1618159698.10904,1.824921,5.7655699253082275
1618159698.12466,0.5089111,5.781189918518066
1618159698.14029,1.023613,5.7968199253082275
1618159698.15591,3.808853,5.812439918518066
1618159698.17154,8.71534,5.8280699253082275
1618159698.18716,14.92955,5.843689918518066
1618159698.20279,21.30878,5.8593199253082275
1618159698.21842,26.81639,5.874949932098389
1618159698.23404,30.92513,5.8905699253082275
1618159698.24967,33.74503,5.906199932098389
1618159698.26529,35.9184,5.9218199253082275
1618159698.28092,38.32012,5.937449932098389
1618159698.29654,41.82974,5.9530699253082275
1618159698.31217,47.18562,5.968699932098389
1618159698.3278,54.84089,5.98432993888855
1618159698.34342,64.86028,5.999949932098389
1618159698.35905,76.72385,6.01557993888855
1618159698.37467,89.29253,6.031199932098389
1618159698.3903,100.9715,6.04682993888855
1618159698.40592,110.1588,6.062449932098389
1618159698.42155,115.7851,6.07807993888855
1618159698.43718,117.7244,6.093709945678711
1618159698.4528,116.9915,6.10932993888855
1618159698.46843,115.5994,6.124959945678711
1618159698.48405,116.2068,6.14057993888855
1618159698.49968,121.3778,6.156209945678711
1618159698.5153,132.7493,6.17182993888855
1618159698.53093,150.2542,6.187459945678711
1618159698.54656,171.8416,6.203089952468872
1618159698.56218,193.9327,6.218709945678711
1618159698.57781,212.4867,6.234339952468872
1618159698.59343,224.3404,6.249959945678711
1618159698.60906,228.1007,6.265589952468872
1618159698.62468,224.3131,6.281209945678711
1618159698.64031,214.7384,6.296839952468872
1618159698.65594,201.3328,6.312469959259033
1618159698.67156,185.4611,6.328089952468872
1618159698.68719,167.7217,6.343719959259033
1618159698.70281,148.3683,6.359339952468872
1618159698.71844,127.8015,6.374969959259033
1618159698.73406,106.8141,6.390589952468872
1618159698.74969,86.39545,6.406219959259033
1618159698.76532,67.29099,6.421849966049194
1618159698.78094,49.61571,6.437469959259033
1618159698.79657,32.8902,6.453099966049194
1618159698.81219,16.39131,6.468719959259033
1618159698.82782,-0.3764038,6.484349966049194
1618159698.84344,-17.30862,6.499969959259033
1618159698.85907,-33.62933,6.515599966049194
1618159698.8747,-48.22421,6.5312299728393555
1618159698.89032,-60.10315,6.546849966049194
1618159698.90595,-68.86978,6.5624799728393555
1618159698.92157,-74.89957,6.578099966049194
1618159698.9372,-79.11856,6.5937299728393555
1618159698.95282,-82.56299,6.609349966049194
1618159698.96845,-85.93933,6.6249799728393555
1618159698.98408,-89.34045,6.640609979629517
1618159698.9997,-92.29568,6.6562299728393555
1618159699.01533,-94.11292,6.671859979629517
1618159699.03095,-94.23361,6.6874799728393555
1618159699.04658,-92.54785,6.703109979629517
1618159699.0622,-89.4313,6.7187299728393555
1618159699.07783,-85.58563,6.734359979629517
1618159699.09346,-81.7981,6.749989986419678
1618159699.10908,-78.80048,6.765609979629517
1618159699.12471,-77.11499,6.781239986419678
1618159699.14033,-77.22729,6.796859979629517
1618159699.15596,-79.65411,6.812489986419678
1618159699.17158,-84.92535,6.828109979629517
1618159699.18721,-93.44196,6.843739986419678
1618159699.20284,-105.2175,6.859369993209839
1618159699.21846,-119.6227,6.874989986419678
1618159699.23409,-135.4373,6.890619993209839
1618159699.24971,-151.0472,6.906239986419678
1618159699.26534,-164.8135,6.921869993209839
1618159699.28096,-175.4326,6.937489986419678
1618159699.29659,-182.0333,6.953119993209839
1618159699.31222,-184.1238,6.96875
1618159699.32784,-181.4856,6.984369993209839
1618159699.34347,-174.1774,7.0
1618159699.35909,-162.5959,7.015619993209839
1618159699.37472,-147.6352,7.03125
1618159699.39034,-130.6683,7.046869993209839
1618159699.40597,-113.3235,7.0625
1618159699.4216,-97.11285,7.078130006790161
1618159699.43722,-83.05414,7.09375
1618159699.45285,-71.46771,7.109380006790161
1618159699.46847,-62.0401,7.125
1618159699.4841,-54.08008,7.140630006790161
1618159699.49972,-46.81073,7.15625
1618159699.51535,-39.62158,7.171880006790161
1618159699.53098,-32.1286,7.187510013580322
1618159699.5466,-24.19812,7.203130006790161
1618159699.56223,-15.9325,7.218760013580322
1618159699.57785,-7.588928,7.234380006790161
1618159699.59348,0.3363037,7.250010013580322
1618159699.6091,7.044922,7.265630006790161
1618159699.62473,11.52283,7.281260013580322
1618159699.64036,12.6756,7.296890020370483
1618159699.65598,9.630371,7.312510013580322
1618159699.67161,2.074402,7.328140020370483
1618159699.68723,-9.578186,7.343760013580322
1618159699.70286,-24.24347,7.359390020370483
1618159699.71848,-40.33148,7.375010013580322
1618159699.73411,-56.17877,7.390640020370483
1618159699.74974,-70.35321,7.406269788742065
1618159699.76536,-81.82428,7.421890020370483
1618159699.78099,-90.0603,7.437519788742065
1618159699.79661,-94.96362,7.453140020370483
1618159699.81224,-96.73956,7.468769788742065
1618159699.82786,-95.81354,7.484390020370483
1618159699.84349,-92.78259,7.500019788742065
1618159699.85912,-88.34033,7.515649795532227
1618159699.87474,-83.26355,7.531269788742065
1618159699.89037,-78.37616,7.546899795532227
1618159699.90599,-74.35242,7.562519788742065
1618159699.92162,-71.62524,7.578149795532227
1618159699.93724,-70.22052,7.593769788742065
1618159699.95287,-69.86041,7.609399795532227
1618159699.9685,-70.05066,7.625029802322388
1618159699.98412,-70.38861,7.640649795532227
1618159699.99975,-70.71106,7.656279802322388
1618159700.01537,-71.29926,7.671899795532227
1618159700.031,-72.68225,7.687529802322388
1618159700.04662,-75.35895,7.703149795532227
1618159700.06225,-79.43787,7.718779802322388
1618159700.07788,-84.30707,7.734409809112549
1618159700.0935,-88.69336,7.750029802322388
1618159700.10913,-90.91302,7.765659809112549
1618159700.12475,-89.41962,7.781279802322388
1618159700.14038,-83.34442,7.796909809112549
1618159700.15601,-72.85895,7.81253981590271
1618159700.17163,-59.08301,7.828159809112549
1618159700.18726,-43.68494,7.84378981590271
1618159700.20288,-28.36871,7.859409809112549
1618159700.21851,-14.28479,7.87503981590271
1618159700.23413,-1.976563,7.890659809112549
1618159700.24976,8.575623,7.90628981590271
1618159700.26539,17.65649,7.921919822692871
1618159700.28101,25.55219,7.93753981590271
1618159700.29664,32.40033,7.953169822692871
1618159700.31226,38.25769,7.96878981590271
1618159700.32789,43.17834,7.984419822692871
1618159700.34351,47.22498,8.00003981590271
1618159700.35914,50.51288,8.015669822692871
1618159700.37477,53.09833,8.031299829483032
1618159700.39039,54.97058,8.046919822692871
1618159700.40602,56.08319,8.062549829483032
1618159700.42164,56.43243,8.078169822692871
1618159700.43727,56.10431,8.093799829483032
1618159700.45289,55.22717,8.109419822692871
1618159700.46852,53.95282,8.125049829483032
1618159700.48415,52.33545,8.140679836273193
1618159700.49977,50.37744,8.156299829483032
1618159700.5154,47.94733,8.171929836273193
1618159700.53102,44.86133,8.187549829483032
1618159700.54665,40.86621,8.203179836273193
1618159700.56227,35.69958,8.218799829483032
1618159700.5779,29.17566,8.234429836273193
1618159700.59353,21.24023,8.250059843063354
1618159700.60915,12.03967,8.265679836273193
1618159700.62478,1.879761,8.281309843063354
1618159700.6404,-8.871552,8.296929836273193
1618159700.65603,-19.85532,8.312559843063354
1618159700.67165,-30.7124,8.328179836273193
1618159700.68728,-41.06915,8.343809843063354
1618159700.70291,-50.37109,8.359439849853516
1618159700.71853,-57.72052,8.375059843063354
1618159700.73416,-61.9722,8.390689849853516
1618159700.74978,-62.04825,8.406309843063354
1618159700.76541,-57.37076,8.421939849853516
1618159700.78103,-48.2016,8.437559843063354
1618159700.79666,-35.71881,8.453189849853516
1618159700.81229,-21.70099,8.468819856643677
1618159700.82791,-7.996613,8.484439849853516
1618159700.84354,3.964417,8.500069856643677
1618159700.85916,13.43613,8.515689849853516
1618159700.87479,20.33026,8.531319856643677
1618159700.89041,24.93521,8.546939849853516
1618159700.90604,27.57294,8.562569856643677
1618159700.92167,28.51035,8.578199863433838
1618159700.93729,27.95773,8.593819856643677
1618159700.95292,26.23465,8.609449863433838
1618159700.96854,23.85455,8.625069856643677
1618159700.98417,21.53549,8.640699863433838
1618159700.99979,20.07007,8.656319856643677
1618159701.01542,20.08762,8.671949863433838
1618159701.03105,21.93051,8.687579870223999
1618159701.04667,25.49725,8.703199863433838
1618159701.0623,30.27933,8.718829870223999
1618159701.07792,35.48959,8.734449863433838
1618159701.09355,40.2807,8.750079870223999
1618159701.10917,43.9624,8.765699863433838
1618159701.1248,46.24692,8.781329870223999
1618159701.14043,47.26611,8.79695987701416
1618159701.15605,47.45804,8.812579870223999
1618159701.17168,47.40359,8.82820987701416
1618159701.1873,47.55681,8.843829870223999
1618159701.20293,48.08061,8.85945987701416
1618159701.21855,48.8777,8.875079870223999
1618159701.23418,49.62303,8.89070987701416
1618159701.24981,49.91592,8.906339883804321
1618159701.26543,49.41087,8.92195987701416
1618159701.28106,47.90581,8.937589883804321
1618159701.29668,45.4361,8.95320987701416
1618159701.31231,42.35703,8.968839883804321
1618159701.32793,39.3707,8.98445987701416
1618159701.34356,37.38026,9.000089883804321
1618159701.35919,37.28401,9.015719890594482
1618159701.37481,39.68091,9.031339883804321
1618159701.39044,44.60982,9.046969890594482
1618159701.40606,51.52525,9.062589883804321
1618159701.42169,59.4489,9.078219890594482
1618159701.43731,67.21983,9.093839883804321
1618159701.45294,73.81815,9.109469890594482
1618159701.46857,78.60175,9.125099897384644
1618159701.48419,81.37625,9.140719890594482
1618159701.49982,82.34937,9.156349897384644
1618159701.51544,81.91228,9.171969890594482
1618159701.53107,80.36607,9.187599897384644
1618159701.54669,77.70216,9.203219890594482
1618159701.56232,73.57779,9.218849897384644
1618159701.57795,67.57687,9.234479904174805
1618159701.59357,59.58549,9.250099897384644
1618159701.6092,50.12878,9.265729904174805
1618159701.62482,40.37196,9.281349897384644
1618159701.64045,31.81096,9.296979904174805
1618159701.65607,25.62642,9.312599897384644
1618159701.6717,22.1646,9.328229904174805
1618159701.68733,20.72937,9.343859910964966
1618159701.70295,19.90633,9.359479904174805
1618159701.71858,18.22742,9.375109910964966
1618159701.7342,14.80392,9.390729904174805
1618159701.74983,9.754761,9.406359910964966
1618159701.76545,4.019302,9.421979904174805
1618159701.78108,-1.082474,9.437609910964966
1618159701.79671,-4.454193,9.453239917755127
1618159701.81233,-5.733459,9.468859910964966
1618159701.82796,-5.348495,9.484489917755127
1618159701.84358,-4.453293,9.500109910964966
1618159701.85921,-4.523956,9.515739917755127
1618159701.87483,-6.989441,9.531359910964966
1618159701.89046,-12.82628,9.546989917755127
1618159701.90609,-22.28171,9.562619924545288
1618159701.92171,-34.70564,9.578239917755127
1618159701.93734,-48.50894,9.593869924545288
1618159701.95296,-61.44777,9.609489917755127
1618159701.96859,-71.01645,9.625119924545288
1618159701.98421,-75.15724,9.640739917755127
1618159701.99984,-72.92787,9.656369924545288
1618159702.01547,-64.74881,9.67199993133545
1618159702.03109,-52.33461,9.687619924545288
1618159702.04672,-38.11426,9.70324993133545
1618159702.06234,-24.41658,9.718869924545288
1618159702.07797,-12.8418,9.73449993133545
1618159702.09359,-4.032043,9.750119924545288
1618159702.10922,2.174362,9.76574993133545
1618159702.12485,6.255478,9.78137993812561
1618159702.14047,8.567215,9.79699993133545
1618159702.1561,9.190659,9.81262993812561
1618159702.17172,8.017136,9.82824993133545
1618159702.18735,5.031937,9.84387993812561
1618159702.20297,0.6084595,9.85949993133545
1618159702.2186,-4.498779,9.87512993812561
1618159702.23423,-9.296402,9.890759944915771
1618159702.24985,-12.91351,9.90637993812561
1618159702.26548,-14.90062,9.922009944915771
1618159702.2811,-15.40063,9.93762993812561
1618159702.29673,-15.10277,9.953259944915771
1618159702.31236,-15.02766,9.968889951705933
1618159702.32798,-16.17099,9.984509944915771
1618159702.34361,-19.26506,10.000139951705933
1618159702.35923,-24.58043,10.015759944915771
1618159702.37486,-31.72935,10.031389951705933
1618159702.39048,-39.5307,10.047009944915771
1618159702.40611,-45.92055,10.062639951705933
1618159702.42174,-48.15085,10.078269958496094
1618159702.43736,-43.44092,10.093889951705933
1618159702.45299,-30.07977,10.109519958496094
1618159702.46861,-8.340958,10.125139951705933
1618159702.48424,19.08163,10.140769958496094
1618159702.49986,47.61841,10.156389951705933
1618159702.51549,72.33037,10.172019958496094
1618159702.53112,89.60078,10.187649965286255
1618159702.54674,98.34741,10.203269958496094
1618159702.56237,100.0797,10.218899965286255
1618159702.57799,97.91469,10.234519958496094
1618159702.59362,94.84386,10.250149965286255
1618159702.60924,92.34958,10.265769958496094
1618159702.62487,89.95271,10.281399965286255
1618159702.6405,85.6424,10.297029972076416
1618159702.65612,77.15131,10.312649965286255
1618159702.67175,63.04503,10.328279972076416
1618159702.68737,43.26396,10.343899965286255
1618159702.703,19.00691,10.359529972076416
1618159702.71862,-7.930649,10.375149965286255
1618159702.73425,-35.82924,10.390779972076416
1618159702.74988,-63.34837,10.406409978866577
1618159702.7655,-89.32922,10.422029972076416
1618159702.78113,-112.3432,10.437659978866577
1618159702.79675,-130.4132,10.453279972076416
1618159702.81238,-141.2775,10.468909978866577
1618159702.828,-143.1656,10.484529972076416
1618159702.84363,-135.7475,10.500159978866577
1618159702.85926,-120.6466,10.515789985656738
1618159702.87488,-101.2437,10.531409978866577
1618159702.89051,-81.66512,10.547039985656738
1618159702.90613,-65.53052,10.562659978866577
1618159702.92176,-54.99101,10.578289985656738
1618159702.93738,-50.48016,10.593909978866577
1618159702.95301,-51.13649,10.609539985656738
1618159702.96864,-55.41364,10.6251699924469
1618159702.98426,-61.57677,10.640789985656738
1618159702.99989,-67.9352,10.6564199924469
1618159703.01551,-72.8735,10.672039985656738
1618159703.03114,-75.01468,10.6876699924469
1618159703.04676,-73.49857,10.703289985656738
1618159703.06239,-68.37314,10.7189199924469
1618159703.07802,-60.558,10.73454999923706
1618159703.09364,-51.50183,10.7501699924469
1618159703.10927,-42.54205,10.76579999923706
1618159703.12489,-34.15712,10.7814199924469
1618159703.14052,-25.73418,10.79704999923706
1618159703.15614,-15.89682,10.8126699924469
1618159703.17177,-3.229095,10.82829999923706
1618159703.1874,12.92712,10.843930006027222
1618159703.20302,31.95193,10.85954999923706
1618159703.21865,52.17517,10.875180006027222
1618159703.23427,71.45242,10.89079999923706
1618159703.2499,87.92268,10.906430006027222
1618159703.26552,100.6562,10.92204999923706
1618159703.28115,109.8217,10.937680006027222
1618159703.29678,116.3709,10.953310012817383
1618159703.3124,121.3434,10.968930006027222
1618159703.32803,125.2034,10.984560012817383
1618159703.34365,127.4628,11.000180006027222
1618159703.35928,126.957,11.015810012817383
1618159703.3749,122.4142,11.031430006027222
1618159703.39053,113.2413,11.047060012817383
1618159703.40616,99.93149,11.062690019607544
1618159703.42178,84.01643,11.078310012817383
1618159703.43741,67.44643,11.093940019607544
1618159703.45303,51.9424,11.109560012817383
1618159703.46866,38.44905,11.125190019607544
1618159703.48428,27.12861,11.140810012817383
1618159703.49991,17.5806,11.156440019607544
1618159703.51554,9.117081,11.172069787979126
1618159703.53116,0.9382248,11.187690019607544
1618159703.54679,-7.900284,11.203319787979126
1618159703.56241,-18.50778,11.218940019607544
1618159703.57804,-32.01242,11.234569787979126
1618159703.59366,-49.17107,11.250190019607544
1618159703.60929,-69.98383,11.265819787979126
1618159703.62492,-93.54742,11.281449794769287
1618159703.64054,-118.243,11.297069787979126
1618159703.65617,-142.2606,11.312699794769287
1618159703.67179,-164.05,11.328319787979126
1618159703.68742,-182.4114,11.343949794769287
1618159703.70304,-196.3597,11.359569787979126
1618159703.71867,-204.7854,11.375199794769287
1618159703.7343,-206.4237,11.390829801559448
1618159703.74992,-200.1092,11.406449794769287
1618159703.76555,-185.2902,11.422079801559448
1618159703.78117,-162.55,11.437699794769287
1618159703.7968,-133.6571,11.453329801559448
1618159703.81242,-101.1694,11.468949794769287
1618159703.82805,-67.71746,11.484579801559448
1618159703.84368,-35.36476,11.50020980834961
1618159703.8593,-5.352913,11.515829801559448
1618159703.87493,21.68648,11.53145980834961
1618159703.89055,45.24019,11.547079801559448
1618159703.90618,64.60039,11.56270980834961
1618159703.9218,78.96112,11.578329801559448
1618159703.93743,87.76136,11.59395980834961
1618159703.95306,91.28367,11.60958981513977
1618159703.96868,90.78587,11.62520980834961
1618159703.98431,88.20479,11.64083981513977
1618159703.99993,85.50352,11.65645980834961
1618159704.01556,83.92174,11.67208981513977
1618159704.03118,83.55138,11.68770980834961
1618159704.04681,83.51057,11.70333981513977
1618159704.06244,82.5134,11.718969821929932
1618159704.07806,79.66756,11.73458981513977
1618159704.09369,74.93411,11.750219821929932
1618159704.10931,69.1035,11.76583981513977
1618159704.12494,63.29245,11.781469821929932
1618159704.14056,58.31534,11.79708981513977
1618159704.15619,54.31571,11.812719821929932
1618159704.17182,50.70453,11.828349828720093
1618159704.18744,46.54599,11.843969821929932
1618159704.20307,40.98838,11.859599828720093
1618159704.21869,33.67974,11.875219821929932
1618159704.23432,24.76839,11.890849828720093
1618159704.24994,14.77898,11.906469821929932
1618159704.26557,4.460205,11.922099828720093
1618159704.2812,-5.310371,11.937729835510254
1618159704.29682,-13.47866,11.953349828720093
1618159704.31245,-18.92729,11.968979835510254
1618159704.32807,-20.67906,11.984599828720093
1618159704.3437,-18.32178,12.000229835510254
1618159704.35932,-12.22385,12.015849828720093
1618159704.37495,-3.576553,12.031479835510254
1618159704.39058,5.939743,12.047109842300415
1618159704.4062,14.69408,12.062729835510254
1618159704.42183,21.51637,12.078359842300415
1618159704.43745,25.81645,12.093979835510254
1618159704.45308,27.4615,12.109609842300415
1618159704.4687,26.55484,12.125229835510254
1618159704.48433,23.26602,12.140859842300415
1618159704.49996,17.89848,12.156489849090576
1618159704.51558,10.98006,12.172109842300415
1618159704.53121,3.294464,12.187739849090576
1618159704.54683,-4.137726,12.203359842300415
1618159704.56246,-10.3293,12.218989849090576
1618159704.57808,-14.57918,12.234609842300415
1618159704.59371,-16.66045,12.250239849090576
1618159704.60934,-16.8616,12.265869855880737
1618159704.62496,-15.85034,12.281489849090576
1618159704.64059,-14.4044,12.297119855880737
1618159704.65621,-13.14859,12.312739849090576
1618159704.67184,-12.39436,12.328369855880737
1618159704.68746,-12.10413,12.343989849090576
1618159704.70309,-12.07524,12.359619855880737
1618159704.71872,-12.10623,12.375249862670898
1618159704.73434,-12.19269,12.390869855880737
1618159704.74997,-12.61858,12.406499862670898
1618159704.76559,-13.80367,12.422119855880737
1618159704.78122,-16.13635,12.437749862670898
1618159704.79684,-19.69014,12.453369855880737
1618159704.81247,-24.06508,12.468999862670898
1618159704.8281,-28.29881,12.48462986946106
1618159704.84372,-31.06371,12.500249862670898
1618159704.85935,-30.97786,12.51587986946106
1618159704.87497,-27.02731,12.531499862670898
1618159704.8906,-18.88432,12.54712986946106
1618159704.90622,-7.068085,12.562749862670898
1618159704.92185,7.205658,12.57837986946106
1618159704.93748,22.32365,12.59400987625122
1618159704.9531,36.71912,12.60962986946106
1618159704.96873,49.19662,12.62525987625122
1618159704.98435,59.00027,12.64087986946106
1618159704.99998,65.8349,12.65650987625122
1618159705.01561,69.68018,12.672139883041382
1618159705.03123,70.68512,12.68775987625122
1618159705.04686,69.11935,12.703389883041382
1618159705.06248,65.39923,12.71900987625122
1618159705.07811,60.08804,12.734639883041382
1618159705.09373,53.9006,12.75025987625122
1618159705.10936,47.5972,12.765889883041382
1618159705.12499,41.80643,12.781519889831543
1618159705.14061,36.93787,12.797139883041382
1618159705.15624,33.06445,12.812769889831543
1618159705.17186,30.03268,12.828389883041382
1618159705.18749,27.56363,12.844019889831543
1618159705.20311,25.40256,12.859639883041382
1618159705.21874,23.43073,12.875269889831543
1618159705.23437,21.65076,12.890899896621704
1618159705.24999,20.0889,12.906519889831543
1618159705.26562,18.65314,12.922149896621704
1618159705.28124,17.06409,12.937769889831543
1618159705.29687,14.84146,12.953399896621704
1618159705.31249,11.44324,12.969019889831543
1618159705.32812,6.400208,12.984649896621704
1618159705.34375,-0.4198914,13.000279903411865
1618159705.35937,-8.661743,13.015899896621704
1618159705.375,-17.439,13.031529903411865
1618159705.39062,-25.39679,13.047149896621704
1618159705.40625,-30.98633,13.062779903411865
1618159705.42187,-32.84399,13.078399896621704
1618159705.4375,-30.19229,13.094029903411865
1618159705.45313,-23.11346,13.109659910202026
1618159705.46875,-12.5625,13.125279903411865
1618159705.48438,-0.1000977,13.140909910202026
1618159705.5,12.52759,13.156529903411865
1618159705.51563,23.77478,13.172159910202026
1618159705.53125,32.64758,13.187779903411865
1618159705.54688,38.71033,13.203409910202026
1618159705.56251,41.94064,13.219039916992188
1618159705.57813,42.52704,13.234659910202026
1618159705.59376,40.70203,13.250289916992188
1618159705.60938,36.76639,13.265909910202026
1618159705.62501,31.16098,13.281539916992188
1618159705.64063,24.61282,13.297159910202026
1618159705.65626,17.95697,13.312789916992188
1618159705.67189,12.03,13.328419923782349
1618159705.68751,7.358307,13.344039916992188
1618159705.70314,3.998108,13.359669923782349
1618159705.71876,1.608582,13.375289916992188
1618159705.73439,-0.3650513,13.390919923782349
1618159705.75001,-2.390778,13.406539916992188
1618159705.76564,-4.655975,13.422169923782349
1618159705.78127,-6.980652,13.43779993057251
1618159705.79689,-9.024902,13.453419923782349
1618159705.81252,-10.44589,13.46904993057251
1618159705.82814,-11.19101,13.484669923782349
1618159705.84377,-11.56586,13.50029993057251
1618159705.85939,-12.22137,13.515919923782349
1618159705.87502,-13.9549,13.53154993057251
1618159705.89065,-17.45914,13.547179937362671
1618159705.90627,-23.02835,13.56279993057251
1618159705.9219,-30.24579,13.578429937362671
1618159705.93752,-37.93289,13.59404993057251
1618159705.95315,-44.31747,13.609679937362671
1618159705.96877,-47.48224,13.62529993057251
1618159705.9844,-45.95395,13.640929937362671
1618159706.00003,-39.17139,13.656559944152832
1618159706.01565,-27.67731,13.672179937362671
1618159706.03128,-12.97049,13.687809944152832
1618159706.0469,2.885437,13.703429937362671
1618159706.06253,17.86066,13.719059944152832
1618159706.07815,30.3638,13.734679937362671
1618159706.09378,39.50159,13.750309944152832
1618159706.10941,45.05045,13.765939950942993
1618159706.12503,47.23636,13.781559944152832
1618159706.14066,46.55557,13.797189950942993
1618159706.15628,43.57367,13.812809944152832
1618159706.17191,38.88004,13.828439950942993
1618159706.18753,33.05978,13.844059944152832
1618159706.20316,26.76288,13.859689950942993
1618159706.21879,20.70596,13.875319957733154
1618159706.23441,15.61151,13.890939950942993
1618159706.25004,12.07535,13.906569957733154
1618159706.26566,10.32904,13.922189950942993
1618159706.28129,10.14069,13.937819957733154
1618159706.29691,10.78503,13.953439950942993
1618159706.31254,11.32446,13.969069957733154
1618159706.32817,10.94666,13.984699964523315
1618159706.34379,9.303619,14.000319957733154
1618159706.35942,6.614532,14.015949964523315
1618159706.37504,3.503326,14.031569957733154
1618159706.39067,0.6282654,14.047199964523315
1618159706.40629,-1.726593,14.062819957733154
1618159706.42192,-3.757233,14.078449964523315
1618159706.43755,-6.051117,14.094079971313477
1618159706.45317,-9.279205,14.109699964523315
1618159706.4688,-13.84,14.125329971313477
1618159706.48442,-19.70822,14.140949964523315
1618159706.50005,-26.39331,14.156579971313477
1618159706.51567,-33.09464,14.172199964523315
1618159706.5313,-38.74442,14.187829971313477
1618159706.54693,-42.1523,14.203459978103638
1618159706.56255,-42.14435,14.219079971313477
1618159706.57818,-37.90849,14.234709978103638
1618159706.5938,-29.31235,14.250329971313477
1618159706.60943,-17.12561,14.265959978103638
1618159706.62505,-2.983398,14.281579971313477
1618159706.64068,11.06117,14.297209978103638
1618159706.65631,23.16968,14.312839984893799
1618159706.67193,32.28065,14.328459978103638
1618159706.68756,38.28233,14.344089984893799
1618159706.70318,41.74493,14.359709978103638
1618159706.71881,43.46219,14.375339984893799
1618159706.73443,43.92407,14.390959978103638
1618159706.75006,43.1566,14.406589984893799
1618159706.76569,40.88495,14.42221999168396
1618159706.78131,36.90543,14.437839984893799
1618159706.79694,31.41365,14.45346999168396
1618159706.81256,25.08873,14.469089984893799
1618159706.82819,18.91122,14.48471999168396
1618159706.84381,13.74121,14.500339984893799
1618159706.85944,10.01604,14.51596999168396
1618159706.87507,7.669891,14.531599998474121
1618159706.89069,6.25209,14.54721999168396
1618159706.90632,5.154114,14.562849998474121
1618159706.92194,3.955002,14.57846999168396
1618159706.93757,2.467514,14.594099998474121
1618159706.95319,0.7138672,14.60971999168396
1618159706.96882,-1.178665,14.625349998474121
1618159706.98445,-3.192108,14.640980005264282
1618159707.00007,-5.40387,14.656599998474121
1618159707.0157,-8.011047,14.672230005264282
1618159707.03132,-11.25998,14.687849998474121
1618159707.04695,-15.39452,14.703480005264282
1618159707.06257,-20.6201,14.719099998474121
1618159707.0782,-27.06056,14.734730005264282
1618159707.09383,-34.71893,14.750360012054443
1618159707.10945,-43.32645,14.765980005264282
1618159707.12508,-52.25931,14.781610012054443
1618159707.1407,-60.46465,14.797230005264282
1618159707.15633,-66.56778,14.812860012054443
1618159707.17196,-69.18538,14.828490018844604
1618159707.18758,-67.29539,14.844110012054443
1618159707.20321,-60.67081,14.859740018844604
1618159707.21883,-50.05579,14.875360012054443
1618159707.23446,-37.00719,14.890990018844604
1618159707.25008,-23.45056,14.906610012054443
1618159707.26571,-11.07266,14.922240018844604
1618159707.28134,-0.8731995,14.937869787216187
1618159707.29696,6.979187,14.953490018844604
1618159707.31259,12.88503,14.969119787216187
1618159707.32821,17.41055,14.984740018844604
1618159707.34384,20.87039,15.000369787216187
1618159707.35946,23.21365,15.015990018844604
1618159707.37509,24.1619,15.031619787216187
1618159707.39072,23.58723,15.047249794006348
1618159707.40634,21.61823,15.062869787216187
1618159707.42197,18.78056,15.078499794006348
1618159707.43759,15.71899,15.094119787216187
1618159707.45322,12.98393,15.109749794006348
1618159707.46884,10.85364,15.125369787216187
1618159707.48447,9.338226,15.140999794006348
1618159707.5001,8.251266,15.156629800796509
1618159707.51572,7.328812,15.172249794006348
1618159707.53135,6.300278,15.187879800796509
1618159707.54697,4.813171,15.203499794006348
1618159707.5626,2.553253,15.219129800796509
1618159707.57822,-0.691391,15.234749794006348
1618159707.59385,-4.868301,15.250379800796509
1618159707.60948,-9.631027,15.26600980758667
1618159707.6251,-14.46544,15.281629800796509
1618159707.64073,-18.98032,15.29725980758667
1618159707.65635,-23.06236,15.312879800796509
1618159707.67198,-26.96912,15.32850980758667
1618159707.6876,-31.14301,15.344129800796509
1618159707.70323,-35.97488,15.35975980758667
1618159707.71886,-41.61809,15.375389814376831
1618159707.73448,-47.8904,15.39100980758667
1618159707.75011,-54.29936,15.406639814376831
1618159707.76573,-60.05154,15.42225980758667
1618159707.78136,-64.15028,15.437889814376831
1618159707.79698,-65.43843,15.45350980758667
1618159707.81261,-62.80978,15.469139814376831
1618159707.82824,-55.48289,15.484769821166992
1618159707.84386,-43.44188,15.500389814376831
1618159707.85949,-27.64679,15.516019821166992
1618159707.87511,-10.00052,15.531639814376831
1618159707.89074,7.135834,15.547269821166992
1618159707.90636,21.56366,15.562889814376831
1618159707.92199,31.79062,15.578519821166992
1618159707.93762,37.27055,15.594149827957153
1618159707.95324,38.37038,15.609769821166992
1618159707.96887,36.07619,15.625399827957153
1618159707.98449,31.58125,15.641019821166992
1618159708.00012,26.00183,15.656649827957153
1618159708.01574,20.22342,15.672269821166992
1618159708.03137,14.87573,15.687899827957153
1618159708.047,10.39653,15.703529834747314
1618159708.06262,7.036667,15.719149827957153
1618159708.07825,4.842163,15.734779834747314
1618159708.09387,3.667053,15.750399827957153
1618159708.1095,3.221802,15.766029834747314
1618159708.12512,3.159027,15.781649827957153
1618159708.14075,3.236282,15.797279834747314
1618159708.15638,3.409119,15.812909841537476
1618159708.172,3.802185,15.828529834747314
1618159708.18763,4.500275,15.844159841537476
1618159708.20325,5.403656,15.859779834747314
1618159708.21888,6.046204,15.875409841537476
1618159708.2345,5.783279,15.891029834747314
1618159708.25013,4.058762,15.906659841537476
1618159708.26576,0.7239227,15.922289848327637
1618159708.28138,-3.775558,15.937909841537476
1618159708.29701,-8.606354,15.953539848327637
1618159708.31263,-13.00423,15.969159841537476
1618159708.32826,-16.65811,15.984789848327637
1618159708.34388,-19.86702,16.000409841537476
1618159708.35951,-23.45621,16.016039848327637
1618159708.37514,-28.25453,16.031669855117798
1618159708.39076,-34.66151,16.047289848327637
1618159708.40639,-42.3912,16.062919855117798
1618159708.42201,-50.37993,16.078539848327637
1618159708.43764,-57.05286,16.094169855117798
1618159708.45326,-60.64429,16.109789848327637
1618159708.46889,-59.51779,16.125419855117798
1618159708.48452,-52.51486,16.14104986190796
1618159708.50014,-39.37057,16.156669855117798
1618159708.51577,-20.92761,16.17229986190796
1618159708.53139,0.7829285,16.187919855117798
1618159708.54702,22.88834,16.20354986190796
1618159708.56264,42.39014,16.219169855117798
1618159708.57827,56.96573,16.23479986190796
1618159708.5939,65.55966,16.25042986869812
1618159708.60952,68.6102,16.26604986190796
1618159708.62515,67.62289,16.28167986869812
1618159708.64077,64.41348,16.29729986190796
1618159708.6564,60.48026,16.31292986869812
1618159708.67202,56.58969,16.32854986190796
1618159708.68765,52.85538,16.34417986869812
1618159708.70328,49.15631,16.35980987548828
1618159708.7189,45.49908,16.37542986869812
1618159708.73453,42.17178,16.39105987548828
1618159708.75015,39.59454,16.40667986869812
1618159708.76578,37.94757,16.42230987548828
1618159708.7814,36.99686,16.43792986869812
1618159708.79703,36.19196,16.45355987548828
1618159708.81266,34.93396,16.469189882278442
1618159708.82828,32.94153,16.48480987548828
1618159708.84391,30.44247,16.500439882278442
1618159708.85953,28.01349,16.51605987548828
1618159708.87516,26.22839,16.531689882278442
1618159708.89078,25.4017,16.54730987548828
1618159708.90641,25.28384,16.562939882278442
1618159708.92204,25.17206,16.578569889068604
1618159708.93766,24.15436,16.594189882278442
1618159708.95329,21.43304,16.609819889068604
1618159708.96891,16.6181,16.625439882278442
1618159708.98454,9.912994,16.641069889068604
1618159709.00016,2.022064,16.656689882278442
1618159709.01579,-6.120239,16.672319889068604
1618159709.03142,-13.6756,16.687949895858765
1618159709.04704,-20.29208,16.703569889068604
1618159709.06267,-26.24023,16.719199895858765
1618159709.07829,-32.17596,16.734819889068604
1618159709.09392,-38.6575,16.750449895858765
1618159709.10954,-45.61359,16.766069889068604
1618159709.12517,-52.01727,16.781699895858765
1618159709.1408,-56.2363,16.797329902648926
1618159709.15642,-56.63721,16.812949895858765
1618159709.17205,-52.3103,16.828579902648926
1618159709.18767,-43.60345,16.844199895858765
1618159709.2033,-32.00693,16.859829902648926
1618159709.21892,-19.62195,16.875449895858765
1618159709.23455,-8.374329,16.891079902648926
1618159709.25018,0.5520325,16.906709909439087
1618159709.2658,6.922455,16.922329902648926
1618159709.28143,11.06891,16.937959909439087
1618159709.29705,13.54709,16.953579902648926
1618159709.31268,14.69769,16.969209909439087
1618159709.3283,14.55438,16.984829902648926
1618159709.34393,13.0228,17.000459909439087
1618159709.35956,10.11838,17.016089916229248
1618159709.37518,6.135254,17.031709909439087
1618159709.39081,1.644684,17.047339916229248
1618159709.40643,-2.670929,17.062959909439087
1618159709.42206,-6.289063,17.078589916229248
1618159709.43769,-8.92807,17.09421992301941
1618159709.45331,-10.56616,17.109839916229248
1618159709.46894,-11.39078,17.12546992301941
1618159709.48456,-11.73935,17.141089916229248
1618159709.50019,-12.08167,17.15671992301941
1618159709.51581,-12.93069,17.172339916229248
1618159709.53144,-14.70749,17.18796992301941
1618159709.54707,-17.46817,17.20359992980957
1618159709.56269,-20.76468,17.21921992301941
1618159709.57832,-23.70032,17.23484992980957
1618159709.59394,-25.17212,17.25046992301941
1618159709.60957,-24.31976,17.26609992980957
1618159709.62519,-20.8313,17.28171992301941
1618159709.64082,-15.13831,17.29734992980957
1618159709.65645,-8.172302,17.31297993659973
1618159709.67207,-1.097595,17.32859992980957
1618159709.6877,5.091705,17.34422993659973
1618159709.70332,9.755219,17.35984992980957
1618159709.71895,12.62122,17.37547993659973
1618159709.73457,13.77258,17.39109992980957
1618159709.7502,13.61417,17.40672993659973
1618159709.76583,12.9379,17.422359943389893
1618159709.78145,12.7836,17.43797993659973
1618159709.79708,14.29163,17.453609943389893
1618159709.8127,18.33496,17.46922993659973
1618159709.82833,25.24121,17.484859943389893
1618159709.84395,34.64017,17.50047993659973
1618159709.85958,45.49448,17.516109943389893
1618159709.87521,56.32559,17.531739950180054
1618159709.89083,65.60269,17.547359943389893
1618159709.90646,72.13196,17.562989950180054
1618159709.92208,75.27707,17.578609943389893
1618159709.93771,75.11282,17.594239950180054
1618159709.95333,72.26733,17.609859943389893
1618159709.96896,67.69882,17.625489950180054
1618159709.98459,62.37747,17.641119956970215
1618159710.00021,56.94632,17.656739950180054
1618159710.01584,51.59644,17.672369956970215
1618159710.03146,46.16818,17.687989950180054
1618159710.04709,40.37427,17.703619956970215
1618159710.06271,34.09628,17.719239950180054
1618159710.07834,27.61676,17.734869956970215
1618159710.09397,21.46548,17.750499963760376
1618159710.10959,16.25195,17.766119956970215
1618159710.12522,12.41492,17.781749963760376
1618159710.14084,10.01624,17.797369956970215
1618159710.15647,8.80777,17.812999963760376
1618159710.17209,8.305695,17.828619956970215
1618159710.18772,7.905304,17.844249963760376
1618159710.20335,7.03476,17.859879970550537
1618159710.21897,5.230591,17.875499963760376
1618159710.2346,2.231201,17.891129970550537
1618159710.25022,-1.929413,17.906749963760376
1618159710.26585,-6.957886,17.922379970550537
1618159710.28147,-12.34373,17.937999963760376
1618159710.2971,-17.51836,17.953629970550537
1618159710.31273,-22.07376,17.9692599773407
1618159710.32835,-26.01364,17.984879970550537
1618159710.34398,-29.74356,18.0005099773407
1618159710.3596,-33.96078,18.016129970550537
1618159710.37523,-39.34352,18.0317599773407
1618159710.39085,-46.09116,18.047379970550537
1618159710.40648,-53.67061,18.0630099773407
1618159710.42211,-60.77,18.07863998413086
1618159710.43773,-65.60971,18.0942599773407
1618159710.45336,-66.44362,18.10988998413086
1618159710.46898,-62.21687,18.1255099773407
1618159710.48461,-52.90628,18.14113998413086
1618159710.50023,-39.56261,18.1567599773407
1618159710.51586,-24.05042,18.17238998413086
1618159710.53149,-8.487122,18.18801999092102
1618159710.54711,5.26355,18.20363998413086
1618159710.56274,15.8997,18.21926999092102
1618159710.57836,22.8409,18.23488998413086
1618159710.59399,26.20692,18.25051999092102
1618159710.60961,26.60815,18.26613998413086
1618159710.62524,24.94087,18.28176999092102
1618159710.64087,22.12643,18.29739999771118
1618159710.65649,18.85609,18.31301999092102
1618159710.67212,15.54144,18.32864999771118
1618159710.68774,12.30617,18.34426999092102
1618159710.70337,9.15123,18.35989999771118
1618159710.71899,6.118683,18.37551999092102
1618159710.73462,3.32515,18.39114999771118
1618159710.75025,1.042038,18.406780004501343
1618159710.76587,-0.4816589,18.42239999771118
1618159710.7815,-1.13327,18.438030004501343
1618159710.79712,-1.026016,18.45364999771118
1618159710.81275,-0.5059509,18.469280004501343
1618159710.82837,-0.05229187,18.48489999771118
1618159710.844,-0.1440277,18.500530004501343
1618159710.85963,-1.161667,18.516160011291504
1618159710.87525,-3.290573,18.531780004501343
1618159710.89088,-6.446457,18.547410011291504
1618159710.9065,-10.29538,18.563030004501343
1618159710.92213,-14.28137,18.578660011291504
1618159710.93775,-17.89677,18.594280004501343
1618159710.95338,-20.83867,18.609910011291504
1618159710.96901,-23.23047,18.625540018081665
1618159710.98463,-25.60335,18.641160011291504
1618159711.00026,-28.71376,18.656790018081665
1618159711.01588,-33.22466,18.672410011291504
1618159711.03151,-39.28886,18.688040018081665
1618159711.04713,-46.34035,18.703660011291504
1618159711.06276,-53.11073,18.719290018081665
1618159711.07839,-57.99408,18.734919786453247
1618159711.09401,-59.54295,18.750540018081665
1618159711.10964,-56.93802,18.766169786453247
1618159711.12526,-50.25586,18.781790018081665
1618159711.14089,-40.35654,18.797419786453247
1618159711.15651,-28.58983,18.813040018081665
1618159711.17214,-16.36024,18.828669786453247
1618159711.18777,-4.875748,18.844299793243408
1618159711.20339,4.964218,18.859919786453247
1618159711.21902,12.51587,18.875549793243408
1618159711.23464,17.23415,18.891169786453247
1618159711.25027,18.73024,18.906799793243408
1618159711.26589,16.89943,18.922419786453247
1618159711.28152,12.09914,18.938049793243408
1618159711.29715,5.28923,18.95367980003357
1618159711.31277,-2.068924,18.969299793243408
1618159711.3284,-8.217255,18.98492980003357
1618159711.34402,-11.32155,19.000549793243408
1618159711.35965,-9.779938,19.01617980003357
1618159711.37527,-2.533768,19.031799793243408
1618159711.3909,10.55249,19.04742980003357
1618159711.40653,28.47766,19.06305980682373
1618159711.42215,49.15143,19.07867980003357
1618159711.43778,69.86387,19.09430980682373
1618159711.4534,88.06771,19.10992980003357
1618159711.46903,102.3411,19.12555980682373
1618159711.48465,112.9371,19.14117980003357
1618159711.50028,121.6847,19.15680980682373
1618159711.51591,131.1556,19.17243981361389
1618159711.53153,143.4282,19.18805980682373
1618159711.54716,158.9864,19.20368981361389
1618159711.56278,176.2721,19.21930980682373
1618159711.57841,192.076,19.23493981361389
1618159711.59403,202.6679,19.25055980682373
1618159711.60966,205.2557,19.26618981361389
1618159711.62529,199.1104,19.281819820404053
1618159711.64091,185.9718,19.29743981361389
1618159711.65654,169.4179,19.313069820404053
1618159711.67216,153.5659,19.32868981361389
1618159711.68779,141.5556,19.344319820404053
1618159711.70341,134.6063,19.35993981361389
1618159711.71904,132.0848,19.375569820404053
1618159711.73467,132.3082,19.391199827194214
1618159711.75029,133.6754,19.406819820404053
1618159711.76592,135.3372,19.422449827194214
1618159711.78154,137.1765,19.438069820404053
1618159711.79717,139.1073,19.453699827194214
1618159711.81279,140.3742,19.469319820404053
1618159711.82842,139.5508,19.484949827194214
1618159711.84405,135.1572,19.500579833984375
1618159711.85967,126.5201,19.516199827194214
1618159711.8753,114.2203,19.531829833984375
1618159711.89092,99.59239,19.547449827194214
1618159711.90655,83.63953,19.563079833984375
1618159711.92217,66.13428,19.578699827194214
1618159711.9378,45.58426,19.594329833984375
1618159711.95343,20.20045,19.609959840774536
1618159711.96905,-10.67589,19.625579833984375
1618159711.98468,-45.62688,19.641209840774536
1618159712.0003,-81.40619,19.656829833984375
1618159712.01593,-114.1985,19.672459840774536
1618159712.03156,-141.2325,19.688089847564697
1618159712.04718,-161.8215,19.703709840774536
1618159712.06281,-177.168,19.719339847564697
1618159712.07843,-189.3226,19.734959840774536
1618159712.09406,-199.8942,19.750589847564697
1618159712.10968,-209.2771,19.766209840774536
1618159712.12531,-216.8275,19.781839847564697
1618159712.14094,-221.6222,19.79746985435486
1618159712.15656,-223.2173,19.813089847564697
1618159712.17219,-221.9945,19.82871985435486
1618159712.18781,-218.9951,19.844339847564697
1618159712.20344,-215.308,19.85996985435486
1618159712.21906,-211.5622,19.875589847564697
1618159712.23469,-207.7725,19.89121985435486
1618159712.25032,-203.4417,19.90684986114502
1618159712.26594,-198.1274,19.92246985435486
1618159712.28157,-191.7358,19.93809986114502
1618159712.29719,-184.7079,19.95371985435486
1618159712.31282,-177.9016,19.96934986114502
1618159712.32844,-172.2784,19.98496985435486
1618159712.34407,-168.4877,20.00059986114502
1618159712.3597,-166.6617,20.01622986793518
1618159712.37532,-166.2866,20.03184986114502
1618159712.39095,-166.1743,20.04747986793518
1618159712.40657,-164.7797,20.06309986114502
1618159712.4222,-160.4377,20.07872986793518
1618159712.43782,-151.8378,20.09434986114502
1618159712.45345,-138.4256,20.10997986793518
1618159712.46908,-120.6208,20.125609874725342
1618159712.4847,-99.69629,20.14122986793518
1618159712.50033,-77.44238,20.156859874725342
1618159712.51595,-55.70993,20.17247986793518
1618159712.53158,-35.86646,20.188109874725342
1618159712.5472,-18.83014,20.20372986793518
1618159712.56283,-4.97641,20.219359874725342
1618159712.57846,5.55957,20.234989881515503
1618159712.59408,12.73532,20.250609874725342
1618159712.60971,16.57068,20.266239881515503
1618159712.62533,17.26453,20.281859874725342
1618159712.64096,15.33585,20.297489881515503
1618159712.65658,11.61887,20.313109874725342
1618159712.67221,7.241943,20.328739881515503
1618159712.68784,3.24646,20.344369888305664
1618159712.70346,0.4760742,20.359989881515503
1618159712.71909,-0.7045593,20.375619888305664
1618159712.73471,-0.3846741,20.391239881515503
1618159712.75034,1.018158,20.406869888305664
1618159712.76596,2.897888,20.422489881515503
1618159712.78159,4.686096,20.438119888305664
1618159712.79722,5.951782,20.453749895095825
1618159712.81284,6.487823,20.469369888305664
1618159712.82847,6.24054,20.484999895095825
1618159712.84409,5.320953,20.500619888305664
1618159712.85972,3.816711,20.516249895095825
1618159712.87534,1.808777,20.531869888305664
1618159712.89097,-0.6575317,20.547499895095825
1618159712.9066,-3.63028,20.563129901885986
1618159712.92222,-7.217804,20.578749895095825
1618159712.93785,-11.61719,20.594379901885986
1618159712.95347,-17.08652,20.609999895095825
1618159712.9691,-23.9097,20.625629901885986
1618159712.98472,-32.13925,20.641249895095825
1618159713.00035,-41.41986,20.656879901885986
1618159713.01598,-50.79178,20.672509908676147
1618159713.0316,-58.61066,20.688129901885986
1618159713.04723,-62.96722,20.703759908676147
1618159713.06285,-62.19162,20.719379901885986
1618159713.07848,-55.48801,20.735009908676147
1618159713.0941,-43.27255,20.750629901885986
1618159713.10973,-27.11142,20.766259908676147
1618159713.12536,-9.274384,20.78188991546631
1618159713.14098,7.942261,20.797509908676147
1618159713.15661,22.74387,20.81313991546631
1618159713.17223,34.21663,20.828759908676147
1618159713.18786,42.16855,20.84438991546631
1618159713.20348,46.91577,20.860009908676147
1618159713.21911,48.91354,20.87563991546631
1618159713.23474,48.53865,20.89126992225647
1618159713.25036,46.11215,20.90688991546631
1618159713.26599,41.92992,20.92251992225647
1618159713.28161,36.41206,20.93813991546631
1618159713.29724,30.11736,20.95376992225647
1618159713.31286,23.77814,20.96938991546631
1618159713.32849,18.12621,20.98501992225647
1618159713.34412,13.70901,21.00064992904663
1618159713.35974,10.74573,21.01626992225647
1618159713.37537,9.044479,21.03189992904663
1618159713.39099,8.112213,21.04751992225647
1618159713.40662,7.320953,21.06314992904663
1618159713.42224,6.109055,21.07876992225647
1618159713.43787,4.151321,21.09439992904663
1618159713.4535,1.401176,21.110029935836792
1618159713.46912,-1.974854,21.12564992904663
1618159713.48475,-5.697342,21.141279935836792
1618159713.50037,-9.506905,21.15689992904663
1618159713.516,-13.26534,21.172529935836792
1618159713.53162,-16.95864,21.18814992904663
1618159713.54725,-20.77538,21.203779935836792
1618159713.56288,-25.1186,21.219409942626953
1618159713.5785,-30.48094,21.235029935836792
1618159713.59413,-37.26509,21.250659942626953
1618159713.60975,-45.40941,21.266279935836792
1618159713.62538,-54.14518,21.281909942626953
1618159713.641,-61.85197,21.297529935836792
1618159713.65663,-66.41765,21.313159942626953
1618159713.67226,-65.77155,21.328789949417114
1618159713.68788,-58.63686,21.344409942626953
1618159713.70351,-45.0752,21.360039949417114
1618159713.71913,-26.57164,21.375659942626953
1618159713.73476,-5.6734,21.391289949417114
1618159713.75038,14.76923,21.406909942626953
1618159713.76601,32.39548,21.422539949417114
1618159713.78164,45.85522,21.438169956207275
1618159713.79726,54.88079,21.453789949417114
1618159713.81289,59.99224,21.469419956207275
1618159713.82851,62.07442,21.485039949417114
1618159713.84414,61.88778,21.500669956207275
1618159713.85976,59.94246,21.516289949417114
1618159713.87539,56.53353,21.531919956207275
1618159713.89102,51.90333,21.547549962997437
1618159713.90664,46.45712,21.563169956207275
1618159713.92227,40.78669,21.578799962997437
1618159713.93789,35.58186,21.594419956207275
1618159713.95352,31.37691,21.610049962997437
1618159713.96914,28.4183,21.625669956207275
1618159713.98477,26.62044,21.641299962997437
1618159714.0004,25.63614,21.656929969787598
1618159714.01602,25.03436,21.672549962997437
1618159714.03165,24.43068,21.688179969787598
1618159714.04727,23.57294,21.703799962997437
1618159714.0629,22.32872,21.719429969787598
1618159714.07852,20.62633,21.735049962997437
1618159714.09415,18.43942,21.750679969787598
1618159714.10978,15.76076,21.76630997657776
1618159714.1254,12.60492,21.781929969787598
1618159714.14103,9.030197,21.79755997657776
1618159714.15665,5.074356,21.813179969787598
1618159714.17228,0.6347351,21.82880997657776
1618159714.1879,-4.506516,21.844429969787598
1618159714.20353,-10.56642,21.86005997657776
1618159714.21916,-17.55537,21.87568998336792
1618159714.23478,-24.97261,21.89130997657776
1618159714.25041,-31.68878,21.90693998336792
1618159714.26603,-36.02127,21.92255997657776
1618159714.28166,-36.14792,21.93818998336792
1618159714.29729,-30.62511,21.95381999015808
1618159714.31291,-19.01788,21.96943998336792
1618159714.32854,-2.158447,21.98506999015808
1618159714.34416,17.92233,22.00068998336792
1618159714.35979,38.45511,22.01631999015808
1618159714.37541,56.75668,22.03193998336792
1618159714.39104,70.88583,22.04756999015808
1618159714.40667,80.06396,22.063199996948242
1618159714.42229,84.6196,22.07881999015808
1618159714.43792,85.64786,22.094449996948242
1618159714.45354,84.46848,22.11006999015808
1618159714.46917,82.18292,22.125699996948242
1618159714.48479,79.47308,22.14131999015808
1618159714.50042,76.57822,22.156949996948242
1618159714.51605,73.42816,22.172580003738403
1618159714.53167,69.65829,22.188199996948242
1618159714.5473,64.70209,22.203830003738403
1618159714.56292,57.84927,22.219449996948242
1618159714.57855,48.53098,22.235080003738403
1618159714.59417,36.66965,22.250699996948242
1618159714.6098,22.93124,22.266330003738403
1618159714.62543,8.704529,22.281960010528564
1618159714.64105,-4.284668,22.297580003738403
1618159714.65668,-14.47858,22.313210010528564
1618159714.6723,-21.05972,22.328830003738403
1618159714.68793,-24.25327,22.344460010528564
1618159714.70355,-25.18085,22.360080003738403
1618159714.71918,-25.46759,22.375710010528564
1618159714.73481,-26.64929,22.391340017318726
1618159714.75043,-29.7543,22.406960010528564
1618159714.76606,-35.08762,22.422590017318726
1618159714.78168,-42.39359,22.438210010528564
1618159714.79731,-51.09607,22.453840017318726
1618159714.81293,-60.61014,22.469460010528564
1618159714.82856,-70.50797,22.485090017318726
1618159714.84419,-80.39847,22.500719785690308
1618159714.85981,-89.71207,22.516340017318726
1618159714.87544,-97.42914,22.531969785690308
1618159714.89106,-102.0305,22.547590017318726
1618159714.90669,-101.7572,22.563219785690308
1618159714.92231,-95.15057,22.578840017318726
1618159714.93794,-81.59103,22.594469785690308
1618159714.95357,-61.71597,22.61009979248047
1618159714.96919,-37.34094,22.625719785690308
1618159714.98482,-11.03442,22.64134979248047
1618159715.00044,14.4834,22.656969785690308
1618159715.01607,36.87979,22.67259979248047
1618159715.03169,54.41611,22.688219785690308
1618159715.04732,65.99707,22.70384979248047
1618159715.06295,71.00208,22.71947979927063
1618159715.07857,69.2373,22.73509979248047
1618159715.0942,61.05823,22.75072979927063
1618159715.10982,47.58398,22.76634979248047
1618159715.12545,30.81982,22.78197979927063
1618159715.14107,13.39801,22.79759979248047
1618159715.1567,-1.904388,22.81322979927063
1618159715.17233,-12.88007,22.82885980606079
1618159715.18795,-18.43686,22.84447979927063
1618159715.20358,-18.74249,22.86010980606079
1618159715.2192,-15.05811,22.87572979927063
1618159715.23483,-9.127075,22.89135980606079
1618159715.25045,-2.609985,22.90697979927063
1618159715.26608,3.342224,22.92260980606079
1618159715.28171,8.19635,22.938239812850952
1618159715.29733,11.86011,22.95385980606079
1618159715.31296,14.36407,22.969489812850952
1618159715.32858,15.6084,22.98510980606079
1618159715.34421,15.29181,23.000739812850952
1618159715.35983,13.0332,23.01635980606079
1618159715.37546,8.607117,23.031989812850952
1618159715.39109,2.123718,23.047619819641113
1618159715.40671,-5.927612,23.063239812850952
1618159715.42234,-14.79895,23.078869819641113
1618159715.43796,-23.51263,23.094489812850952
1618159715.45359,-30.96973,23.110119819641113
1618159715.46921,-35.9328,23.125739812850952
1618159715.48484,-37.08655,23.141369819641113
1618159715.50047,-33.34631,23.156999826431274
1618159715.51609,-24.23706,23.172619819641113
1618159715.53172,-10.26953,23.188249826431274
1618159715.54734,6.903198,23.203869819641113
1618159715.56297,24.84442,23.219499826431274
1618159715.57859,40.99915,23.235119819641113
1618159715.59422,53.38855,23.250749826431274
1618159715.60985,61.05914,23.266379833221436
1618159715.62547,64.1709,23.281999826431274
1618159715.6411,63.62964,23.297629833221436
1618159715.65672,60.66345,23.313249826431274
1618159715.67235,56.43964,23.328879833221436
1618159715.68797,51.74799,23.344499826431274
1618159715.7036,47.07196,23.360129833221436
1618159715.71923,42.66272,23.375759840011597
1618159715.73485,38.63898,23.391379833221436
1618159715.75048,35.12604,23.407009840011597
1618159715.7661,32.30334,23.422629833221436
1618159715.78173,30.31744,23.438259840011597
1618159715.79735,29.25781,23.453879833221436
1618159715.81298,29.07428,23.469509840011597
1618159715.82861,29.4436,23.485139846801758
1618159715.84423,29.88879,23.500759840011597
1618159715.85986,29.87518,23.516389846801758
1618159715.87548,28.96899,23.532009840011597
1618159715.89111,26.9826,23.547639846801758
1618159715.90673,24.01941,23.563259840011597
1618159715.92236,20.33521,23.578889846801758
1618159715.93799,16.26801,23.59451985359192
1618159715.95361,12.02606,23.610139846801758
1618159715.96924,7.610168,23.62576985359192
1618159715.98486,2.848816,23.641389846801758
1618159716.00049,-2.511902,23.65701985359192
1618159716.01611,-8.734741,23.672639846801758
1618159716.03174,-15.83221,23.68826985359192
1618159716.04737,-23.45636,23.70389986038208
1618159716.06299,-30.77759,23.71951985359192
1618159716.07862,-36.45953,23.73514986038208
1618159716.09424,-38.92242,23.75076985359192
1618159716.10987,-36.74927,23.76639986038208
1618159716.12549,-29.14343,23.78201985359192
1618159716.14112,-16.33612,23.79764986038208
1618159716.15675,0.3389893,23.81327986717224
1618159716.17237,18.80994,23.82889986038208
1618159716.188,36.73761,23.84452986717224
1618159716.20362,52.09546,23.86014986038208
1618159716.21925,63.6344,23.87577986717224
1618159716.23487,70.96936,23.89139986038208
1618159716.2505,74.38885,23.90702986717224
1618159716.26613,74.58771,23.922659873962402
1618159716.28175,72.30914,23.93827986717224
1618159716.29738,68.14191,23.953909873962402
1618159716.313,62.5556,23.96952986717224
1618159716.32863,55.89679,23.985159873962402
1618159716.34425,48.57562,24.00077986717224
1618159716.35988,41.12115,24.016409873962402
1618159716.37551,34.14642,24.032039880752563
1618159716.39113,28.24084,24.047659873962402
1618159716.40676,23.80902,24.063289880752563
1618159716.42238,20.87219,24.078909873962402
1618159716.43801,19.14502,24.094539880752563
1618159716.45363,18.14258,24.110159873962402
1618159716.46926,17.31091,24.125789880752563
1618159716.48489,16.22076,24.141419887542725
1618159716.50051,14.63538,24.157039880752563
1618159716.51614,12.44836,24.172669887542725
1618159716.53176,9.65509,24.188289880752563
1618159716.54739,6.319336,24.203919887542725
1618159716.56301,2.503723,24.219539880752563
1618159716.57864,-1.694031,24.235169887542725
1618159716.59427,-6.195923,24.250799894332886
1618159716.60989,-11.00897,24.266419887542725
1618159716.62552,-16.17877,24.282049894332886
1618159716.64114,-21.83215,24.297669887542725
1618159716.65677,-28.05377,24.313299894332886
1618159716.67239,-34.74652,24.328919887542725
1618159716.68802,-41.43591,24.344549894332886
1618159716.70365,-47.20776,24.360179901123047
1618159716.71927,-50.77405,24.375799894332886
1618159716.7349,-50.77643,24.391429901123047
1618159716.75052,-46.27972,24.407049894332886
1618159716.76615,-37.14447,24.422679901123047
1618159716.78178,-24.26703,24.438309907913208
1618159716.7974,-9.370789,24.453929901123047
1618159716.81303,5.515137,24.469559907913208
1618159716.82865,18.67377,24.485179901123047
1618159716.84428,29.1438,24.500809907913208
1618159716.8599,36.77472,24.516429901123047
1618159716.87553,41.96149,24.532059907913208
1618159716.89116,45.17639,24.54768991470337
1618159716.90678,46.7113,24.563309907913208
1618159716.92241,46.61304,24.57893991470337
1618159716.93803,44.82788,24.594559907913208
1618159716.95366,41.49463,24.61018991470337
1618159716.96928,37.02094,24.625809907913208
1618159716.98491,31.99219,24.64143991470337
1618159717.00054,27.021,24.65706992149353
1618159717.01616,22.57159,24.67268991470337
1618159717.03179,18.87006,24.68831992149353
1618159717.04741,15.96997,24.70393991470337
1618159717.06304,13.85065,24.71956992149353
1618159717.07866,12.49414,24.73518991470337
1618159717.09429,11.89526,24.75081992149353
1618159717.10992,11.92175,24.76644992828369
1618159717.12554,12.28418,24.78206992149353
1618159717.14117,12.46741,24.79769992828369
1618159717.15679,11.90967,24.81331992149353
1618159717.17242,10.12482,24.82894992828369
1618159717.18804,6.926147,24.84456992149353
1618159717.20367,2.538086,24.86019992828369
1618159717.2193,-2.449036,24.875829935073853
1618159717.23492,-7.286621,24.89144992828369
1618159717.25055,-11.39545,24.907079935073853
1618159717.26617,-14.58276,24.92269992828369
1618159717.2818,-17.18011,24.938329935073853
1618159717.29742,-19.85394,24.95394992828369
1618159717.31305,-23.29095,24.969579935073853
1618159717.32868,-27.78925,24.985209941864014
1618159717.3443,-32.98102,25.000829935073853
1618159717.35993,-37.76379,25.016459941864014
1618159717.37555,-40.56329,25.032079935073853
1618159717.39118,-39.73718,25.047709941864014
1618159717.4068,-34.12354,25.063329935073853
1618159717.42243,-23.41974,25.078959941864014
1618159717.43806,-8.427612,25.094589948654175
1618159717.45368,9.094788,25.110209941864014
1618159717.46931,26.88715,25.125839948654175
1618159717.48493,42.74396,25.141459941864014
1618159717.50056,55.12891,25.157089948654175
1618159717.51618,63.44666,25.172709941864014
1618159717.53181,68.01489,25.188339948654175
1618159717.54744,69.63373,25.203969955444336
1618159717.56306,69.16974,25.219589948654175
1618159717.57869,67.258,25.235219955444336
1618159717.59431,64.33337,25.250839948654175
1618159717.60994,60.75903,25.266469955444336
1618159717.62556,56.92041,25.282089948654175
1618159717.64119,53.15076,25.297719955444336
1618159717.65682,49.51422,25.313349962234497
1618159717.67244,45.74725,25.328969955444336
1618159717.68807,41.43854,25.344599962234497
1618159717.70369,36.45435,25.360219955444336
1618159717.71932,31.23877,25.375849962234497
1618159717.73494,26.71985,25.391469955444336
1618159717.75057,23.74988,25.407099962234497
1618159717.7662,22.5083,25.422729969024658
1618159717.78182,22.1759,25.438349962234497
1618159717.79745,21.33514,25.453979969024658
1618159717.81307,18.75452,25.469599962234497
1618159717.8287,14.03305,25.485229969024658
1618159717.84432,7.739288,25.500849962234497
1618159717.85995,0.9100342,25.516479969024658
1618159717.87558,-5.706421,25.53210997581482
1618159717.8912,-12.05896,25.547729969024658
1618159717.90683,-18.56961,25.56335997581482
1618159717.92245,-25.36075,25.578979969024658
1618159717.93808,-31.64017,25.59460997581482
1618159717.9537,-35.60516,25.610229969024658
1618159717.96933,-35.04367,25.62585997581482
1618159717.98496,-28.27707,25.64148998260498
1618159718.00058,-14.80798,25.65710997581482
1618159718.01621,4.648193,25.67273998260498
1618159718.03183,28.71158,25.68835997581482
1618159718.04746,55.86127,25.70398998260498
1618159718.06308,84.69958,25.71960997581482
1618159718.07871,113.7436,25.73523998260498
1618159718.09434,141.0562,25.75086998939514
1618159718.10996,164.3084,25.76648998260498
1618159718.12559,181.1786,25.78211998939514
1618159718.14121,190.2886,25.79773998260498
1618159718.15684,191.8469,25.81336998939514
1618159718.17246,187.766,25.82898998260498
1618159718.18809,181.0382,25.84461998939514
1618159718.20372,174.7659,25.860249996185303
1618159718.21934,171.3025,25.87586998939514
1618159718.23497,171.7938,25.891499996185303
1618159718.25059,176.3373,25.90711998939514
1618159718.26622,184.3212,25.922749996185303
1618159718.28184,194.593,25.93836998939514
1618159718.29747,205.4055,25.953999996185303
1618159718.3131,214.397,25.969630002975464
1618159718.32872,218.8587,25.985249996185303
1618159718.34435,216.438,26.000880002975464
1618159718.35997,205.8627,26.016499996185303
1618159718.3756,187.2764,26.032130002975464
1618159718.39122,162.01,26.047749996185303
1618159718.40685,131.872,26.063380002975464
1618159718.42248,98.28983,26.079010009765625
1618159718.4381,61.87576,26.094630002975464
1618159718.45373,22.54912,26.110260009765625
1618159718.46935,-19.93871,26.125880002975464
1618159718.48498,-65.26237,26.141510009765625
1618159718.5006,-112.1645,26.157130002975464
1618159718.51623,-158.5204,26.172760009765625
1618159718.53186,-201.8576,26.188390016555786
1618159718.54748,-239.9025,26.204010009765625
1618159718.56311,-271.121,26.219640016555786
1618159718.57873,-294.8195,26.235260009765625
1618159718.59436,-311.1855,26.250890016555786
1618159718.60998,-321.0575,26.266510009765625
1618159718.62561,-325.6725,26.282140016555786
1618159718.64124,-326.4887,26.297769784927368
1618159718.65686,-324.8821,26.313390016555786
1618159718.67249,-321.8717,26.329019784927368
1618159718.68811,-317.8768,26.344640016555786
1618159718.70374,-312.6563,26.360269784927368
1618159718.71936,-305.1495,26.375890016555786
1618159718.73499,-293.8622,26.391519784927368
1618159718.75062,-277.4597,26.40714979171753
1618159718.76624,-255.3276,26.422769784927368
1618159718.78187,-228.1056,26.43839979171753
1618159718.79749,-197.6596,26.454019784927368
1618159718.81312,-166.5809,26.46964979171753
1618159718.82874,-137.4718,26.485269784927368
1618159718.84437,-112.2847,26.50089979171753
1618159718.86,-91.87567,26.51652979850769
1618159718.87562,-76.00989,26.53214979171753
1618159718.89125,-63.78308,26.54777979850769
1618159718.90687,-54.03925,26.56339979171753
1618159718.9225,-45.91013,26.57902979850769
1618159718.93812,-38.97668,26.59464979171753
1618159718.95375,-33.18469,26.61027979850769
1618159718.96938,-28.57892,26.62590980529785
1618159718.985,-24.93594,26.64152979850769
1618159719.00063,-21.68201,26.65715980529785
1618159719.01625,-18.01663,26.67277979850769
1618159719.03188,-13.35016,26.68840980529785
1618159719.0475,-7.531158,26.70402979850769
1618159719.06313,-1.076447,26.71965980529785
1618159719.07876,5.162628,26.735289812088013
1618159719.09438,10.38181,26.75090980529785
1618159719.11001,14.13776,26.766539812088013
1618159719.12563,16.5145,26.78215980529785
1618159719.14126,17.85489,26.797789812088013
1618159719.15689,18.39252,26.813419818878174
1618159719.17251,17.97919,26.829039812088013
1618159719.18814,16.27444,26.844669818878174
1618159719.20376,12.99591,26.860289812088013
1618159719.21939,8.336578,26.875919818878174
1618159719.23501,3.080658,26.891539812088013
1618159719.25064,-1.827423,26.907169818878174
1618159719.26627,-5.698212,26.922799825668335
1618159719.28189,-8.52475,26.938419818878174
1618159719.29752,-10.95407,26.954049825668335
1618159719.31314,-13.92358,26.969669818878174
1618159719.32877,-18.11713,26.985299825668335
1618159719.34439,-23.74548,27.000919818878174
1618159719.36002,-30.52524,27.016549825668335
1618159719.37565,-38.00351,27.032179832458496
1618159719.39127,-45.784,27.047799825668335
1618159719.4069,-53.49231,27.063429832458496
1618159719.42252,-60.54974,27.079049825668335
1618159719.43815,-65.96313,27.094679832458496
1618159719.45377,-68.3782,27.110299825668335
1618159719.4694,-66.49173,27.125929832458496
1618159719.48503,-59.63977,27.141559839248657
1618159719.50065,-48.18253,27.157179832458496
1618159719.51628,-33.50067,27.172809839248657
1618159719.5319,-17.58789,27.188429832458496
1618159719.54753,-2.377991,27.204059839248657
1618159719.56315,10.73413,27.219679832458496
1618159719.57878,21.0961,27.235309839248657
1618159719.59441,28.65463,27.25093984603882
1618159719.61003,33.66275,27.266559839248657
1618159719.62566,36.38684,27.28218984603882
1618159719.64128,37.05493,27.297809839248657
1618159719.65691,35.90598,27.31343984603882
1618159719.67253,33.27454,27.329059839248657
1618159719.68816,29.73883,27.34468984603882
1618159719.70379,26.00085,27.36031985282898
1618159719.71941,22.73862,27.37593984603882
1618159719.73504,20.43301,27.39156985282898
1618159719.75066,19.27441,27.40718984603882
1618159719.76629,19.09631,27.42281985282898
1618159719.78191,19.53113,27.43843984603882
1618159719.79754,20.13464,27.45406985282898
1618159719.81317,20.48834,27.46969985961914
1618159719.82879,20.41617,27.48531985282898
1618159719.84442,19.87636,27.50094985961914
1618159719.86004,18.99397,27.51656985282898
1618159719.87567,17.85437,27.53219985961914
1618159719.89129,16.42139,27.54781985282898
1618159719.90692,14.48515,27.56344985961914
1618159719.92255,11.71815,27.5790798664093
1618159719.93817,7.874573,27.59469985961914
1618159719.9538,2.943375,27.6103298664093
1618159719.96942,-2.730881,27.62594985961914
1618159719.98505,-8.576508,27.6415798664093
1618159720.00067,-13.94679,27.65719985961914
1618159720.0163,-18.40755,27.6728298664093
1618159720.03193,-21.89598,27.688459873199463
1618159720.04755,-24.71271,27.7040798664093
1618159720.06318,-27.40506,27.719709873199463
1618159720.0788,-30.58992,27.7353298664093
1618159720.09443,-34.69305,27.750959873199463
1618159720.11005,-39.75621,27.7665798664093
1618159720.12568,-45.2885,27.782209873199463
1618159720.14131,-50.2711,27.797839879989624
1618159720.15693,-53.34764,27.813459873199463
1618159720.17256,-53.14384,27.829089879989624
1618159720.18818,-48.72203,27.844709873199463
1618159720.20381,-39.91533,27.860339879989624
1618159720.21943,-27.40498,27.875959873199463
1618159720.23506,-12.5797,27.891589879989624
1618159720.25069,2.856903,27.907219886779785
1618159720.26631,17.27776,27.922839879989624
1618159720.28194,29.46712,27.938469886779785
1618159720.29756,38.70826,27.954089879989624
1618159720.31319,44.71355,27.969719886779785
1618159720.32881,47.5858,27.985339879989624
1618159720.34444,47.64772,28.000969886779785
1618159720.36007,45.39631,28.016599893569946
1618159720.37569,41.44631,28.032219886779785
1618159720.39132,36.44984,28.047849893569946
1618159720.40694,31.118,28.063469886779785
1618159720.42257,26.09789,28.079099893569946
1618159720.43819,21.92349,28.094719886779785
1618159720.45382,18.88908,28.110349893569946
1618159720.46945,17.03725,28.125979900360107
1618159720.48507,16.14995,28.141599893569946
1618159720.5007,15.86494,28.157229900360107
1618159720.51632,15.872,28.172849893569946
1618159720.53195,15.97681,28.188479900360107
1618159720.54757,16.09739,28.204099893569946
1618159720.5632,16.22936,28.219729900360107
1618159720.57883,16.26383,28.23535990715027
1618159720.59445,15.92569,28.250979900360107
1618159720.61008,14.79641,28.26660990715027
1618159720.6257,12.53577,28.282229900360107
1618159720.64133,8.939758,28.29785990715027
1618159720.65695,4.113338,28.313479900360107
1618159720.67258,-1.537632,28.32910990715027
1618159720.68821,-7.449305,28.34473991394043
1618159720.70383,-13.02273,28.36035990715027
1618159720.71946,-17.82652,28.37598991394043
1618159720.73508,-21.74781,28.39160990715027
1618159720.75071,-25.12737,28.40723991394043
1618159720.76633,-28.60946,28.42285990715027
1618159720.78196,-32.94852,28.43848991394043
1618159720.79759,-38.48994,28.45411992073059
1618159720.81321,-44.82983,28.46973991394043
1618159720.82884,-50.7267,28.48536992073059
1618159720.84446,-54.30184,28.50098991394043
1618159720.86009,-53.68659,28.51661992073059
1618159720.87571,-47.74404,28.53223991394043
1618159720.89134,-36.5647,28.54786992073059
1618159720.90697,-21.44402,28.563499927520752
1618159720.92259,-4.535772,28.57911992073059
1618159720.93822,11.91063,28.594749927520752
1618159720.95384,26.07121,28.61036992073059
1618159720.96947,36.84549,28.625999927520752
1618159720.98509,43.95933,28.64161992073059
1618159721.00072,47.64587,28.657249927520752
1618159721.01635,48.48782,28.672879934310913
1618159721.03197,47.23436,28.688499927520752
1618159721.0476,44.69456,28.704129934310913
1618159721.06322,41.58087,28.719749927520752
1618159721.07885,38.47307,28.735379934310913
1618159721.09447,35.67598,28.750999927520752
1618159721.1101,33.21657,28.766629934310913
1618159721.12573,31.01068,28.782259941101074
1618159721.14135,28.9053,28.797879934310913
1618159721.15698,26.82899,28.813509941101074
1618159721.1726,24.78167,28.829129934310913
1618159721.18823,22.8224,28.844759941101074
1618159721.20385,21.00744,28.860379934310913
1618159721.21948,19.44952,28.876009941101074
1618159721.23511,18.25406,28.891639947891235
1618159721.25073,17.47306,28.907259941101074
1618159721.26636,17.02583,28.922889947891235
1618159721.28198,16.57639,28.938509941101074
1618159721.29761,15.61058,28.954139947891235
1618159721.31323,13.59057,28.969759941101074
1618159721.32886,10.1925,28.985389947891235
1618159721.34449,5.45787,29.001019954681396
1618159721.36011,-0.1171494,29.016639947891235
1618159721.37574,-5.777557,29.032269954681396
1618159721.39136,-10.81819,29.047889947891235
1618159721.40699,-14.87328,29.063519954681396
1618159721.42262,-18.0659,29.079149961471558
1618159721.43824,-20.96291,29.094769954681396
1618159721.45387,-24.36105,29.110399961471558
1618159721.46949,-28.97289,29.126019954681396
1618159721.48512,-35.05595,29.141649961471558
1618159721.50074,-42.15085,29.157269954681396
1618159721.51637,-49.08534,29.172899961471558
1618159721.532,-54.1348,29.18852996826172
1618159721.54762,-55.48747,29.204149961471558
1618159721.56325,-51.79665,29.21977996826172
1618159721.57887,-42.62341,29.235399961471558
1618159721.5945,-28.77513,29.25102996826172
1618159721.61012,-12.12231,29.266649961471558
1618159721.62575,4.835419,29.28227996826172
1618159721.64138,19.75121,29.29790997505188
1618159721.657,31.02539,29.31352996826172
1618159721.67263,38.16818,29.32915997505188
1618159721.68825,41.71889,29.34477996826172
1618159721.70388,42.75668,29.36040997505188
1618159721.7195,42.46617,29.37602996826172
1618159721.73513,41.68182,29.39165997505188
1618159721.75076,40.88597,29.40728998184204
1618159721.76638,40.23311,29.42290997505188
1618159721.78201,39.78908,29.43853998184204
1618159721.79763,39.56471,29.45415997505188
1618159721.81326,39.45987,29.46978998184204
1618159721.82888,39.27264,29.48540997505188
1618159721.84451,38.67975,29.50103998184204
1618159721.86014,37.44318,29.516669988632202
1618159721.87576,35.56087,29.53228998184204
1618159721.89139,33.39764,29.547919988632202
1618159721.90701,31.51083,29.56353998184204
1618159721.92264,30.37546,29.579169988632202
1618159721.93826,30.07536,29.59478998184204
1618159721.95389,30.11879,29.610419988632202
1618159721.96952,29.61617,29.626049995422363
1618159721.98514,27.59216,29.641669988632202
1618159722.00077,23.43333,29.657299995422363
1618159722.01639,17.10146,29.672919988632202
1618159722.03202,9.217209,29.688549995422363
1618159722.04764,0.71875,29.704169988632202
1618159722.06327,-7.483154,29.719799995422363
1618159722.0789,-14.79459,29.735430002212524
1618159722.09452,-21.10492,29.751049995422363
1618159722.11015,-26.64418,29.766680002212524
1618159722.12577,-31.87231,29.782299995422363
1618159722.1414,-37.25421,29.797930002212524
1618159722.15702,-43.10181,29.813549995422363
1618159722.17265,-49.40527,29.829180002212524
1618159722.18828,-55.70911,29.844810009002686
1618159722.2039,-61.10544,29.860430002212524
1618159722.21953,-64.24658,29.876060009002686
1618159722.23515,-63.69444,29.891680002212524
1618159722.25078,-58.37277,29.907310009002686
1618159722.2664,-48.02336,29.922930002212524
1618159722.28203,-33.48744,29.938560009002686
1618159722.29766,-16.50929,29.954190015792847
1618159722.31328,0.6820526,29.969810009002686
1618159722.32891,16.0488,29.985440015792847
1618159722.34453,28.25275,30.001060009002686
1618159722.36016,36.87656,30.016690015792847
1618159722.37578,42.22318,30.032310009002686
1618159722.39141,44.92477,30.047940015792847
1618159722.40704,45.57199,30.063570022583008
1618159722.42266,44.55557,30.079190015792847
1618159722.43829,42.14957,30.094820022583008
1618159722.45391,38.64001,30.110440015792847
1618159722.46954,34.51096,30.126070022583008
1618159722.48516,30.38989,30.141690015792847
1618159722.50079,26.88779,30.157320022583008
1618159722.51642,24.39291,30.17294979095459
1618159722.53204,22.94159,30.188570022583008
1618159722.54767,22.26328,30.20419979095459
1618159722.56329,21.9873,30.219820022583008
1618159722.57892,21.80109,30.23544979095459
1618159722.59454,21.62064,30.251070022583008
1618159722.61017,21.51144,30.26669979095459
1618159722.6258,21.56229,30.28232979774475
1618159722.64142,21.63754,30.29794979095459
1618159722.65705,21.39963,30.31357979774475
1618159722.67267,20.36478,30.32919979095459
1618159722.6883,18.15845,30.34482979774475
1618159722.70392,14.72916,30.36044979095459
1618159722.71955,10.37762,30.37607979774475
1618159722.73518,5.677246,30.391709804534912
1618159722.7508,1.185699,30.40732979774475
1618159722.76643,-2.770813,30.422959804534912
1618159722.78205,-6.264496,30.43857979774475
1618159722.79768,-9.634369,30.454209804534912
1618159722.8133,-13.34332,30.46982979774475
1618159722.82893,-17.79181,30.485459804534912
1618159722.84456,-23.12988,30.501089811325073
1618159722.86018,-29.10748,30.516709804534912
1618159722.87581,-35.03082,30.532339811325073
1618159722.89143,-39.785,30.547959804534912
1618159722.90706,-42.05093,30.563589811325073
1618159722.92268,-40.61911,30.579209804534912
1618159722.93831,-34.79141,30.594839811325073
1618159722.95394,-24.73935,30.610469818115234
1618159722.96956,-11.56232,30.626089811325073
1618159722.98519,2.946106,30.641719818115234
1618159723.00081,16.76895,30.657339811325073
1618159723.01644,28.23624,30.672969818115234
1618159723.03206,36.38092,30.688589811325073
1618159723.04769,41.02023,30.704219818115234
1618159723.06332,42.63721,30.719849824905396
1618159723.07894,42.04303,30.735469818115234
1618159723.09457,40.03082,30.751099824905396
1618159723.11019,37.16544,30.766719818115234
1618159723.12582,33.81006,30.782349824905396
1618159723.14144,30.13223,30.797969818115234
1618159723.15707,26.28687,30.813599824905396
1618159723.1727,22.53287,30.829229831695557
1618159723.18832,19.18097,30.844849824905396
1618159723.20395,16.53607,30.860479831695557
1618159723.21957,14.80087,30.876099824905396
1618159723.2352,13.96167,30.891729831695557
1618159723.25082,13.81381,30.907349824905396
1618159723.26645,14.01703,30.922979831695557
1618159723.28208,14.15454,30.938609838485718
1618159723.2977,13.84604,30.954229831695557
1618159723.31333,12.82095,30.969859838485718
1618159723.32895,10.9223,30.985479831695557
1618159723.34458,8.077515,31.001109838485718
1618159723.3602,4.278687,31.016729831695557
1618159723.37583,-0.3533325,31.032359838485718
1618159723.39146,-5.551819,31.04798984527588
1618159723.40708,-10.92294,31.063609838485718
1618159723.42271,-16.07657,31.07923984527588
1618159723.43833,-20.76605,31.094859838485718
1618159723.45396,-25.07404,31.11048984527588
1618159723.46958,-29.40439,31.126109838485718
1618159723.48521,-34.34311,31.14173984527588
1618159723.50084,-40.29068,31.15736985206604
1618159723.51646,-47.021,31.17298984527588
1618159723.53209,-53.44791,31.18861985206604
1618159723.54771,-57.79532,31.20423984527588
1618159723.56334,-58.15741,31.21986985206604
1618159723.57896,-53.18576,31.23548984527588
1618159723.59459,-42.68759,31.25111985206604
1618159723.61022,-27.77518,31.2667498588562
1618159723.62584,-10.52539,31.28236985206604
1618159723.64147,6.721436,31.2979998588562
1618159723.65709,21.94119,31.31361985206604
1618159723.67272,33.92886,31.3292498588562
1618159723.68834,42.36792,31.34486985206604
1618159723.70397,47.57153,31.3604998588562
1618159723.7196,50.17477,31.376129865646362
1618159723.73522,50.81332,31.3917498588562
1618159723.75085,49.96893,31.407379865646362
1618159723.76647,47.9371,31.4229998588562
1618159723.7821,44.90488,31.438629865646362
1618159723.79772,41.02631,31.4542498588562
1618159723.81335,36.57919,31.469879865646362
1618159723.82898,32.01978,31.485509872436523
1618159723.8446,27.96344,31.501129865646362
1618159723.86023,25.01334,31.516759872436523
1618159723.87585,23.54608,31.532379865646362
1618159723.89148,23.48746,31.548009872436523
1618159723.9071,24.27612,31.563629865646362
1618159723.92273,25.07864,31.579259872436523
1618159723.93836,25.06943,31.594889879226685
1618159723.95398,23.77557,31.610509872436523
1618159723.96961,21.19058,31.626139879226685
1618159723.98523,17.75452,31.641759872436523
1618159724.00086,14.14819,31.657389879226685
1618159724.01649,11.04041,31.673019886016846
1618159724.03211,8.848297,31.688639879226685
1618159724.04774,7.583252,31.704269886016846
1618159724.06336,6.777283,31.719889879226685
1618159724.07899,5.577942,31.735519886016846
1618159724.09461,2.942123,31.751139879226685
1618159724.11024,-2.070068,31.766769886016846
1618159724.12587,-9.884613,31.782399892807007
1618159724.14149,-20.09055,31.798019886016846
1618159724.15712,-31.37474,31.813649892807007
1618159724.17274,-41.729,31.829269886016846
1618159724.18837,-49.0038,31.844899892807007
1618159724.20399,-51.48521,31.860519886016846
1618159724.21962,-48.42148,31.876149892807007
1618159724.23525,-40.18771,31.891779899597168
1618159724.25087,-28.18314,31.907399892807007
1618159724.2665,-14.40323,31.923029899597168
1618159724.28212,-0.9082947,31.938649892807007
1618159724.29775,10.63704,31.954279899597168
1618159724.31337,19.30235,31.969899892807007
1618159724.329,24.92729,31.985529899597168
1618159724.34463,27.99677,32.00115990638733
1618159724.36025,29.29523,32.01677989959717
1618159724.37588,29.5833,32.03240990638733
1618159724.3915,29.35941,32.04802989959717
1618159724.40713,28.7832,32.06365990638733
1618159724.42275,27.77792,32.07927989959717
1618159724.43838,26.18777,32.09490990638733
1618159724.45401,23.98213,32.11053991317749
1618159724.46963,21.20631,32.12615990638733
1618159724.48526,18.00536,32.14178991317749
1618159724.50088,14.50273,32.15740990638733
1618159724.51651,10.69632,32.17303991317749
1618159724.53213,6.603302,32.18865990638733
1618159724.54776,2.274841,32.20428991317749
1618159724.56339,-2.128738,32.21991991996765
1618159724.57901,-6.355759,32.23553991317749
1618159724.59464,-10.11041,32.25116991996765
1618159724.61026,-13.26874,32.26678991317749
1618159724.62589,-15.92928,32.28241991996765
1618159724.64151,-18.3974,32.29803991317749
1618159724.65714,-21.04301,32.31366991996765
1618159724.67277,-24.11508,32.32929992675781
1618159724.68839,-27.6335,32.34491991996765
1618159724.70402,-31.44197,32.36054992675781
1618159724.71964,-35.41116,32.37616991996765
1618159724.73527,-39.50046,32.39179992675781
1618159724.75089,-43.8298,32.40741991996765
1618159724.76652,-48.35594,32.42304992675781
1618159724.78215,-52.6178,32.438679933547974
1618159724.79777,-55.55698,32.45429992675781
1618159724.8134,-55.69241,32.469929933547974
1618159724.82902,-51.65337,32.48554992675781
1618159724.84465,-42.81084,32.501179933547974
1618159724.86027,-29.65436,32.51679992675781
1618159724.8759,-13.73669,32.532429933547974
1618159724.89153,2.721848,32.548059940338135
1618159724.90715,17.5674,32.563679933547974
1618159724.92278,29.21025,32.579309940338135
1618159724.9384,36.8632,32.594929933547974
1618159724.95403,40.50302,32.610559940338135
1618159724.96965,40.64197,32.626179933547974
1618159724.98528,38.0266,32.641809940338135
1618159725.00091,33.53502,32.657439947128296
1618159725.01653,28.03098,32.673059940338135
1618159725.03216,22.30928,32.688689947128296
1618159725.04778,16.98586,32.704309940338135
1618159725.06341,12.44524,32.719939947128296
1618159725.07903,8.803696,32.735559940338135
1618159725.09466,6.007126,32.751189947128296
1618159725.11029,3.896774,32.76681995391846
1618159725.12591,2.251434,32.782439947128296
1618159725.14154,0.8672638,32.79806995391846
1618159725.15716,-0.4539032,32.813689947128296
1618159725.17279,-1.816696,32.82931995391846
1618159725.18841,-3.285629,32.844939947128296
1618159725.20404,-4.805115,32.86056995391846
1618159725.21967,-6.318329,32.87619996070862
1618159725.23529,-7.783463,32.89181995391846
1618159725.25092,-9.277588,32.90744996070862
1618159725.26654,-10.98965,32.92306995391846
1618159725.28217,-13.16632,32.93869996070862
1618159725.29779,-16.04807,32.95431995391846
1618159725.31342,-19.73169,32.96994996070862
1618159725.32905,-24.2352,32.98557996749878
1618159725.34467,-29.49437,33.00119996070862
1618159725.3603,-35.50978,33.01682996749878
1618159725.37592,-42.21776,33.03244996070862
1618159725.39155,-49.41281,33.04807996749878
1618159725.40717,-56.46356,33.06369996070862
1618159725.4228,-62.23634,33.07932996749878
1618159725.43843,-65.3002,33.09495997428894
1618159725.45405,-64.31204,33.11057996749878
1618159725.46968,-58.54845,33.12620997428894
1618159725.4853,-48.29773,33.14182996749878
1618159725.50093,-34.85512,33.15745997428894
1618159725.51655,-20.17934,33.17307996749878
1618159725.53218,-6.263138,33.18870997428894
1618159725.54781,5.408722,33.2043399810791
1618159725.56343,14.17302,33.21995997428894
1618159725.57906,20.07957,33.2355899810791
1618159725.59468,23.62187,33.25120997428894
1618159725.61031,25.40559,33.2668399810791
1618159725.62593,25.90016,33.28245997428894
1618159725.64156,25.40845,33.2980899810791
1618159725.65719,24.04929,33.31371998786926
1618159725.67281,21.9614,33.3293399810791
1618159725.68844,19.26556,33.34496998786926
1618159725.70406,16.2542,33.3605899810791
1618159725.71969,13.32921,33.37621998786926
1618159725.73531,11.02589,33.3918399810791
1618159725.75094,9.820618,33.40746998786926
1618159725.76657,9.975357,33.423099994659424
1618159725.78219,11.38525,33.43871998786926
1618159725.79782,13.56281,33.454349994659424
1618159725.81344,15.80263,33.46996998786926
1618159725.82907,17.39537,33.485599994659424
1618159725.84469,17.89392,33.50121998786926
1618159725.86032,17.18695,33.516849994659424
1618159725.87595,15.50026,33.532480001449585
1618159725.89157,13.16165,33.548099994659424
1618159725.9072,10.51884,33.563730001449585
1618159725.92282,7.779175,33.579349994659424
1618159725.93845,4.973068,33.594980001449585
1618159725.95407,2.035889,33.610599994659424
1618159725.9697,-1.206253,33.626230001449585
1618159725.98533,-5.013535,33.641860008239746
1618159726.00095,-9.67067,33.657480001449585
1618159726.01658,-15.35223,33.673110008239746
1618159726.0322,-21.9615,33.688730001449585
1618159726.04783,-28.96298,33.704360008239746
1618159726.06345,-35.28091,33.719980001449585
1618159726.07908,-39.45348,33.735610008239746
1618159726.09471,-39.96507,33.75124001502991
1618159726.11033,-35.75768,33.766860008239746
1618159726.12596,-26.63029,33.78249001502991
1618159726.14158,-13.52139,33.798110008239746
1618159726.15721,1.745834,33.81374001502991
1618159726.17283,16.95457,33.829360008239746
1618159726.18846,30.12125,33.84499001502991
1618159726.20409,39.98817,33.86062002182007
1618159726.21971,46.17126,33.87624001502991
1618159726.23534,48.98311,33.89187002182007
1618159726.25096,49.01366,33.90749001502991
1618159726.26659,46.87512,33.92312002182007
1618159726.28222,42.9987,33.93874979019165
1618159726.29784,37.77873,33.95437002182007
1618159726.31347,31.68799,33.96999979019165
1618159726.32909,25.396,33.98562002182007
1618159726.34472,19.66299,34.00124979019165
1618159726.36034,15.12044,34.01687002182007
1618159726.37597,12.12923,34.03249979019165
1618159726.3916,10.6013,34.04812979698181
1618159726.40722,10.16708,34.06374979019165
1618159726.42285,10.27022,34.07937979698181
1618159726.43847,10.41074,34.09499979019165
1618159726.4541,10.22827,34.11062979698181
1618159726.46972,9.571625,34.12624979019165
1618159726.48535,8.461761,34.14187979698181
1618159726.50098,6.946335,34.15750980377197
1618159726.5166,5.049362,34.17312979698181
1618159726.53223,2.727158,34.18875980377197
1618159726.54785,-0.06752014,34.20437979698181
1618159726.56348,-3.357101,34.22000980377197
1618159726.5791,-7.153259,34.23562979698181
1618159726.59473,-11.51784,34.25125980377197
1618159726.61036,-16.67755,34.266889810562134
1618159726.62598,-22.92787,34.28250980377197
1618159726.64161,-30.51622,34.298139810562134
1618159726.65723,-39.2984,34.31375980377197
1618159726.67286,-48.49191,34.329389810562134
1618159726.68848,-56.65955,34.34500980377197
1618159726.70411,-62.00664,34.360639810562134
1618159726.71974,-62.9456,34.376269817352295
1618159726.73536,-58.5873,34.391889810562134
1618159726.75099,-49.10022,34.407519817352295
1618159726.76661,-35.61575,34.423139810562134
1618159726.78224,-19.94334,34.438769817352295
1618159726.79786,-4.066559,34.454389810562134
1618159726.81349,10.22462,34.470019817352295
1618159726.82912,21.66107,34.485649824142456
1618159726.84474,29.55573,34.501269817352295
1618159726.86037,33.77919,34.516899824142456
1618159726.87599,34.72147,34.532519817352295
1618159726.89162,33.05336,34.548149824142456
1618159726.90724,29.5601,34.563769817352295
1618159726.92287,24.98416,34.579399824142456
1618159726.9385,19.90799,34.59502983093262
1618159726.95412,14.78815,34.610649824142456
1618159726.96975,9.983322,34.62627983093262
1618159726.98537,5.854233,34.641899824142456
1618159727.001,2.75499,34.65752983093262
1618159727.01662,1.012039,34.673149824142456
1618159727.03225,0.750061,34.68877983093262
1618159727.04788,1.770523,34.70440983772278
1618159727.0635,3.540192,34.72002983093262
1618159727.07913,5.284073,34.73565983772278
1618159727.09475,6.274673,34.75127983093262
1618159727.11038,6.037094,34.76690983772278
1618159727.126,4.529236,34.78252983093262
1618159727.14163,2.071014,34.79815983772278
1618159727.15726,-0.7974701,34.81378984451294
1618159727.17288,-3.638336,34.82940983772278
1618159727.18851,-6.254074,34.84503984451294
1618159727.20413,-8.710556,34.86065983772278
1618159727.21976,-11.25272,34.87628984451294
1618159727.23538,-14.15813,34.89190983772278
1618159727.25101,-17.63792,34.90753984451294
1618159727.26664,-21.82365,34.9231698513031
1618159727.28226,-26.76788,34.93878984451294
1618159727.29789,-32.32181,34.9544198513031
1618159727.31351,-38.04561,34.97003984451294
1618159727.32914,-43.0452,34.9856698513031
1618159727.34476,-46.04517,35.00128984451294
1618159727.36039,-45.6727,35.0169198513031
1618159727.37602,-40.90904,35.03254985809326
1618159727.39164,-31.52986,35.0481698513031
1618159727.40727,-18.36285,35.06379985809326
1618159727.42289,-3.141098,35.0794198513031
1618159727.43852,11.93007,35.09504985809326
1618159727.45414,24.82242,35.1106698513031
1618159727.46977,34.18976,35.12629985809326
1618159727.4854,39.63449,35.14192986488342
1618159727.50102,41.56204,35.15754985809326
1618159727.51665,40.8662,35.17317986488342
1618159727.53227,38.528,35.18879985809326
1618159727.5479,35.28801,35.20442986488342
1618159727.56352,31.60007,35.22004985809326
1618159727.57915,27.65952,35.23567986488342
1618159727.59478,23.59914,35.251309871673584
1618159727.6104,19.61111,35.26692986488342
1618159727.62603,15.9115,35.282559871673584
1618159727.64165,12.76503,35.29817986488342
1618159727.65728,10.39116,35.313809871673584
1618159727.6729,8.900436,35.32942986488342
1618159727.68853,8.245377,35.345059871673584
1618159727.70416,8.205811,35.360689878463745
1618159727.71978,8.419662,35.376309871673584
1618159727.73541,8.456558,35.391939878463745
1618159727.75103,7.969559,35.407559871673584
1618159727.76666,6.764816,35.423189878463745
1618159727.78228,4.853104,35.438809871673584
1618159727.79791,2.350143,35.454439878463745
1618159727.81354,-0.5599976,35.470069885253906
1618159727.82916,-3.763855,35.485689878463745
1618159727.84479,-7.211044,35.501319885253906
1618159727.86041,-10.94482,35.516939878463745
1618159727.87604,-15.04366,35.532569885253906
1618159727.89166,-19.59401,35.548189878463745
1618159727.90729,-24.71472,35.563819885253906
1618159727.92292,-30.45857,35.57944989204407
1618159727.93854,-36.72269,35.595069885253906
1618159727.95417,-43.05464,35.61069989204407
1618159727.96979,-48.54425,35.626319885253906
1618159727.98542,-51.89816,35.64194989204407
1618159728.00104,-51.74501,35.657569885253906
1618159728.01667,-47.09108,35.67319989204407
1618159728.0323,-37.6304,35.68882989883423
1618159728.04792,-24.04079,35.70444989204407
1618159728.06355,-7.85376,35.72007989883423
1618159728.07917,8.829285,35.73569989204407
1618159728.0948,23.89084,35.75132989883423
1618159728.11042,35.74254,35.76694989204407
1618159728.12605,43.63062,35.78257989883423
1618159728.14168,47.67668,35.79820990562439
1618159728.1573,48.59422,35.81382989883423
1618159728.17293,47.35979,35.82945990562439
1618159728.18855,44.85168,35.84507989883423
1618159728.20418,41.72939,35.86070990562439
1618159728.2198,38.39249,35.87632989883423
1618159728.23543,35.09276,35.89195990562439
1618159728.25106,32.02429,35.90758991241455
1618159728.26668,29.31731,35.92320990562439
1618159728.28231,26.96796,35.93883991241455
1618159728.29793,24.84819,35.95445990562439
1618159728.31356,22.82185,35.97008991241455
1618159728.32918,20.87601,35.98570990562439
1618159728.34481,19.18282,36.00133991241455
1618159728.36044,18.00105,36.01696991920471
1618159728.37606,17.49036,36.03258991241455
1618159728.39169,17.52815,36.04821991920471
1618159728.40731,17.6241,36.06383991241455
1618159728.42294,17.09872,36.07946991920471
1618159728.43857,15.29095,36.09509992599487
1618159728.45419,11.83914,36.11071991920471
1618159728.46982,6.740692,36.12634992599487
1618159728.48544,0.411972,36.14196991920471
1618159728.50107,-6.433914,36.15759992599487
1618159728.51669,-13.04822,36.17321991920471
1618159728.53232,-18.77452,36.18884992599487
1618159728.54795,-23.33212,36.204479932785034
1618159728.56357,-26.86278,36.22009992599487
1618159728.5792,-29.96458,36.235729932785034
1618159728.59482,-33.41399,36.25134992599487
1618159728.61045,-37.82051,36.266979932785034
1618159728.62607,-43.19189,36.28259992599487
1618159728.6417,-48.69234,36.298229932785034
1618159728.65733,-52.75249,36.313859939575195
1618159728.67295,-53.55325,36.329479932785034
1618159728.68858,-49.65195,36.345109939575195
1618159728.7042,-40.57947,36.360729932785034
1618159728.71983,-27.13951,36.376359939575195
1618159728.73545,-11.26033,36.391979932785034
1618159728.75108,4.519897,36.407609939575195
1618159728.76671,17.74106,36.423239946365356
1618159728.78233,26.62357,36.438859939575195
1618159728.79796,30.42656,36.454489946365356
1618159728.81358,29.493,36.470109939575195
1618159728.82921,25.0725,36.485739946365356
1618159728.84483,18.96978,36.501359939575195
1618159728.86046,13.15429,36.516989946365356
1618159728.87609,9.448677,36.53261995315552
1618159728.89171,9.28685,36.548239946365356
1618159728.90734,13.54798,36.56386995315552
1618159728.92296,22.51585,36.579489946365356
1618159728.93859,35.86918,36.59511995315552
1618159728.95421,52.78458,36.610739946365356
1618159728.96984,71.95978,36.62636995315552
1618159728.98547,91.88066,36.64199995994568
1618159729.00109,111.1067,36.65761995315552
1618159729.01672,128.5949,36.67324995994568
1618159729.03234,143.8529,36.68886995315552
1618159729.04797,156.9149,36.70449995994568
1618159729.06359,168.0267,36.72011995315552
1618159729.07922,177.3366,36.73574995994568
1618159729.09485,184.7758,36.75137996673584
1618159729.11047,190.1237,36.76699995994568
1618159729.1261,193.2377,36.78262996673584
1618159729.14172,194.2564,36.79824995994568
1618159729.15735,193.7078,36.81387996673584
1618159729.17297,192.468,36.82949995994568
1618159729.1886,191.5971,36.84512996673584
1618159729.20423,192.143,36.860759973526
1618159729.21985,194.8173,36.87637996673584
1618159729.23548,199.5998,36.892009973526
1618159729.2511,205.2628,36.90762996673584
1618159729.26673,209.1007,36.923259973526
1618159729.28235,207.2519,36.93887996673584
1618159729.29798,195.6195,36.954509973526
1618159729.31361,171.3264,36.97013998031616
1618159729.32923,134.0841,36.985759973526
1618159729.34486,86.76093,37.00138998031616
1618159729.36048,34.83444,37.017009973526
1618159729.37611,-15.37122,37.03263998031616
1618159729.39173,-58.67503,37.048259973526
1618159729.40736,-92.55252,37.06388998031616
1618159729.42299,-117.4187,37.07951998710632
1618159729.43861,-135.8043,37.09513998031616
1618159729.45424,-150.7662,37.11076998710632
1618159729.46986,-164.498,37.12638998031616
1618159729.48549,-177.6981,37.14201998710632
1618159729.50111,-189.865,37.15763998031616
1618159729.51674,-200.1363,37.17326998710632
1618159729.53237,-208.0879,37.188899993896484
1618159729.54799,-213.9539,37.20451998710632
1618159729.56362,-218.2562,37.220149993896484
1618159729.57924,-221.3249,37.23576998710632
1618159729.59487,-222.835,37.251399993896484
1618159729.61049,-221.9603,37.26701998710632
1618159729.62612,-217.8248,37.282649993896484
1618159729.64175,-210.0803,37.298280000686646
1618159729.65737,-199.2338,37.313899993896484
1618159729.673,-186.4484,37.329530000686646
1618159729.68862,-173.1183,37.345149993896484
1618159729.70425,-160.2972,37.360780000686646
1618159729.71987,-148.4178,37.376399993896484
1618159729.7355,-137.2749,37.392030000686646
1618159729.75113,-126.3703,37.40766000747681
1618159729.76675,-115.3539,37.423280000686646
1618159729.78238,-104.3351,37.43891000747681
1618159729.798,-93.98248,37.454530000686646
1618159729.81363,-85.23416,37.47016000747681
1618159729.82925,-78.91217,37.485780000686646
1618159729.84488,-75.34451,37.50141000747681
1618159729.86051,-74.17572,37.51704001426697
1618159729.87613,-74.40164,37.53266000747681
1618159729.89176,-74.74808,37.54829001426697
1618159729.90738,-74.12753,37.56391000747681
1618159729.92301,-72.03894,37.57954001426697
1618159729.93863,-68.7692,37.59516000747681
1618159729.95426,-65.2551,37.61079001426697
1618159729.96989,-62.77643,37.62642002105713
1618159729.98551,-62.42035,37.64204001426697
1618159730.00114,-64.67773,37.65767002105713
1618159730.01676,-69.11545,37.67329001426697
1618159730.03239,-74.38589,37.68892002105713
1618159730.04801,-78.48257,37.70454001426697
1618159730.06364,-79.25055,37.72017002105713
1618159730.07927,-75.03076,37.73579978942871
1618159730.09489,-65.16098,37.75142002105713
1618159730.11052,-50.26514,37.76704978942871
1618159730.12614,-32.1412,37.78267002105713
1618159730.14177,-13.2243,37.79829978942871
1618159730.15739,4.124908,37.81392002105713
1618159730.17302,18.19156,37.82954978942871
1618159730.18865,28.28622,37.84517979621887
1618159730.20427,34.66238,37.86079978942871
1618159730.2199,38.07578,37.87642979621887
1618159730.23552,39.37149,37.89204978942871
1618159730.25115,39.14648,37.90767979621887
1618159730.26677,37.66751,37.92329978942871
1618159730.2824,35.10385,37.93892979621887
1618159730.29803,31.72906,37.95455980300903
1618159730.31365,28.01736,37.97017979621887
1618159730.32928,24.57965,37.98580980300903
1618159730.3449,21.88934,38.00142979621887
1618159730.36053,20.0224,38.01705980300903
1618159730.37615,18.64426,38.03267979621887
1618159730.39178,17.21536,38.04830980300903
1618159730.40741,15.27963,38.063939809799194
1618159730.42303,12.79382,38.07955980300903
1618159730.43866,10.14459,38.095189809799194
1618159730.45428,7.927734,38.11080980300903
1618159730.46991,6.546631,38.126439809799194
1618159730.48553,5.926117,38.14205980300903
1618159730.50116,5.448151,38.157689809799194
1618159730.51679,4.2323,38.173319816589355
1618159730.53241,1.614288,38.188939809799194
1618159730.54804,-2.487305,38.204569816589355
1618159730.56366,-7.453735,38.220189809799194
1618159730.57929,-12.27567,38.235819816589355
1618159730.59491,-16.02985,38.251439809799194
1618159730.61054,-18.25568,38.267069816589355
1618159730.62617,-19.13351,38.28269982337952
1618159730.64179,-19.41882,38.298319816589355
1618159730.65742,-20.05203,38.31394982337952
1618159730.67304,-21.92557,38.329569816589355
1618159730.68867,-25.59352,38.34519982337952
1618159730.70429,-31.06282,38.360819816589355
1618159730.71992,-37.72112,38.37644982337952
1618159730.73555,-44.33199,38.39207983016968
1618159730.75117,-49.17358,38.40769982337952
1618159730.7668,-50.36374,38.42332983016968
1618159730.78242,-46.49425,38.43894982337952
1618159730.79805,-37.10519,38.45457983016968
1618159730.81367,-23.03296,38.47019982337952
1618159730.8293,-6.220734,38.48582983016968
1618159730.84493,10.85876,38.50145983695984
1618159730.86055,26.03329,38.51707983016968
1618159730.87618,37.92102,38.53270983695984
1618159730.8918,46.17886,38.54832983016968
1618159730.90743,51.20802,38.56395983695984
1618159730.92305,53.71304,38.57957983016968
1618159730.93868,54.29092,38.59520983695984
1618159730.95431,53.30759,38.61083984375
1618159730.96993,50.95529,38.62645983695984
1618159730.98556,47.52036,38.64208984375
1618159731.00118,43.50958,38.65770983695984
1618159731.01681,39.59523,38.67333984375
1618159731.03243,36.47115,38.68895983695984
1618159731.04806,34.52966,38.70458984375
1618159731.06369,33.76304,38.72021985054016
1618159731.07931,33.77538,38.73583984375
1618159731.09494,33.96857,38.75146985054016
1618159731.11056,33.80942,38.76708984375
1618159731.12619,33.10986,38.78271985054016
1618159731.14182,32.01766,38.79834985733032
1618159731.15744,30.89748,38.81396985054016
1618159731.17307,30.07436,38.82959985733032
1618159731.18869,29.492,38.84521985054016
1618159731.20432,28.68246,38.86084985733032
1618159731.21994,26.94069,38.87646985054016
1618159731.23557,23.65088,38.89209985733032
1618159731.2512,18.60943,38.90772986412048
1618159731.26682,12.17796,38.92334985733032
1618159731.28245,5.114197,38.93897986412048
1618159731.29807,-1.727379,38.95459985733032
1618159731.3137,-7.638321,38.97022986412048
1618159731.32932,-12.34579,38.98584985733032
1618159731.34495,-16.04013,39.00147986412048
1618159731.36058,-19.28756,39.017109870910645
1618159731.3762,-22.8182,39.03272986412048
1618159731.39183,-27.35349,39.048359870910645
1618159731.40745,-33.33094,39.06397986412048
1618159731.42308,-40.61196,39.079609870910645
1618159731.4387,-48.31115,39.09522986412048
1618159731.45433,-54.8236,39.110859870910645
1618159731.46996,-58.17582,39.126489877700806
1618159731.48558,-56.64303,39.142109870910645
1618159731.50121,-49.34595,39.157739877700806
1618159731.51683,-36.61452,39.173359870910645
1618159731.53246,-19.95955,39.188989877700806
1618159731.54808,-1.654865,39.204609870910645
1618159731.56371,15.90808,39.220239877700806
1618159731.57934,30.79089,39.23586988449097
1618159731.59496,41.8252,39.251489877700806
1618159731.61059,48.66755,39.26711988449097
1618159731.62621,51.64256,39.282739877700806
1618159731.64184,51.4498,39.29836988449097
1618159731.65746,48.93837,39.313989877700806
1618159731.67309,44.95904,39.32961988449097
1618159731.68872,40.26105,39.34524989128113
1618159731.70434,35.4438,39.36086988449097
1618159731.71997,30.94215,39.37649989128113
1618159731.73559,27.04083,39.39211988449097
1618159731.75122,23.93022,39.40774989128113
1618159731.76684,21.69159,39.42336988449097
1618159731.78247,20.3499,39.43899989128113
1618159731.7981,19.77597,39.45462989807129
1618159731.81372,19.76085,39.47024989128113
1618159731.82935,20.07021,39.48587989807129
1618159731.84497,20.48314,39.50149989128113
1618159731.8606,20.80968,39.51712989807129
1618159731.87622,20.86665,39.53274989128113
1618159731.89185,20.4362,39.54837989807129
1618159731.90748,19.22816,39.56400990486145
1618159731.9231,16.95359,39.57962989807129
1618159731.93873,13.40142,39.59525990486145
1618159731.95435,8.659294,39.61087989807129
1618159731.96998,3.109009,39.62650990486145
1618159731.9856,-2.620361,39.64212989807129
1618159732.00123,-7.938919,39.65775990486145
1618159732.01686,-12.49163,39.67338991165161
1618159732.03248,-16.35062,39.68900990486145
1618159732.04811,-19.99149,39.70463991165161
1618159732.06373,-24.11118,39.72025990486145
1618159732.07936,-29.30672,39.73588991165161
1618159732.09498,-35.73434,39.75150990486145
1618159732.11061,-42.82804,39.76713991165161
1618159732.12624,-49.24705,39.78276991844177
1618159732.14186,-53.19896,39.79838991165161
1618159732.15749,-52.91297,39.81401991844177
1618159732.17311,-47.29385,39.82963991165161
1618159732.18874,-36.34416,39.84526991844177
1618159732.20436,-21.25355,39.86088991165161
1618159732.21999,-4.11129,39.87651991844177
1618159732.23562,12.66418,39.892149925231934
1618159732.25124,27.0069,39.90776991844177
1618159732.26687,37.60043,39.923399925231934
1618159732.28249,44.06178,39.93901991844177
1618159732.29812,46.78873,39.954649925231934
1618159732.31374,46.60666,39.97026991844177
1618159732.32937,44.44855,39.985899925231934
1618159732.345,41.05785,40.001529932022095
1618159732.36062,36.95543,40.017149925231934
1618159732.37625,32.42457,40.032779932022095
1618159732.39187,27.67241,40.048399925231934
1618159732.4075,22.92848,40.064029932022095
1618159732.42312,18.54968,40.079649925231934
1618159732.43875,14.91768,40.095279932022095
1618159732.45438,12.33591,40.110909938812256
1618159732.47,10.93649,40.126529932022095
1618159732.48563,10.6292,40.142159938812256
1618159732.50125,11.11502,40.157779932022095
1618159732.51688,11.94821,40.173409938812256
1618159732.5325,12.67043,40.189029932022095
1618159732.54813,12.85866,40.204659938812256
1618159732.56376,12.19324,40.22028994560242
1618159732.57938,10.52618,40.235909938812256
1618159732.59501,7.839981,40.25153994560242
1618159732.61063,4.304611,40.267159938812256
1618159732.62626,0.2206879,40.28278994560242
1618159732.64188,-4.151154,40.298409938812256
1618159732.65751,-8.611847,40.31403994560242
1618159732.67314,-13.0817,40.32966995239258
1618159732.68876,-17.68527,40.34528994560242
1618159732.70439,-22.64525,40.36091995239258
1618159732.72001,-28.19774,40.37653994560242
1618159732.73564,-34.37976,40.39216995239258
1618159732.75126,-40.79024,40.40778994560242
1618159732.76689,-46.41501,40.42341995239258
1618159732.78252,-49.73579,40.43904995918274
1618159732.79814,-49.09789,40.45466995239258
1618159732.81377,-43.27144,40.47029995918274
1618159732.82939,-32.0106,40.48591995239258
1618159732.84502,-16.30077,40.50154995918274
1618159732.86064,1.813812,40.51716995239258
1618159732.87627,19.83347,40.53279995918274
1618159732.8919,35.49315,40.5484299659729
1618159732.90752,47.32283,40.56404995918274
1618159732.92315,54.86676,40.5796799659729
1618159732.93877,58.45064,40.59529995918274
1618159732.9544,58.82907,40.6109299659729
1618159732.97002,56.81615,40.62654995918274
1618159732.98565,53.12358,40.6421799659729
1618159733.00128,48.34402,40.65780997276306
1618159733.0169,43.02608,40.6734299659729
1618159733.03253,37.73048,40.68905997276306
1618159733.04815,33.00679,40.7046799659729
1618159733.06378,29.27292,40.72030997276306
1618159733.0794,26.7307,40.7359299659729
1618159733.09503,25.27234,40.75155997276306
1618159733.11066,24.52982,40.76718997955322
1618159733.12628,24.05316,40.78280997276306
1618159733.14191,23.41351,40.79843997955322
1618159733.15753,22.32558,40.81405997276306
1618159733.17316,20.67934,40.82968997955322
1618159733.18878,18.46353,40.84530997276306
1618159733.20441,15.71312,40.86093997955322
1618159733.22004,12.40092,40.876569986343384
1618159733.23566,8.501343,40.89218997955322
1618159733.25129,4.035736,40.907819986343384
1618159733.26691,-0.864502,40.92343997955322
1618159733.28254,-5.957672,40.939069986343384
1618159733.29817,-11.03471,40.954699993133545
1618159733.31379,-16.09326,40.970319986343384
1618159733.32942,-21.3943,40.985949993133545
1618159733.34504,-27.35997,41.001569986343384
1618159733.36067,-34.38432,41.017199993133545
1618159733.37629,-42.44775,41.032819986343384
1618159733.39192,-50.84044,41.048449993133545
1618159733.40755,-58.11093,41.064079999923706
1618159733.42317,-62.36252,41.079699993133545
1618159733.4388,-61.80905,41.095329999923706
1618159733.45442,-55.45061,41.110949993133545
1618159733.47005,-43.47481,41.126579999923706
1618159733.48567,-27.28764,41.142199993133545
1618159733.5013,-9.136658,41.157829999923706
1618159733.51693,8.546799,41.17346000671387
1618159733.53255,23.75385,41.189079999923706
1618159733.54818,35.29898,41.20471000671387
1618159733.5638,42.89996,41.220329999923706
1618159733.57943,46.91464,41.23596000671387
1618159733.59505,48.04204,41.251579999923706
1618159733.61068,46.99683,41.26721000671387
1618159733.62631,44.33476,41.28284001350403
1618159733.64193,40.43013,41.29846000671387
1618159733.65756,35.60521,41.31409001350403
1618159733.67318,30.19118,41.32971000671387
1618159733.68881,24.6225,41.34534001350403
1618159733.70443,19.42516,41.36096000671387
1618159733.72006,15.06749,41.37659001350403
1618159733.73569,11.89694,41.39222002029419
1618159733.75131,10.00783,41.40784001350403
1618159733.76694,9.283081,41.42347002029419
1618159733.78256,9.396957,41.43909001350403
1618159733.79819,9.964783,41.45472002029419
1618159733.81381,10.53452,41.47034001350403
1618159733.82944,10.69968,41.48597002029419
1618159733.84507,10.17947,41.50159978866577
1618159733.86069,8.852814,41.51722002029419
1618159733.87632,6.772522,41.53284978866577
1618159733.89194,4.130661,41.54847002029419
1618159733.90757,1.175995,41.56409978866577
1618159733.92319,-1.952316,41.57972002029419
1618159733.93882,-5.246185,41.59534978866577
1618159733.95445,-8.90155,41.61097979545593
1618159733.97007,-13.27689,41.62659978866577
1618159733.9857,-18.72632,41.64222979545593
1618159734.00132,-25.44331,41.65784978866577
1618159734.01695,-33.16429,41.67347979545593
1618159734.03257,-41.0786,41.68909978866577
1618159734.0482,-47.7271,41.70472979545593
1618159734.06383,-51.30382,41.720359802246094
1618159734.07945,-50.11722,41.73597979545593
1618159734.09508,-43.2198,41.751609802246094
1618159734.1107,-30.84015,41.76722979545593
1618159734.12633,-14.43744,41.782859802246094
1618159734.14195,3.639862,41.79847979545593
1618159734.15758,20.80382,41.814109802246094
1618159734.17321,34.89923,41.829739809036255
1618159734.18883,44.71519,41.845359802246094
1618159734.20446,50.05312,41.860989809036255
1618159734.22008,51.56718,41.876609802246094
1618159734.23571,50.34158,41.892239809036255
1618159734.25133,47.46591,41.907859802246094
1618159734.26696,43.80618,41.923489809036255
1618159734.28259,39.90228,41.939119815826416
1618159734.29821,36.03551,41.954739809036255
1618159734.31384,32.31644,41.970369815826416
1618159734.32946,28.83482,41.985989809036255
1618159734.34509,25.6519,42.001619815826416
1618159734.36071,22.86841,42.017239809036255
1618159734.37634,20.60272,42.032869815826416
1618159734.39197,18.95743,42.04849982261658
1618159734.40759,18.0,42.064119815826416
1618159734.42322,17.67114,42.07974982261658
1618159734.43884,17.73128,42.095369815826416
1618159734.45447,17.74245,42.11099982261658
1618159734.47009,17.20334,42.126619815826416
1618159734.48572,15.694,42.14224982261658
1618159734.50135,13.05876,42.15787982940674
1618159734.51697,9.488586,42.17349982261658
1618159734.5326,5.377701,42.18912982940674
1618159734.54822,1.161148,42.20474982261658
1618159734.56385,-2.874359,42.22037982940674
1618159734.57947,-6.648407,42.23599982261658
1618159734.5951,-10.26996,42.25162982940674
1618159734.61073,-14.0108,42.2672598361969
1618159734.62635,-18.19926,42.28287982940674
1618159734.64198,-23.03523,42.2985098361969
1618159734.6576,-28.44348,42.31412982940674
1618159734.67323,-33.83385,42.3297598361969
1618159734.68885,-38.13861,42.34537982940674
1618159734.70448,-39.96725,42.3610098361969
1618159734.72011,-38.11087,42.37663984298706
1618159734.73573,-32.03983,42.3922598361969
1618159734.75136,-22.20001,42.40788984298706
1618159734.76698,-10.06224,42.4235098361969
1618159734.78261,2.302811,42.43913984298706
1618159734.79823,12.80687,42.4547598361969
1618159734.81386,19.99138,42.47038984298706
1618159734.82949,23.42417,42.48601984977722
1618159734.84511,23.70543,42.50163984298706
1618159734.86074,22.02943,42.51726984977722
1618159734.87636,19.70622,42.53288984298706
1618159734.89199,17.73664,42.54851984977722
1618159734.90761,16.67071,42.56413984298706
1618159734.92324,16.81392,42.57976984977722
1618159734.93887,18.63741,42.59539985656738
1618159734.95449,23.02256,42.61101984977722
1618159734.97012,31.24469,42.62664985656738
1618159734.98574,44.5204,42.64226984977722
1618159735.00137,63.2744,42.65789985656738
1618159735.01699,86.75725,42.67351984977722
1618159735.03262,112.974,42.68914985656738
1618159735.04825,139.1371,42.704779863357544
1618159735.06387,162.3569,42.72039985656738
1618159735.0795,180.3274,42.736029863357544
1618159735.09512,191.7333,42.75164985656738
1618159735.11075,196.397,42.767279863357544
1618159735.12637,195.1792,42.78289985656738
1618159735.142,189.6102,42.798529863357544
1618159735.15763,181.5438,42.814159870147705
1618159735.17325,172.7635,42.829779863357544
1618159735.18888,164.653,42.845409870147705
1618159735.2045,158.0503,42.861029863357544
1618159735.22013,153.2321,42.876659870147705
1618159735.23575,149.9529,42.892279863357544
1618159735.25138,147.5745,42.907909870147705
1618159735.26701,144.9941,42.923539876937866
1618159735.28263,140.6234,42.939159870147705
1618159735.29826,132.765,42.954789876937866
1618159735.31388,120.2901,42.970409870147705
1618159735.32951,103.3973,42.986039876937866
1618159735.34513,83.96628,43.001659870147705
1618159735.36076,65.04141,43.017289876937866
1618159735.37639,49.54071,43.03291988372803
1618159735.39201,38.86821,43.048539876937866
1618159735.40764,32.02255,43.06416988372803
1618159735.42326,25.85922,43.079789876937866
1618159735.43889,16.36995,43.09541988372803
1618159735.45451,0.3535614,43.111039876937866
1618159735.47014,-23.31357,43.12666988372803
1618159735.48577,-53.42413,43.14229989051819
1618159735.50139,-87.15714,43.15791988372803
1618159735.51702,-121.307,43.17354989051819
1618159735.53264,-153.2851,43.18916988372803
1618159735.54827,-181.5433,43.20479989051819
1618159735.56389,-205.3644,43.22041988372803
1618159735.57952,-224.3761,43.23604989051819
1618159735.59515,-238.2141,43.25167989730835
1618159735.61077,-246.479,43.26729989051819
1618159735.6264,-248.9127,43.28292989730835
1618159735.64202,-245.7205,43.29854989051819
1618159735.65765,-237.8003,43.31417989730835
1618159735.67327,-226.7014,43.32979989051819
1618159735.6889,-214.2703,43.34542989730835
1618159735.70453,-202.1012,43.36105990409851
1618159735.72015,-191.1685,43.37667989730835
1618159735.73578,-181.7099,43.39230990409851
1618159735.7514,-173.3956,43.40792989730835
1618159735.76703,-165.6905,43.42355990409851
1618159735.78266,-158.1922,43.43918991088867
1618159735.79828,-150.8863,43.45480990409851
1618159735.81391,-144.1114,43.47043991088867
1618159735.82953,-138.3661,43.48605990409851
1618159735.84516,-134.0314,43.50168991088867
1618159735.86078,-131.2043,43.51730990409851
1618159735.87641,-129.7455,43.53293991088867
1618159735.89204,-129.3349,43.54856991767883
1618159735.90766,-129.6284,43.56418991088867
1618159735.92329,-130.119,43.57981991767883
1618159735.93891,-130.0431,43.59543991088867
1618159735.95454,-128.2646,43.61106991767883
1618159735.97016,-123.3661,43.62668991088867
1618159735.98579,-114.0779,43.64231991767883
1618159736.00142,-99.79639,43.657949924468994
1618159736.01704,-80.99356,43.67356991767883
1618159736.03267,-59.23563,43.689199924468994
1618159736.04829,-36.84961,43.70481991767883
1618159736.06392,-16.18155,43.720449924468994
1618159736.07954,0.9825745,43.73606991767883
1618159736.09517,13.82837,43.751699924468994
1618159736.1108,22.5051,43.767329931259155
1618159736.12642,27.79492,43.782949924468994
1618159736.14205,30.71854,43.798579931259155
1618159736.15767,32.12192,43.814199924468994
1618159736.1733,32.60052,43.829829931259155
1618159736.18892,32.43903,43.845449924468994
1618159736.20455,31.78146,43.861079931259155
1618159736.22018,30.74658,43.876709938049316
1618159736.2358,29.47665,43.892329931259155
1618159736.25143,28.1835,43.907959938049316
1618159736.26705,27.0239,43.923579931259155
1618159736.28268,26.09677,43.939209938049316
