timestamp,value,norm_ts
1619090085.32295,-33.62448,3.880459785461426
1619090085.33857,-26.52251,3.8960800170898438
1619090085.3542,-18.93585,3.911709785461426
1619090085.36983,-11.59695,3.927339792251587
1619090085.38545,-4.969681,3.942959785461426
1619090085.40108,0.7754364,3.958589792251587
1619090085.4167,5.64978,3.974209785461426
1619090085.43233,9.750931,3.989839792251587
1619090085.44795,13.16051,4.005459785461426
1619090085.46358,15.89851,4.021089792251587
1619090085.47921,17.9617,4.036719799041748
1619090085.49483,19.36829,4.052339792251587
1619090085.51046,20.20663,4.067969799041748
1619090085.52608,20.57462,4.083589792251587
1619090085.54171,20.57831,4.099219799041748
1619090085.55733,20.2532,4.114839792251587
1619090085.57296,19.62567,4.130469799041748
1619090085.58859,18.7327,4.146099805831909
1619090085.60421,17.68454,4.161719799041748
1619090085.61984,16.63905,4.177349805831909
1619090085.63546,15.69949,4.192969799041748
1619090085.65109,14.88148,4.208599805831909
1619090085.66671,14.0762,4.224219799041748
1619090085.68234,13.11903,4.239849805831909
1619090085.69797,11.87291,4.25547981262207
1619090085.71359,10.25343,4.271099805831909
1619090085.72922,8.249588,4.28672981262207
1619090085.74484,5.88324,4.302349805831909
1619090085.76047,3.230392,4.31797981262207
1619090085.77609,0.4174347,4.333599805831909
1619090085.79172,-2.39975,4.34922981262207
1619090085.80735,-5.061584,4.3648598194122314
1619090085.82297,-7.540482,4.38047981262207
1619090085.8386,-9.976181,4.3961098194122314
1619090085.85422,-12.67691,4.41172981262207
1619090085.86985,-15.99831,4.4273598194122314
1619090085.88547,-20.17365,4.44297981262207
1619090085.9011,-25.16614,4.4586098194122314
1619090085.91673,-30.56322,4.474239826202393
1619090085.93235,-35.64934,4.4898598194122314
1619090085.94798,-39.5031,4.505489826202393
1619090085.9636,-41.22484,4.5211098194122314
1619090085.97923,-40.15181,4.536739826202393
1619090085.99485,-36.06073,4.5523598194122314
1619090086.01048,-29.27606,4.567989826202393
1619090086.02611,-20.65094,4.583619832992554
1619090086.04173,-11.37907,4.599239826202393
1619090086.05736,-2.638977,4.614869832992554
1619090086.07298,4.738251,4.630489826202393
1619090086.08861,10.40598,4.646119832992554
1619090086.10423,14.53235,4.661739826202393
1619090086.11986,17.55267,4.677369832992554
1619090086.13549,19.89406,4.692999839782715
1619090086.15111,21.80118,4.708619832992554
1619090086.16674,23.27576,4.724249839782715
1619090086.18236,24.16695,4.739869832992554
1619090086.19799,24.35725,4.755499839782715
1619090086.21361,23.86328,4.771119832992554
1619090086.22924,22.85469,4.786749839782715
1619090086.24487,21.58412,4.802379846572876
1619090086.26049,20.26868,4.817999839782715
1619090086.27612,19.00714,4.833629846572876
1619090086.29174,17.81276,4.849249839782715
1619090086.30737,16.67921,4.864879846572876
1619090086.32299,15.62094,4.880499839782715
1619090086.33862,14.67561,4.896129846572876
1619090086.35425,13.78821,4.911759853363037
1619090086.36987,12.78178,4.927379846572876
1619090086.3855,11.38834,4.943009853363037
1619090086.40112,9.349594,4.958629846572876
1619090086.41675,6.573853,4.974259853363037
1619090086.43237,3.197205,4.989879846572876
1619090086.448,-0.4284058,5.005509853363037
1619090086.46363,-3.939209,5.021139860153198
1619090086.47925,-7.123383,5.036759853363037
1619090086.49488,-10.03944,5.052389860153198
1619090086.5105,-12.97174,5.068009853363037
1619090086.52613,-16.29514,5.083639860153198
1619090086.54175,-20.33835,5.099259853363037
1619090086.55738,-25.23434,5.114889860153198
1619090086.57301,-30.8541,5.130519866943359
1619090086.58863,-36.77475,5.146139860153198
1619090086.60426,-42.26761,5.161769866943359
1619090086.61988,-46.41319,5.177389860153198
1619090086.63551,-48.29344,5.193019866943359
1619090086.65113,-47.2563,5.208639860153198
1619090086.66676,-43.19167,5.224269866943359
1619090086.68239,-36.57219,5.2398998737335205
1619090086.69801,-28.31499,5.255519866943359
1619090086.71364,-19.48911,5.2711498737335205
1619090086.72926,-11.0098,5.286769866943359
1619090086.74489,-3.466187,5.3023998737335205
1619090086.76051,2.915222,5.318019866943359
1619090086.77614,8.142258,5.3336498737335205
1619090086.79177,12.38174,5.349279880523682
1619090086.80739,15.8537,5.3648998737335205
1619090086.82302,18.79028,5.380529880523682
1619090086.83864,21.37323,5.3961498737335205
1619090086.85427,23.69214,5.411779880523682
1619090086.86989,25.66071,5.4273998737335205
1619090086.88552,27.02132,5.443029880523682
1619090086.90115,27.4957,5.458659887313843
1619090086.91677,26.93355,5.474279880523682
1619090086.9324,25.45143,5.489909887313843
1619090086.94802,23.39101,5.505529880523682
1619090086.96365,21.21823,5.521159887313843
1619090086.97928,19.30579,5.536789894104004
1619090086.9949,17.83746,5.552409887313843
1619090087.01053,16.75848,5.568039894104004
1619090087.02615,15.82368,5.583659887313843
1619090087.04178,14.74741,5.599289894104004
1619090087.0574,13.27596,5.614909887313843
1619090087.07303,11.31099,5.630539894104004
1619090087.08866,8.864792,5.646169900894165
1619090087.10428,6.089417,5.661789894104004
1619090087.11991,3.166229,5.677419900894165
1619090087.13553,0.2141418,5.693039894104004
1619090087.15116,-2.759171,5.708669900894165
1619090087.16678,-5.91127,5.724289894104004
1619090087.18241,-9.491135,5.739919900894165
1619090087.19804,-13.77368,5.755549907684326
1619090087.21366,-18.89948,5.771169900894165
1619090087.22929,-24.73369,5.786799907684326
1619090087.24491,-30.81163,5.802419900894165
1619090087.26054,-36.38933,5.818049907684326
1619090087.27616,-40.58716,5.833669900894165
1619090087.29179,-42.62178,5.849299907684326
1619090087.30742,-42.01306,5.864929914474487
1619090087.32304,-38.69557,5.880549907684326
1619090087.33867,-33.0275,5.896179914474487
1619090087.35429,-25.66838,5.911799907684326
1619090087.36992,-17.44603,5.927429914474487
1619090087.38554,-9.1642,5.943049907684326
1619090087.40117,-1.477524,5.958679914474487
1619090087.4168,5.202744,5.974309921264648
1619090087.43242,10.79161,5.989929914474487
1619090087.44805,15.43318,6.005559921264648
1619090087.46367,19.39177,6.021179914474487
1619090087.4793,22.87457,6.036809921264648
1619090087.49492,25.91075,6.052429914474487
1619090087.51055,28.34827,6.068059921264648
1619090087.52618,29.98099,6.08368992805481
1619090087.5418,30.71266,6.099309921264648
1619090087.55743,30.64384,6.11493992805481
1619090087.57305,30.08322,6.130559921264648
1619090087.58868,29.36662,6.14618992805481
1619090087.6043,28.72946,6.161809921264648
1619090087.61993,28.23557,6.17743992805481
1619090087.63556,27.81207,6.193069934844971
1619090087.65118,27.34088,6.20868992805481
1619090087.66681,26.76257,6.224319934844971
1619090087.68243,26.08398,6.23993992805481
1619090087.69806,25.3008,6.255569934844971
1619090087.71368,24.37369,6.27118992805481
1619090087.72931,23.20987,6.286819934844971
1619090087.74494,21.6946,6.302449941635132
1619090087.76056,19.75732,6.318069934844971
1619090087.77619,17.38152,6.333699941635132
1619090087.79181,14.59988,6.349319934844971
1619090087.80744,11.51631,6.364949941635132
1619090087.82306,8.250977,6.380569934844971
1619090087.83869,4.940613,6.396199941635132
1619090087.85432,1.676575,6.411829948425293
1619090087.86994,-1.52121,6.427449941635132
1619090087.88557,-4.736847,6.443079948425293
1619090087.90119,-8.114227,6.458699941635132
1619090087.91682,-11.76035,6.474329948425293
1619090087.93244,-15.73755,6.489949941635132
1619090087.94807,-20.05518,6.505579948425293
1619090087.9637,-24.77824,6.521209955215454
1619090087.97932,-29.96809,6.536829948425293
1619090087.99495,-35.64867,6.552459955215454
1619090088.01057,-41.60388,6.568079948425293
1619090088.0262,-47.28787,6.583709955215454
1619090088.04182,-51.85588,6.599329948425293
1619090088.05745,-54.35994,6.614959955215454
1619090088.07308,-54.11096,6.630589962005615
1619090088.0887,-50.84142,6.646209955215454
1619090088.10433,-44.84207,6.661839962005615
1619090088.11995,-36.76852,6.677459955215454
1619090088.13558,-27.49866,6.693089962005615
1619090088.1512,-17.95618,6.708709955215454
1619090088.16683,-8.991714,6.724339962005615
1619090088.18246,-1.269852,6.739969968795776
1619090088.19808,4.83992,6.755589962005615
1619090088.21371,9.353058,6.771219968795776
1619090088.22933,12.67079,6.786839962005615
1619090088.24496,15.36717,6.802469968795776
1619090088.26058,17.90128,6.818089962005615
1619090088.27621,20.42311,6.833719968795776
1619090088.29184,22.72557,6.8493499755859375
1619090088.30746,24.47137,6.864969968795776
1619090088.32309,25.44165,6.8805999755859375
1619090088.33871,25.71399,6.896219968795776
1619090088.35434,25.58107,6.9118499755859375
1619090088.36996,25.39264,6.927469968795776
1619090088.38559,25.30949,6.9430999755859375
1619090088.40122,25.29291,6.958729982376099
1619090088.41684,25.19769,6.9743499755859375
1619090088.43247,24.91248,6.989979982376099
1619090088.44809,24.45924,7.0055999755859375
1619090088.46372,23.90619,7.021229982376099
1619090088.47934,23.26064,7.0368499755859375
1619090088.49497,22.40596,7.052479982376099
1619090088.5106,21.14986,7.06810998916626
1619090088.52622,19.33292,7.083729982376099
1619090088.54185,16.94759,7.09935998916626
1619090088.55747,14.1815,7.114979982376099
1619090088.5731,11.29193,7.13060998916626
1619090088.58872,8.501343,7.146229982376099
1619090088.60435,5.84935,7.16185998916626
1619090088.61998,3.230698,7.177489995956421
1619090088.6356,0.3988953,7.19310998916626
1619090088.65123,-2.892731,7.208739995956421
1619090088.66685,-6.852051,7.22435998916626
1619090088.68248,-11.58653,7.239989995956421
1619090088.6981,-17.06438,7.25560998916626
1619090088.71373,-23.0453,7.271239995956421
1619090088.72936,-29.02524,7.286870002746582
1619090088.74498,-34.24686,7.302489995956421
1619090088.76061,-37.83356,7.318120002746582
1619090088.77623,-39.02226,7.333739995956421
1619090088.79186,-37.39893,7.349370002746582
1619090088.80748,-33.09799,7.364989995956421
1619090088.82311,-26.79559,7.380620002746582
1619090088.83874,-19.45433,7.396250009536743
1619090088.85436,-12.07022,7.411870002746582
1619090088.86999,-5.342697,7.427500009536743
1619090088.88561,0.4245453,7.443120002746582
1619090088.90124,5.319443,7.458750009536743
1619090088.91686,9.591934,7.474370002746582
1619090088.93249,13.45947,7.490000009536743
1619090088.94812,16.98424,7.505630016326904
1619090088.96374,20.05588,7.521250009536743
1619090088.97937,22.48128,7.536880016326904
1619090088.99499,24.12793,7.552500009536743
1619090089.01062,24.99603,7.568130016326904
1619090089.02624,25.23236,7.583750009536743
1619090089.04187,25.0464,7.599380016326904
1619090089.0575,24.63541,7.615009784698486
1619090089.07312,24.09657,7.630630016326904
1619090089.08875,23.45027,7.646259784698486
1619090089.10437,22.67166,7.661880016326904
1619090089.12,21.81748,7.677509784698486
1619090089.13563,20.99904,7.6931397914886475
1619090089.15125,20.34141,7.708759784698486
1619090089.16688,19.89684,7.7243897914886475
1619090089.1825,19.53831,7.740009784698486
1619090089.19813,18.97268,7.7556397914886475
1619090089.21375,17.82329,7.771259784698486
1619090089.22938,15.85249,7.7868897914886475
1619090089.24501,13.05328,7.802519798278809
1619090089.26063,9.672844,7.8181397914886475
1619090089.27626,6.029114,7.833769798278809
1619090089.29188,2.391426,7.8493897914886475
1619090089.30751,-1.118797,7.865019798278809
1619090089.32313,-4.534264,7.8806397914886475
1619090089.33876,-7.91375,7.896269798278809
1619090089.35439,-11.29042,7.91189980506897
1619090089.37001,-14.71765,7.927519798278809
1619090089.38564,-18.38284,7.94314980506897
1619090089.40126,-22.57246,7.958769798278809
1619090089.41689,-27.53471,7.97439980506897
1619090089.43251,-33.24495,7.990019798278809
1619090089.44814,-39.13625,8.00564980506897
1619090089.46377,-44.17767,8.02127981185913
1619090089.47939,-47.15681,8.03689980506897
1619090089.49502,-47.139,8.05252981185913
1619090089.51064,-43.89811,8.06814980506897
1619090089.52627,-38.0074,8.08377981185913
1619090089.54189,-30.60834,8.09939980506897
1619090089.55752,-22.93797,8.11502981185913
1619090089.57315,-15.91891,8.130659818649292
1619090089.58877,-9.903687,8.14627981185913
1619090089.6044,-4.841606,8.161909818649292
1619090089.62002,-0.4618073,8.17752981185913
1619090089.63565,3.465942,8.193159818649292
1619090089.65127,6.983742,8.20877981185913
1619090089.6669,9.985649,8.224409818649292
1619090089.68253,12.33561,8.240039825439453
1619090089.69815,13.96021,8.255659818649292
1619090089.71378,14.87926,8.271289825439453
1619090089.7294,15.23067,8.286909818649292
1619090089.74503,15.12777,8.302539825439453
1619090089.76065,14.69303,8.318159818649292
1619090089.77628,14.00784,8.333789825439453
1619090089.79191,13.17143,8.349419832229614
1619090089.80753,12.32978,8.365039825439453
1619090089.82316,11.63736,8.380669832229614
1619090089.83878,11.1945,8.396289825439453
1619090089.85441,10.95634,8.411919832229614
1619090089.87003,10.78596,8.427539825439453
1619090089.88566,10.44302,8.443169832229614
1619090089.90129,9.692436,8.458799839019775
1619090089.91691,8.365692,8.474419832229614
1619090089.93254,6.388107,8.490049839019775
1619090089.94816,3.782333,8.505669832229614
1619090089.96379,0.7069778,8.521299839019775
1619090089.97941,-2.610046,8.536919832229614
1619090089.99504,-5.89846,8.552549839019775
1619090090.01067,-8.929161,8.568179845809937
1619090090.02629,-11.59689,8.583799839019775
1619090090.04192,-13.9228,8.599429845809937
1619090090.05754,-16.07257,8.615049839019775
1619090090.07317,-18.32095,8.630679845809937
1619090090.08879,-20.95228,8.646299839019775
1619090090.10442,-24.24148,8.661929845809937
1619090090.12005,-28.33698,8.677559852600098
1619090090.13567,-33.16808,8.693179845809937
1619090090.1513,-38.34953,8.708809852600098
1619090090.16692,-43.15957,8.724429845809937
1619090090.18255,-46.60047,8.740059852600098
1619090090.19817,-47.70326,8.755679845809937
1619090090.2138,-45.81496,8.771309852600098
1619090090.22943,-40.86149,8.786939859390259
1619090090.24505,-33.43672,8.802559852600098
1619090090.26068,-24.60551,8.818189859390259
1619090090.2763,-15.54143,8.833809852600098
1619090090.29193,-7.203972,8.849439859390259
1619090090.30755,-0.1273041,8.865059852600098
1619090090.32318,5.600098,8.880689859390259
1619090090.33881,10.20693,8.89631986618042
1619090090.35443,14.02518,8.911939859390259
1619090090.37006,17.34184,8.92756986618042
1619090090.38568,20.2636,8.943189859390259
1619090090.40131,22.73575,8.95881986618042
1619090090.41693,24.65035,8.974439859390259
1619090090.43256,25.96189,8.99006986618042
1619090090.44819,26.77286,9.005699872970581
1619090090.46381,27.30432,9.02131986618042
1619090090.47944,27.73601,9.036949872970581
1619090090.49506,28.09207,9.05256986618042
1619090090.51069,28.19491,9.068199872970581
1619090090.52631,27.80437,9.08381986618042
1619090090.54194,26.83411,9.099449872970581
1619090090.55757,25.49001,9.115079879760742
1619090090.57319,24.17583,9.130699872970581
1619090090.58882,23.30317,9.146329879760742
1619090090.60444,22.99935,9.161949872970581
1619090090.62007,22.99108,9.177579879760742
1619090090.63569,22.74401,9.193199872970581
1619090090.65132,21.70618,9.208829879760742
1619090090.66695,19.58392,9.224459886550903
1619090090.68257,16.4495,9.240079879760742
1619090090.6982,12.63094,9.255709886550903
1619090090.71382,8.527016,9.271329879760742
1619090090.72945,4.472374,9.286959886550903
1619090090.74507,0.673027,9.302579879760742
1619090090.7607,-2.786369,9.318209886550903
1619090090.77633,-5.908974,9.333839893341064
1619090090.79195,-8.873451,9.349459886550903
1619090090.80758,-12.04685,9.365089893341064
1619090090.8232,-15.9519,9.380709886550903
1619090090.83883,-21.03823,9.396339893341064
1619090090.85445,-27.42836,9.411959886550903
1619090090.87008,-34.67265,9.427589893341064
1619090090.88571,-41.77239,9.443219900131226
1619090090.90133,-47.42321,9.458839893341064
1619090090.91696,-50.40592,9.474469900131226
1619090090.93258,-50.0138,9.490089893341064
1619090090.94821,-46.25928,9.505719900131226
1619090090.96383,-39.84656,9.521339893341064
1619090090.97946,-31.89569,9.536969900131226
1619090090.99509,-23.62894,9.552599906921387
1619090091.01071,-16.00613,9.568219900131226
1619090091.02634,-9.561325,9.583849906921387
1619090091.04196,-4.385544,9.599469900131226
1619090091.05759,-0.2118454,9.615099906921387
1619090091.07321,3.363777,9.630719900131226
1619090091.08884,6.722427,9.646349906921387
1619090091.10447,10.08852,9.661979913711548
1619090091.12009,13.42023,9.677599906921387
1619090091.13572,16.43811,9.693229913711548
1619090091.15134,18.76602,9.708849906921387
1619090091.16697,20.146,9.724479913711548
1619090091.18259,20.55109,9.740099906921387
1619090091.19822,20.27905,9.755729913711548
1619090091.21385,19.83923,9.771359920501709
1619090091.22947,19.73417,9.786979913711548
1619090091.2451,20.25954,9.802609920501709
1619090091.26072,21.39831,9.818229913711548
1619090091.27635,22.81298,9.833859920501709
1619090091.29197,24.02868,9.849479913711548
1619090091.3076,24.5956,9.865109920501709
1619090091.32323,24.24409,9.88073992729187
1619090091.33885,22.98682,9.896359920501709
1619090091.35448,21.00252,9.91198992729187
1619090091.3701,18.58315,9.927609920501709
1619090091.38573,15.98909,9.94323992729187
1619090091.40136,13.40994,9.958869934082031
1619090091.41698,10.91605,9.97448992729187
1619090091.43261,8.514919,9.990119934082031
1619090091.44823,6.178883,10.00573992729187
1619090091.46386,3.909279,10.021369934082031
1619090091.47948,1.75827,10.03698992729187
1619090091.49511,-0.2766075,10.052619934082031
1619090091.51074,-2.262409,10.068249940872192
1619090091.52636,-4.38763,10.083869934082031
1619090091.54199,-6.913181,10.099499940872192
1619090091.55761,-10.08557,10.115119934082031
1619090091.57324,-13.99121,10.130749940872192
1619090091.58886,-18.50511,10.146369934082031
1619090091.60449,-23.29808,10.161999940872192
1619090091.62012,-27.8631,10.177629947662354
1619090091.63574,-31.63905,10.193249940872192
1619090091.65137,-34.10284,10.208879947662354
1619090091.66699,-34.76535,10.224499940872192
1619090091.68262,-33.25582,10.240129947662354
1619090091.69824,-29.42556,10.255749940872192
1619090091.71387,-23.48171,10.271379947662354
1619090091.7295,-16.03684,10.287009954452515
1619090091.74512,-8.040222,10.302629947662354
1619090091.76075,-0.5265999,10.318259954452515
1619090091.77637,5.690247,10.333879947662354
1619090091.792,10.27994,10.349509954452515
1619090091.80762,13.44958,10.365129947662354
1619090091.82325,15.76041,10.380759954452515
1619090091.83888,17.8709,10.396389961242676
1619090091.8545,20.25453,10.412009954452515
1619090091.87013,23.06786,10.427639961242676
1619090091.88575,26.15195,10.443259954452515
1619090091.90138,29.22718,10.458889961242676
1619090091.917,32.01157,10.474509954452515
1619090091.93263,34.31163,10.490139961242676
1619090091.94826,35.99055,10.505769968032837
1619090091.96388,36.99083,10.521389961242676
1619090091.97951,37.28025,10.537019968032837
1619090091.99513,36.88076,10.552639961242676
1619090092.01076,35.85646,10.568269968032837
1619090092.02638,34.29852,10.583889961242676
1619090092.04201,32.31012,10.599519968032837
1619090092.05764,30.01593,10.615149974822998
1619090092.07326,27.54012,10.630769968032837
1619090092.08889,25.07,10.646399974822998
1619090092.10451,22.79541,10.662019968032837
1619090092.12014,20.82049,10.677649974822998
1619090092.13576,19.10246,10.693269968032837
1619090092.15139,17.39093,10.708899974822998
1619090092.16702,15.28997,10.72452998161316
1619090092.18264,12.47575,10.740149974822998
1619090092.19827,8.84267,10.75577998161316
1619090092.21389,4.572001,10.771399974822998
1619090092.22952,0.05963135,10.78702998161316
1619090092.24514,-4.260759,10.802649974822998
1619090092.26077,-8.114954,10.81827998161316
1619090092.2764,-11.45717,10.83390998840332
1619090092.29202,-14.48025,10.84952998161316
1619090092.30765,-17.49466,10.86515998840332
1619090092.32327,-20.84998,10.88077998161316
1619090092.3389,-24.83247,10.89640998840332
1619090092.35452,-29.54136,10.91202998161316
1619090092.37015,-34.74821,10.92765998840332
1619090092.38578,-39.88396,10.943289995193481
1619090092.4014,-44.13068,10.95890998840332
1619090092.41703,-46.56934,10.974539995193481
1619090092.43265,-46.50162,10.99015998840332
1619090092.44828,-43.70446,11.005789995193481
1619090092.4639,-38.43699,11.02140998840332
1619090092.47953,-31.40098,11.037039995193481
1619090092.49516,-23.50836,11.052670001983643
1619090092.51078,-15.64219,11.068289995193481
1619090092.52641,-8.503531,11.083920001983643
1619090092.54203,-2.534012,11.099539995193481
1619090092.55766,2.151196,11.115170001983643
1619090092.57328,5.642897,11.130789995193481
1619090092.58891,8.19185,11.146420001983643
1619090092.60454,10.09239,11.162050008773804
1619090092.62016,11.52323,11.177670001983643
1619090092.63579,12.52508,11.193300008773804
1619090092.65141,13.04777,11.208920001983643
1619090092.66704,13.04509,11.224550008773804
1619090092.68266,12.55865,11.240170001983643
1619090092.69829,11.76448,11.255800008773804
1619090092.71392,10.86238,11.271430015563965
1619090092.72954,10.02641,11.287050008773804
1619090092.74517,9.351698,11.302680015563965
1619090092.76079,8.883183,11.318300008773804
1619090092.77642,8.637817,11.333930015563965
1619090092.79204,8.594372,11.349550008773804
1619090092.80767,8.671688,11.365180015563965
1619090092.8233,8.714502,11.380809783935547
1619090092.83892,8.527472,11.396430015563965
1619090092.85455,7.90403,11.412059783935547
1619090092.87017,6.744732,11.427680015563965
1619090092.8858,5.059643,11.443309783935547
1619090092.90142,2.917038,11.458930015563965
1619090092.91705,0.4093208,11.474559783935547
1619090092.93268,-2.397732,11.490189790725708
1619090092.9483,-5.472668,11.505809783935547
1619090092.96393,-8.764378,11.521439790725708
1619090092.97955,-12.21424,11.537059783935547
1619090092.99518,-15.80871,11.552689790725708
1619090093.0108,-19.57185,11.568309783935547
1619090093.02643,-23.60476,11.583939790725708
1619090093.04206,-27.97551,11.59956979751587
1619090093.05768,-32.57056,11.615189790725708
1619090093.07331,-36.99102,11.63081979751587
1619090093.08893,-40.5577,11.646439790725708
1619090093.10456,-42.47035,11.66206979751587
1619090093.12018,-42.04113,11.677689790725708
1619090093.13581,-38.98346,11.69331979751587
1619090093.15144,-33.53159,11.70894980430603
1619090093.16706,-26.42279,11.72456979751587
1619090093.18269,-18.73545,11.74019980430603
1619090093.19831,-11.52868,11.75581979751587
1619090093.21394,-5.560986,11.77144980430603
1619090093.22956,-1.083649,11.78706979751587
1619090093.24519,2.179569,11.80269980430603
1619090093.26082,4.78437,11.818329811096191
1619090093.27644,7.241573,11.83394980430603
1619090093.29207,9.757561,11.849579811096191
1619090093.30769,12.1447,11.86519980430603
1619090093.32332,13.98709,11.880829811096191
1619090093.33894,14.88383,11.89644980430603
1619090093.35457,14.71285,11.912079811096191
1619090093.3702,13.66237,11.927709817886353
1619090093.38582,12.14585,11.943329811096191
1619090093.40145,10.6069,11.958959817886353
1619090093.41707,9.303894,11.974579811096191
1619090093.4327,8.239548,11.990209817886353
1619090093.44832,7.202126,12.005829811096191
1619090093.46395,5.956573,12.021459817886353
1619090093.47958,4.381947,12.037089824676514
1619090093.4952,2.536171,12.052709817886353
1619090093.51083,0.5806122,12.068339824676514
1619090093.52645,-1.307449,12.083959817886353
1619090093.54208,-3.035744,12.099589824676514
1619090093.5577,-4.645309,12.115209817886353
1619090093.57333,-6.237831,12.130839824676514
1619090093.58896,-7.910854,12.146469831466675
1619090093.60458,-9.733723,12.162089824676514
1619090093.62021,-11.75928,12.177719831466675
1619090093.63583,-14.07389,12.193339824676514
1619090093.65146,-16.79924,12.208969831466675
1619090093.66708,-19.96769,12.224589824676514
1619090093.68271,-23.42177,12.240219831466675
1619090093.69834,-26.66282,12.255849838256836
1619090093.71396,-28.93661,12.271469831466675
1619090093.72959,-29.4632,12.287099838256836
1619090093.74521,-27.71017,12.302719831466675
1619090093.76084,-23.6424,12.318349838256836
1619090093.77646,-17.71585,12.333969831466675
1619090093.79209,-10.69715,12.349599838256836
1619090093.80772,-3.39439,12.365229845046997
1619090093.82334,3.584267,12.380849838256836
1619090093.83897,9.861652,12.396479845046997
1619090093.85459,15.33223,12.412099838256836
1619090093.87022,20.00782,12.427729845046997
1619090093.88584,23.93056,12.443349838256836
1619090093.90147,27.10083,12.458979845046997
1619090093.9171,29.47815,12.474609851837158
1619090093.93272,31.01616,12.490229845046997
1619090093.94835,31.66415,12.505859851837158
1619090093.96397,31.43089,12.521479845046997
1619090093.9796,30.38858,12.537109851837158
1619090093.99523,28.76264,12.55273985862732
1619090094.01085,26.86332,12.568359851837158
1619090094.02648,25.06443,12.58398985862732
1619090094.0421,23.65616,12.599609851837158
1619090094.05773,22.76982,12.61523985862732
1619090094.07335,22.29892,12.630859851837158
1619090094.08898,21.94697,12.64648985862732
1619090094.10461,21.37139,12.66211986541748
1619090094.12023,20.30046,12.67773985862732
1619090094.13586,18.65477,12.69336986541748
1619090094.15148,16.52605,12.70898985862732
1619090094.16711,14.14346,12.72461986541748
1619090094.18273,11.70449,12.74023985862732
1619090094.19836,9.315742,12.75586986541748
1619090094.21399,6.929771,12.771499872207642
1619090094.22961,4.42168,12.78711986541748
1619090094.24524,1.715622,12.802749872207642
1619090094.26086,-1.19545,12.81836986541748
1619090094.27649,-4.18322,12.833999872207642
1619090094.29211,-7.102501,12.84961986541748
1619090094.30774,-9.86871,12.865249872207642
1619090094.32337,-12.51937,12.880879878997803
1619090094.33899,-15.21971,12.896499872207642
1619090094.35462,-18.16858,12.912129878997803
1619090094.37024,-21.54582,12.927749872207642
1619090094.38587,-25.44262,12.943379878997803
1619090094.40149,-29.85646,12.958999872207642
1619090094.41712,-34.69128,12.974629878997803
1619090094.43275,-39.74265,12.990259885787964
1619090094.44837,-44.62796,13.005879878997803
1619090094.464,-48.74769,13.021509885787964
1619090094.47962,-51.34354,13.037129878997803
1619090094.49525,-51.64849,13.052759885787964
1619090094.51087,-49.14473,13.068379878997803
1619090094.5265,-43.8201,13.084009885787964
1619090094.54213,-36.25177,13.099639892578125
1619090094.55775,-27.45892,13.115259885787964
1619090094.57338,-18.62805,13.130889892578125
1619090094.589,-10.71709,13.146509885787964
1619090094.60463,-4.215702,13.162139892578125
1619090094.62025,0.9365425,13.177759885787964
1619090094.63588,5.135662,13.193389892578125
1619090094.65151,8.835075,13.209019899368286
1619090094.66713,12.25924,13.224639892578125
1619090094.68276,15.32685,13.240269899368286
1619090094.69838,17.7835,13.255889892578125
1619090094.71401,19.41079,13.271519899368286
1619090094.72963,20.23986,13.287139892578125
1619090094.74526,20.57099,13.302769899368286
1619090094.76089,20.76517,13.318399906158447
1619090094.77651,21.06787,13.334019899368286
1619090094.79214,21.46353,13.349649906158447
1619090094.80776,21.75125,13.365269899368286
1619090094.82339,21.70514,13.380899906158447
1619090094.83901,21.28181,13.396519899368286
1619090094.85464,20.68132,13.412149906158447
1619090094.87027,20.20457,13.427779912948608
1619090094.88589,20.03596,13.443399906158447
1619090094.90152,20.15984,13.459029912948608
1619090094.91714,20.30293,13.474649906158447
1619090094.93277,20.11295,13.490279912948608
1619090094.94839,19.30096,13.505899906158447
1619090094.96402,17.73815,13.521529912948608
1619090094.97965,15.44579,13.53715991973877
1619090094.99527,12.52307,13.552779912948608
1619090095.0109,9.136669,13.56840991973877
1619090095.02652,5.507557,13.584029912948608
1619090095.04215,1.880745,13.59965991973877
1619090095.05777,-1.536356,13.615279912948608
1619090095.0734,-4.664255,13.63090991973877
1619090095.08903,-7.609901,13.64653992652893
1619090095.10465,-10.68973,13.66215991973877
1619090095.12028,-14.27106,13.67778992652893
1619090095.1359,-18.61683,13.69340991973877
1619090095.15153,-23.68789,13.70903992652893
1619090095.16715,-29.1166,13.72465991973877
1619090095.18278,-34.2295,13.74028992652893
1619090095.19841,-38.24836,13.755919933319092
1619090095.21403,-40.50473,13.77153992652893
1619090095.22966,-40.57032,13.787169933319092
1619090095.24528,-38.34128,13.80278992652893
1619090095.26091,-34.0134,13.818419933319092
1619090095.27653,-28.01092,13.83403992652893
1619090095.29216,-20.87852,13.849669933319092
1619090095.30779,-13.20982,13.865299940109253
1619090095.32341,-5.608542,13.880919933319092
1619090095.33904,1.378815,13.896549940109253
1619090095.35466,7.329262,13.912169933319092
1619090095.37029,12.03194,13.927799940109253
1619090095.38591,15.48061,13.943419933319092
1619090095.40154,17.90531,13.959049940109253
1619090095.41717,19.62973,13.974679946899414
1619090095.43279,20.93747,13.990299940109253
1619090095.44842,21.97506,14.005929946899414
1619090095.46404,22.77568,14.021549940109253
1619090095.47967,23.34996,14.037179946899414
1619090095.49529,23.7389,14.052799940109253
1619090095.51092,24.04863,14.068429946899414
1619090095.52655,24.39518,14.084059953689575
1619090095.54217,24.80544,14.099679946899414
1619090095.5578,25.18056,14.115309953689575
1619090095.57342,25.40042,14.130929946899414
1619090095.58905,25.40871,14.146559953689575
1619090095.60467,25.22361,14.162179946899414
1619090095.6203,24.91952,14.177809953689575
1619090095.63593,24.5238,14.193439960479736
1619090095.65155,23.97762,14.209059953689575
1619090095.66718,23.15279,14.224689960479736
1619090095.6828,21.93859,14.240309953689575
1619090095.69843,20.33499,14.255939960479736
1619090095.71405,18.43827,14.271559953689575
1619090095.72968,16.36132,14.287189960479736
1619090095.74531,14.13542,14.302819967269897
1619090095.76093,11.65551,14.318439960479736
1619090095.77656,8.79245,14.334069967269897
1619090095.79218,5.456059,14.349689960479736
1619090095.80781,1.762919,14.365319967269897
1619090095.82343,-2.061235,14.380939960479736
1619090095.83906,-5.76264,14.396569967269897
1619090095.85469,-9.189007,14.412199974060059
1619090095.87031,-12.39244,14.427819967269897
1619090095.88594,-15.60908,14.443449974060059
1619090095.90156,-19.15864,14.459069967269897
1619090095.91719,-23.29581,14.474699974060059
1619090095.93281,-28.08966,14.490319967269897
1619090095.94844,-33.2903,14.505949974060059
1619090095.96407,-38.36012,14.52157998085022
1619090095.97969,-42.50956,14.537199974060059
1619090095.99532,-44.93377,14.55282998085022
1619090096.01094,-45.03135,14.568449974060059
1619090096.02657,-42.55236,14.58407998085022
1619090096.04219,-37.70028,14.599699974060059
1619090096.05782,-31.07942,14.61532998085022
1619090096.07345,-23.53013,14.63095998764038
1619090096.08907,-15.89071,14.64657998085022
1619090096.1047,-8.81785,14.66220998764038
1619090096.12032,-2.688097,14.67782998085022
1619090096.13595,2.420929,14.69345998764038
1619090096.15157,6.665648,14.70907998085022
1619090096.1672,10.3033,14.72470998764038
1619090096.18283,13.56407,14.740339994430542
1619090096.19845,16.56408,14.75595998764038
1619090096.21408,19.27367,14.771589994430542
1619090096.2297,21.57913,14.78720998764038
1619090096.24533,23.40849,14.802839994430542
1619090096.26096,24.7554,14.818470001220703
1619090096.27658,25.73773,14.834089994430542
1619090096.29221,26.50171,14.849720001220703
1619090096.30783,27.16303,14.865339994430542
1619090096.32346,27.74765,14.880970001220703
1619090096.33908,28.1983,14.896589994430542
1619090096.35471,28.44853,14.912220001220703
1619090096.37034,28.49112,14.927850008010864
1619090096.38596,28.36978,14.943470001220703
1619090096.40159,28.15764,14.959100008010864
1619090096.41721,27.83953,14.974720001220703
1619090096.43284,27.28354,14.990350008010864
1619090096.44846,26.31139,15.005970001220703
1619090096.46409,24.80387,15.021600008010864
1619090096.47972,22.80113,15.037230014801025
1619090096.49534,20.53362,15.052850008010864
1619090096.51097,18.29149,15.068480014801025
1619090096.52659,16.28283,15.084100008010864
1619090096.54222,14.46632,15.099730014801025
1619090096.55784,12.59964,15.115350008010864
1619090096.57347,10.32311,15.130980014801025
1619090096.5891,7.367523,15.146609783172607
1619090096.60472,3.722824,15.162230014801025
1619090096.62035,-0.3222046,15.177859783172607
1619090096.63597,-4.343575,15.193480014801025
1619090096.6516,-7.93618,15.209109783172607
1619090096.66722,-10.93895,15.224730014801025
1619090096.68285,-13.44951,15.240359783172607
1619090096.69848,-15.72503,15.255989789962769
1619090096.7141,-18.08097,15.271609783172607
1619090096.72973,-20.77681,15.287239789962769
1619090096.74535,-23.96705,15.302859783172607
1619090096.76098,-27.7331,15.318489789962769
1619090096.7766,-32.07355,15.334109783172607
1619090096.79223,-36.80063,15.349739789962769
1619090096.80786,-41.44406,15.36536979675293
1619090096.82348,-45.22538,15.380989789962769
1619090096.83911,-47.20789,15.39661979675293
1619090096.85473,-46.59106,15.412239789962769
1619090096.87036,-43.05798,15.42786979675293
1619090096.88598,-36.96315,15.443489789962769
1619090096.90161,-29.22553,15.45911979675293
1619090096.91724,-21.03045,15.47474980354309
1619090096.93286,-13.39144,15.49036979675293
1619090096.94849,-6.886898,15.50599980354309
1619090096.96411,-1.566376,15.52161979675293
1619090096.97974,2.842236,15.53724980354309
1619090096.99536,6.670547,15.55286979675293
1619090097.01099,10.0889,15.56849980354309
1619090097.02662,13.03459,15.584129810333252
1619090097.04224,15.26546,15.59974980354309
1619090097.05787,16.56081,15.615379810333252
1619090097.07349,16.91088,15.63099980354309
1619090097.08912,16.55852,15.646629810333252
1619090097.10474,15.93235,15.66224980354309
1619090097.12037,15.46571,15.677879810333252
1619090097.136,15.41582,15.693509817123413
1619090097.15162,15.79831,15.709129810333252
1619090097.16725,16.38148,15.724759817123413
1619090097.18287,16.83772,15.740379810333252
1619090097.1985,16.93469,15.756009817123413
1619090097.21412,16.61404,15.771629810333252
1619090097.22975,15.97231,15.787259817123413
1619090097.24538,15.22069,15.802889823913574
1619090097.261,14.52968,15.818509817123413
1619090097.27663,13.98753,15.834139823913574
1619090097.29225,13.54616,15.849759817123413
1619090097.30788,13.08466,15.865389823913574
1619090097.3235,12.4114,15.881009817123413
1619090097.33913,11.34947,15.896639823913574
1619090097.35476,9.786858,15.912269830703735
1619090097.37038,7.683578,15.927889823913574
1619090097.38601,5.092865,15.943519830703735
1619090097.40163,2.136803,15.959139823913574
1619090097.41726,-1.042862,15.974769830703735
1619090097.43288,-4.331108,15.990389823913574
1619090097.44851,-7.661209,16.006019830703735
1619090097.46414,-11.00687,16.021649837493896
1619090097.47976,-14.35567,16.037269830703735
1619090097.49539,-17.7421,16.052899837493896
1619090097.51101,-21.26064,16.068519830703735
1619090097.52664,-25.07468,16.084149837493896
1619090097.54226,-29.30997,16.099769830703735
1619090097.55789,-33.94869,16.115399837493896
1619090097.57352,-38.64637,16.131029844284058
1619090097.58914,-42.6985,16.146649837493896
1619090097.60477,-45.18109,16.162279844284058
1619090097.62039,-45.26393,16.177899837493896
1619090097.63602,-42.5323,16.193529844284058
1619090097.65164,-37.18874,16.209149837493896
1619090097.66727,-29.9875,16.224779844284058
1619090097.6829,-21.96841,16.24040985107422
1619090097.69852,-14.10596,16.256029844284058
1619090097.71415,-7.05114,16.27165985107422
1619090097.72977,-1.065323,16.287279844284058
1619090097.7454,3.883202,16.30290985107422
1619090097.76102,7.935143,16.318529844284058
1619090097.77665,11.25764,16.33415985107422
1619090097.79228,13.96283,16.34978985786438
1619090097.8079,16.1464,16.36540985107422
1619090097.82353,17.86661,16.38103985786438
1619090097.83915,19.14295,16.39665985107422
1619090097.85478,19.98859,16.41228985786438
1619090097.8704,20.40937,16.42790985107422
1619090097.88603,20.46576,16.44353985786438
1619090097.90166,20.27325,16.45916986465454
1619090097.91728,19.96617,16.47478985786438
1619090097.93291,19.64714,16.49041986465454
1619090097.94853,19.39168,16.50603985786438
1619090097.96416,19.21387,16.52166986465454
1619090097.97978,19.08802,16.53728985786438
1619090097.99541,18.98603,16.55291986465454
1619090098.01104,18.8857,16.568549871444702
1619090098.02666,18.75237,16.58416986465454
1619090098.04229,18.54018,16.599799871444702
1619090098.05791,18.19153,16.61541986465454
1619090098.07354,17.61481,16.631049871444702
1619090098.08916,16.69685,16.64666986465454
1619090098.10479,15.33591,16.662299871444702
1619090098.12042,13.44334,16.677929878234863
1619090098.13604,10.93037,16.693549871444702
1619090098.15167,7.768715,16.709179878234863
1619090098.16729,4.021866,16.724799871444702
1619090098.18292,-0.1120682,16.740429878234863
1619090098.19854,-4.305069,16.756049871444702
1619090098.21417,-8.202942,16.771679878234863
1619090098.2298,-11.57953,16.787309885025024
1619090098.24542,-14.4236,16.802929878234863
1619090098.26105,-16.96352,16.818559885025024
1619090098.27667,-19.59122,16.834179878234863
1619090098.2923,-22.71418,16.849809885025024
1619090098.30792,-26.58589,16.865429878234863
1619090098.32355,-31.19434,16.881059885025024
1619090098.33918,-36.256,16.896689891815186
1619090098.3548,-41.22704,16.912309885025024
1619090098.37043,-45.42113,16.927939891815186
1619090098.38605,-48.12327,16.943559885025024
1619090098.40168,-48.69611,16.959189891815186
1619090098.4173,-46.73054,16.974809885025024
1619090098.43293,-42.20046,16.990439891815186
1619090098.44856,-35.51848,17.006069898605347
1619090098.46418,-27.47118,17.021689891815186
1619090098.47981,-19.00429,17.037319898605347
1619090098.49543,-10.96856,17.052939891815186
1619090098.51106,-3.884651,17.068569898605347
1619090098.52669,2.061424,17.084199905395508
1619090098.54231,6.969185,17.099819898605347
1619090098.55794,11.04246,17.115449905395508
1619090098.57356,14.47451,17.131069898605347
1619090098.58919,17.37127,17.146699905395508
1619090098.60481,19.80669,17.162319898605347
1619090098.62044,21.82397,17.177949905395508
1619090098.63607,23.44562,17.19357991218567
1619090098.65169,24.68127,17.209199905395508
1619090098.66732,25.47739,17.22482991218567
1619090098.68294,25.76274,17.240449905395508
1619090098.69857,25.48914,17.25607991218567
1619090098.71419,24.7524,17.271699905395508
1619090098.72982,23.79173,17.28732991218567
1619090098.74545,22.96625,17.30295991897583
1619090098.76107,22.61536,17.31857991218567
1619090098.7767,22.89628,17.33420991897583
1619090098.79232,23.68727,17.34982991218567
1619090098.80795,24.58868,17.36545991897583
1619090098.82357,25.07571,17.38107991218567
1619090098.8392,24.68964,17.39670991897583
1619090098.85483,23.1806,17.41233992576599
1619090098.87045,20.5519,17.42795991897583
1619090098.88608,16.95235,17.44358992576599
1619090098.9017,12.54598,17.45920991897583
1619090098.91733,7.473846,17.47483992576599
1619090098.93295,1.906429,17.49045991897583
1619090098.94858,-3.90453,17.50608992576599
1619090098.96421,-9.558998,17.521719932556152
1619090098.97983,-14.58089,17.53733992576599
1619090098.99546,-18.61445,17.552969932556152
1619090099.01108,-21.56591,17.56858992576599
1619090099.02671,-23.67225,17.584219932556152
1619090099.04233,-25.34511,17.59983992576599
1619090099.05796,-27.01603,17.615469932556152
1619090099.07359,-28.94047,17.631099939346313
1619090099.08921,-31.18907,17.646719932556152
1619090099.10484,-33.76574,17.662349939346313
1619090099.12046,-36.62294,17.677969932556152
1619090099.13609,-39.7657,17.693599939346313
1619090099.15171,-43.17593,17.709219932556152
1619090099.16734,-46.73811,17.724849939346313
1619090099.18297,-50.23439,17.740479946136475
1619090099.19859,-53.3666,17.756099939346313
1619090099.21422,-55.73365,17.771729946136475
1619090099.22984,-56.93523,17.787349939346313
1619090099.24547,-56.59786,17.802979946136475
1619090099.26109,-54.18769,17.818599939346313
1619090099.27672,-49.19481,17.834229946136475
1619090099.29235,-41.27324,17.849859952926636
1619090099.30797,-30.66744,17.865479946136475
1619090099.3236,-18.53125,17.881109952926636
1619090099.33922,-6.773483,17.896729946136475
1619090099.35485,2.75388,17.912359952926636
1619090099.37047,9.13168,17.927979946136475
1619090099.3861,13.06798,17.943609952926636
1619090099.40173,16.9345,17.959239959716797
1619090099.41735,23.56377,17.974859952926636
1619090099.43298,34.92917,17.990489959716797
1619090099.4486,51.03041,18.006109952926636
1619090099.46423,69.81865,18.021739959716797
1619090099.47985,88.11728,18.037359952926636
1619090099.49548,103.2054,18.052989959716797
1619090099.51111,113.6151,18.068619966506958
1619090099.52673,118.0351,18.084239959716797
1619090099.54236,115.8514,18.099869966506958
1619090099.55798,106.8064,18.115489959716797
1619090099.57361,92.06946,18.131119966506958
1619090099.58923,74.88745,18.146739959716797
1619090099.60486,60.08031,18.162369966506958
1619090099.62049,52.18901,18.17799997329712
1619090099.63611,53.41943,18.193619966506958
1619090099.65174,62.12911,18.20924997329712
1619090099.66736,73.33473,18.224869966506958
1619090099.68299,81.064,18.24049997329712
1619090099.69861,80.59909,18.256119966506958
1619090099.71424,70.88905,18.27174997329712
1619090099.72987,54.6084,18.28737998008728
1619090099.74549,36.50695,18.30299997329712
1619090099.76112,19.75982,18.31862998008728
1619090099.77674,5.571709,18.33424997329712
1619090099.79237,-6.879944,18.34987998008728
1619090099.80799,-19.72116,18.36549997329712
1619090099.82362,-35.07823,18.38112998008728
1619090099.83925,-54.61994,18.39675998687744
1619090099.85487,-77.95262,18.41237998008728
1619090099.8705,-102.4271,18.42800998687744
1619090099.88612,-123.7781,18.44362998008728
1619090099.90175,-137.5096,18.45925998687744
1619090099.91737,-140.2361,18.47487998008728
1619090099.933,-131.2258,18.49050998687744
1619090099.94863,-112.9426,18.506139993667603
1619090099.96425,-87.79624,18.52175998687744
1619090099.97988,-61.44578,18.537389993667603
1619090099.9955,-39.50504,18.55300998687744
1619090100.01113,-25.71847,18.568639993667603
1619090100.02675,-21.32599,18.58425998687744
1619090100.04238,-25.49888,18.599889993667603
1619090100.05801,-35.99581,18.615520000457764
1619090100.07363,-50.02295,18.631139993667603
1619090100.08926,-64.44805,18.646770000457764
1619090100.10488,-73.92615,18.662389993667603
1619090100.12051,-74.038,18.678020000457764
1619090100.13613,-62.29213,18.693639993667603
1619090100.15176,-39.86087,18.709270000457764
1619090100.16739,-11.73419,18.724900007247925
1619090100.18301,14.98588,18.740520000457764
1619090100.19864,34.00957,18.756150007247925
1619090100.21426,41.89211,18.771770000457764
1619090100.22989,38.95158,18.787400007247925
1619090100.24551,28.54577,18.803020000457764
1619090100.26114,14.76098,18.818650007247925
1619090100.27677,1.000126,18.834280014038086
1619090100.29239,-10.67662,18.849900007247925
1619090100.30802,-19.49879,18.865530014038086
1619090100.32364,-25.55634,18.881150007247925
1619090100.33927,-29.14495,18.896780014038086
1619090100.35489,-30.53372,18.912400007247925
1619090100.37052,-29.84261,18.928030014038086
1619090100.38615,-27.18591,18.943659782409668
1619090100.40177,-23.27795,18.959280014038086
1619090100.4174,-18.87713,18.974909782409668
1619090100.43302,-14.58076,18.990530014038086
1619090100.44865,-10.27661,19.006159782409668
1619090100.46427,-5.812816,19.021780014038086
1619090100.4799,-0.9535012,19.037409782409668
1619090100.49553,4.378034,19.05303978919983
1619090100.51115,9.961853,19.068659782409668
1619090100.52678,15.1945,19.08428978919983
1619090100.5424,18.9909,19.099909782409668
1619090100.55803,20.48975,19.11553978919983
1619090100.57365,19.39911,19.131159782409668
1619090100.58928,16.15391,19.14678978919983
1619090100.60491,11.63162,19.16241979598999
1619090100.62053,6.803616,19.17803978919983
1619090100.63616,2.316427,19.19366979598999
1619090100.65178,-1.678654,19.20928978919983
1619090100.66741,-5.386875,19.22491979598999
1619090100.68303,-9.165161,19.24053978919983
1619090100.69866,-13.12506,19.25616979598999
1619090100.71429,-17.01411,19.27179980278015
1619090100.72991,-20.36147,19.28741979598999
1619090100.74554,-22.76688,19.30304980278015
1619090100.76116,-24.05366,19.31866979598999
1619090100.77679,-24.39118,19.33429980278015
1619090100.79241,-24.23248,19.34991979598999
1619090100.80804,-24.17947,19.36554980278015
1619090100.82367,-24.82615,19.381179809570312
1619090100.83929,-26.51693,19.39679980278015
1619090100.85492,-29.16406,19.412429809570312
1619090100.87054,-32.14317,19.42804980278015
1619090100.88617,-34.45535,19.443679809570312
1619090100.90179,-34.98335,19.45929980278015
1619090100.91742,-32.89341,19.474929809570312
1619090100.93305,-27.97649,19.490559816360474
1619090100.94867,-20.71111,19.506179809570312
1619090100.9643,-12.05454,19.521809816360474
1619090100.97992,-3.075371,19.537429809570312
1619090100.99555,5.33033,19.553059816360474
1619090101.01117,12.6174,19.568679809570312
1619090101.0268,18.56076,19.584309816360474
1619090101.04243,23.16191,19.599939823150635
1619090101.05805,26.57506,19.615559816360474
1619090101.07368,29.00002,19.631189823150635
1619090101.0893,30.71024,19.646809816360474
1619090101.10493,32.00659,19.662439823150635
1619090101.12056,33.1613,19.678069829940796
1619090101.13618,34.30743,19.693689823150635
1619090101.15181,35.39902,19.709319829940796
1619090101.16743,36.1998,19.724939823150635
1619090101.18306,36.43272,19.740569829940796
1619090101.19868,35.93715,19.756189823150635
1619090101.21431,34.81435,19.771819829940796
1619090101.22994,33.37244,19.787449836730957
1619090101.24556,32.05904,19.803069829940796
1619090101.26119,31.27705,19.818699836730957
1619090101.27681,31.21095,19.834319829940796
1619090101.29244,31.75629,19.849949836730957
1619090101.30806,32.51271,19.865569829940796
1619090101.32369,32.92761,19.881199836730957
1619090101.33932,32.44757,19.896829843521118
1619090101.35494,30.70277,19.912449836730957
1619090101.37057,27.58047,19.928079843521118
1619090101.38619,23.24963,19.943699836730957
1619090101.40182,18.07622,19.959329843521118
1619090101.41744,12.52554,19.974949836730957
1619090101.43307,7.067764,19.990579843521118
1619090101.4487,2.080704,20.00620985031128
1619090101.46432,-2.256058,20.021829843521118
1619090101.47995,-5.97052,20.03745985031128
1619090101.49557,-9.314804,20.053079843521118
1619090101.5112,-12.68594,20.06870985031128
1619090101.52682,-16.4659,20.084329843521118
1619090101.54245,-20.80733,20.09995985031128
1619090101.55808,-25.44203,20.11558985710144
1619090101.5737,-29.64375,20.13120985031128
1619090101.58933,-32.43976,20.14683985710144
1619090101.60495,-32.94502,20.16245985031128
1619090101.62058,-30.72852,20.17808985710144
1619090101.6362,-25.96362,20.19370985031128
1619090101.65183,-19.32492,20.20933985710144
1619090101.66746,-11.71939,20.2249698638916
1619090101.68308,-3.963562,20.24058985710144
1619090101.69871,3.361206,20.2562198638916
1619090101.71433,9.935547,20.27183985710144
1619090101.72996,15.58066,20.2874698638916
1619090101.74558,20.1575,20.30308985710144
1619090101.76121,23.5553,20.3187198638916
1619090101.77684,25.71515,20.334349870681763
1619090101.79246,26.71344,20.3499698638916
1619090101.80809,26.77319,20.365599870681763
1619090101.82371,26.23184,20.3812198638916
1619090101.83934,25.40872,20.396849870681763
1619090101.85496,24.53665,20.4124698638916
1619090101.87059,23.67722,20.428099870681763
1619090101.88622,22.75888,20.443729877471924
1619090101.90184,21.67459,20.459349870681763
1619090101.91747,20.34821,20.474979877471924
1619090101.93309,18.81204,20.490599870681763
1619090101.94872,17.22144,20.506229877471924
1619090101.96434,15.74213,20.521849870681763
1619090101.97997,14.51425,20.537479877471924
1619090101.9956,13.565,20.553109884262085
1619090102.01122,12.81207,20.568729877471924
1619090102.02685,12.07437,20.584359884262085
1619090102.04247,11.13248,20.599979877471924
1619090102.0581,9.727783,20.615609884262085
1619090102.07372,7.636993,20.631229877471924
1619090102.08935,4.707581,20.646859884262085
1619090102.10498,0.960968,20.662489891052246
1619090102.1206,-3.364746,20.678109884262085
1619090102.13623,-7.859467,20.693739891052246
1619090102.15185,-12.03885,20.709359884262085
1619090102.16748,-15.55817,20.724989891052246
1619090102.1831,-18.29831,20.740609884262085
1619090102.19873,-20.47284,20.756239891052246
1619090102.21436,-22.51898,20.771869897842407
1619090102.22998,-24.94519,20.787489891052246
1619090102.24561,-28.14944,20.803119897842407
1619090102.26123,-32.22577,20.818739891052246
1619090102.27686,-36.89011,20.834369897842407
1619090102.29248,-41.45538,20.849989891052246
1619090102.30811,-45.02161,20.865619897842407
1619090102.32374,-46.68106,20.88124990463257
1619090102.33936,-45.80002,20.896869897842407
1619090102.35499,-42.17709,20.91249990463257
1619090102.37061,-36.04388,20.928119897842407
1619090102.38624,-27.94839,20.94374990463257
1619090102.40186,-18.57565,20.959369897842407
1619090102.41749,-8.640259,20.97499990463257
1619090102.43312,1.214233,20.99062991142273
1619090102.44874,10.43488,21.00624990463257
1619090102.46437,18.61499,21.02187991142273
1619090102.47999,25.54364,21.03749990463257
1619090102.49562,31.21918,21.05312991142273
1619090102.51124,35.75217,21.06874990463257
1619090102.52687,39.27826,21.08437991142273
1619090102.5425,41.86349,21.10000991821289
1619090102.55812,43.50116,21.11562991142273
1619090102.57375,44.23404,21.13125991821289
1619090102.58937,44.16284,21.14687991142273
1619090102.605,43.48215,21.16250991821289
1619090102.62062,42.38034,21.17812991142273
1619090102.63625,40.94196,21.19375991821289
1619090102.65188,39.13971,21.20938992500305
1619090102.6675,36.92981,21.22500991821289
1619090102.68313,34.37723,21.24063992500305
1619090102.69875,31.72382,21.25625991821289
1619090102.71438,29.30566,21.27188992500305
1619090102.73,27.38928,21.28750991821289
1619090102.74563,26.03976,21.30313992500305
1619090102.76126,25.01987,21.318769931793213
1619090102.77688,23.9068,21.33438992500305
1619090102.79251,22.23566,21.350019931793213
1619090102.80813,19.67261,21.36563992500305
1619090102.82376,16.1192,21.381269931793213
1619090102.83938,11.74686,21.39688992500305
1619090102.85501,6.963623,21.412519931793213
1619090102.87064,2.235779,21.428149938583374
1619090102.88626,-2.049774,21.443769931793213
1619090102.90189,-5.797577,21.459399938583374
1619090102.91751,-9.246155,21.475019931793213
1619090102.93314,-12.83255,21.490649938583374
1619090102.94876,-16.97937,21.506269931793213
1619090102.96439,-21.89093,21.521899938583374
1619090102.98002,-27.3819,21.537529945373535
1619090102.99564,-32.91422,21.553149938583374
1619090103.01127,-37.72476,21.568779945373535
1619090103.02689,-41.04568,21.584399938583374
1619090103.04252,-42.22165,21.600029945373535
1619090103.05814,-40.8649,21.615649938583374
1619090103.07377,-36.88602,21.631279945373535
1619090103.0894,-30.55429,21.646909952163696
1619090103.10502,-22.45547,21.662529945373535
1619090103.12065,-13.4256,21.678159952163696
1619090103.13627,-4.40387,21.693779945373535
1619090103.1519,3.811432,21.709409952163696
1619090103.16752,10.73096,21.725029945373535
1619090103.18315,16.25717,21.740659952163696
1619090103.19878,20.60733,21.756289958953857
1619090103.2144,24.11938,21.771909952163696
1619090103.23003,27.04343,21.787539958953857
1619090103.24565,29.48343,21.803159952163696
1619090103.26128,31.38647,21.818789958953857
1619090103.2769,32.63892,21.834409952163696
1619090103.29253,33.17163,21.850039958953857
1619090103.30816,33.02084,21.86566996574402
1619090103.32378,32.33603,21.881289958953857
1619090103.33941,31.29034,21.89691996574402
1619090103.35503,30.06876,21.912539958953857
1619090103.37066,28.79825,21.92816996574402
1619090103.38629,27.57974,21.94379997253418
1619090103.40191,26.49228,21.95941996574402
1619090103.41754,25.58307,21.97504997253418
1619090103.43316,24.84625,21.99066996574402
1619090103.44879,24.20795,22.00629997253418
1619090103.46441,23.51492,22.02191996574402
1619090103.48004,22.56845,22.03754997253418
1619090103.49567,21.20663,22.05317997932434
1619090103.51129,19.34476,22.06879997253418
1619090103.52692,16.98996,22.08442997932434
1619090103.54254,14.25916,22.10004997253418
1619090103.55817,11.31509,22.11567997932434
1619090103.57379,8.324768,22.13129997253418
1619090103.58942,5.400055,22.14692997932434
1619090103.60505,2.566803,22.162559986114502
1619090103.62067,-0.2504883,22.17817997932434
1619090103.6363,-3.244629,22.193809986114502
1619090103.65192,-6.676392,22.20942997932434
1619090103.66755,-10.82385,22.225059986114502
1619090103.68317,-15.87857,22.24067997932434
1619090103.6988,-21.78241,22.256309986114502
1619090103.71443,-28.10385,22.271939992904663
1619090103.73005,-34.0618,22.287559986114502
1619090103.74568,-38.63495,22.303189992904663
1619090103.7613,-40.87137,22.318809986114502
1619090103.77693,-40.2106,22.334439992904663
1619090103.79255,-36.70108,22.350059986114502
1619090103.80818,-30.94788,22.365689992904663
1619090103.82381,-23.89905,22.381319999694824
1619090103.83943,-16.5206,22.396939992904663
1619090103.85506,-9.462646,22.412569999694824
1619090103.87068,-2.939453,22.428189992904663
1619090103.88631,3.143402,22.443819999694824
1619090103.90193,8.958191,22.459439992904663
1619090103.91756,14.51181,22.475069999694824
1619090103.93319,19.56256,22.490700006484985
1619090103.94881,23.784,22.506319999694824
1619090103.96444,26.95044,22.521950006484985
1619090103.98006,29.0416,22.537569999694824
1619090103.99569,30.23795,22.553200006484985
1619090104.01131,30.82449,22.568819999694824
1619090104.02694,30.98846,22.584450006484985
1619090104.04257,30.85294,22.600080013275146
1619090104.05819,30.47034,22.615700006484985
1619090104.07382,29.92239,22.631330013275146
1619090104.08944,29.45581,22.646950006484985
1619090104.10507,29.33569,22.662580013275146
1619090104.12069,29.71191,22.678200006484985
1619090104.13632,30.45172,22.693830013275146
1619090104.15195,31.1347,22.70945978164673
1619090104.16757,31.2504,22.725080013275146
1619090104.1832,30.44406,22.74070978164673
1619090104.19882,28.68542,22.756330013275146
1619090104.21445,26.28925,22.77195978164673
1619090104.23007,23.90637,22.787580013275146
1619090104.2457,22.05151,22.80320978164673
1619090104.26133,20.85916,22.81883978843689
1619090104.27695,20.03476,22.83445978164673
1619090104.29258,19.05353,22.85008978843689
1619090104.3082,17.47153,22.86570978164673
1619090104.32383,15.15976,22.88133978843689
1619090104.33945,12.33368,22.89695978164673
1619090104.35508,9.337616,22.91258978843689
1619090104.37071,6.91922,22.92821979522705
1619090104.38633,5.567322,22.94383978843689
1619090104.40196,5.391693,22.95946979522705
1619090104.41758,6.023132,22.97508978843689
1619090104.43321,6.699585,22.99071979522705
1619090104.44883,6.527222,23.00633978843689
1619090104.46446,4.860107,23.02196979522705
1619090104.48009,1.553955,23.037599802017212
1619090104.49571,-2.945374,23.05321979522705
1619090104.51134,-6.854492,23.068849802017212
1619090104.52696,-8.140869,23.08446979522705
1619090104.54259,-5.208008,23.100099802017212
1619090104.55821,2.384796,23.11571979522705
1619090104.57384,13.73151,23.131349802017212
1619090104.58947,27.04156,23.146979808807373
1619090104.60509,40.46695,23.162599802017212
1619090104.62072,52.83432,23.178229808807373
1619090104.63634,63.94205,23.193849802017212
1619090104.65197,75.40488,23.209479808807373
1619090104.66759,89.25418,23.225099802017212
1619090104.68322,107.0969,23.240729808807373
1619090104.69885,129.2772,23.256359815597534
1619090104.71447,154.5908,23.271979808807373
1619090104.7301,180.5642,23.287609815597534
1619090104.74572,204.211,23.303229808807373
1619090104.76135,222.7435,23.318859815597534
1619090104.77697,227.9252,23.334479808807373
1619090104.7926,214.2596,23.350109815597534
1619090104.80823,180.5688,23.365739822387695
1619090104.82385,131.62,23.381359815597534
1619090104.83948,76.72197,23.396989822387695
1619090104.8551,25.52992,23.412609815597534
1619090104.87073,-16.03586,23.428239822387695
1619090104.88635,-46.91628,23.443859815597534
1619090104.90198,-69.35295,23.459489822387695
1619090104.91761,-86.39093,23.475119829177856
1619090104.93323,-99.09998,23.490739822387695
1619090104.94886,-107.1714,23.506369829177856
1619090104.96448,-109.9348,23.521989822387695
1619090104.98011,-107.7544,23.537619829177856
1619090104.99573,-102.5598,23.553239822387695
1619090105.01136,-97.37701,23.568869829177856
1619090105.02699,-95.2495,23.584499835968018
1619090105.04261,-98.07448,23.600119829177856
1619090105.05824,-106.226,23.615749835968018
1619090105.07386,-117.9993,23.631369829177856
1619090105.08949,-130.5922,23.646999835968018
1619090105.10511,-140.7741,23.662619829177856
1619090105.12074,-145.659,23.678249835968018
1619090105.13637,-143.4549,23.69387984275818
1619090105.15199,-134.1601,23.709499835968018
1619090105.16762,-119.4249,23.72512984275818
1619090105.18324,-102.2147,23.740749835968018
1619090105.19887,-85.92934,23.75637984275818
1619090105.21449,-72.90137,23.771999835968018
1619090105.23012,-64.06871,23.78762984275818
1619090105.24575,-59.09125,23.80325984954834
1619090105.26137,-57.14376,23.81887984275818
1619090105.277,-56.66122,23.83450984954834
1619090105.29262,-56.97191,23.85012984275818
1619090105.30825,-57.63307,23.86575984954834
1619090105.32387,-57.93779,23.88137984275818
1619090105.3395,-56.66349,23.89700984954834
1619090105.35513,-52.06858,23.9126398563385
1619090105.37075,-42.72554,23.92825984954834
1619090105.38638,-28.27125,23.9438898563385
1619090105.402,-9.701462,23.95950984954834
1619090105.41763,11.00781,23.9751398563385
1619090105.43325,31.4797,23.99075984954834
1619090105.44888,49.92889,24.0063898563385
1619090105.46451,65.45061,24.022019863128662
1619090105.48013,77.71985,24.0376398563385
1619090105.49576,86.60923,24.053269863128662
1619090105.51138,91.71381,24.0688898563385
1619090105.52701,92.35313,24.084519863128662
1619090105.54263,87.9584,24.1001398563385
1619090105.55826,78.53973,24.115769863128662
1619090105.57389,64.85224,24.131399869918823
1619090105.58951,48.50333,24.147019863128662
1619090105.60514,31.4978,24.162649869918823
1619090105.62076,15.70442,24.178269863128662
1619090105.63639,2.378197,24.193899869918823
1619090105.65201,-8.079819,24.209519863128662
1619090105.66764,-16.03592,24.225149869918823
1619090105.68327,-22.39214,24.240779876708984
1619090105.69889,-28.15916,24.256399869918823
1619090105.71452,-34.22934,24.272029876708984
1619090105.73014,-41.0329,24.287649869918823
1619090105.74577,-48.54114,24.303279876708984
1619090105.76139,-56.33777,24.318899869918823
1619090105.77702,-63.79109,24.334529876708984
1619090105.79265,-70.20854,24.350159883499146
1619090105.80827,-75.03976,24.365779876708984
1619090105.8239,-77.98544,24.381409883499146
1619090105.83952,-79.06639,24.397029876708984
1619090105.85515,-78.66074,24.412659883499146
1619090105.87077,-77.29424,24.428279876708984
1619090105.8864,-75.50032,24.443909883499146
1619090105.90203,-73.65816,24.459539890289307
1619090105.91765,-71.95084,24.475159883499146
1619090105.93328,-70.44215,24.490789890289307
1619090105.9489,-69.16743,24.506409883499146
1619090105.96453,-68.18956,24.522039890289307
1619090105.98016,-67.6582,24.537669897079468
1619090105.99578,-67.66173,24.553289890289307
1619090106.01141,-68.18242,24.568919897079468
1619090106.02703,-69.04446,24.584539890289307
1619090106.04266,-69.87321,24.600169897079468
1619090106.05828,-70.14807,24.615789890289307
1619090106.07391,-69.24063,24.631419897079468
1619090106.08954,-66.49776,24.64704990386963
1619090106.10516,-61.401,24.662669897079468
1619090106.12079,-53.79898,24.67829990386963
1619090106.13641,-43.95894,24.693919897079468
1619090106.15204,-32.66032,24.70954990386963
1619090106.16766,-20.94478,24.725169897079468
1619090106.18329,-9.869949,24.74079990386963
1619090106.19892,-0.1801147,24.75642991065979
1619090106.21454,7.835945,24.77204990386963
1619090106.23017,14.32662,24.78767991065979
1619090106.24579,19.63765,24.80329990386963
1619090106.26142,24.06354,24.81892991065979
1619090106.27704,27.70481,24.83454990386963
1619090106.29267,30.50873,24.85017991065979
1619090106.3083,32.40165,24.86580991744995
1619090106.32392,33.43037,24.88142991065979
1619090106.33955,33.80804,24.89705991744995
1619090106.35517,33.82558,24.91267991065979
1619090106.3708,33.72256,24.92830991744995
1619090106.38642,33.55893,24.94392991065979
1619090106.40205,33.25246,24.95955991744995
1619090106.41768,32.69276,24.975189924240112
1619090106.4333,31.84908,24.99080991744995
1619090106.44893,30.85569,25.006439924240112
1619090106.46455,29.87176,25.02205991744995
1619090106.48018,28.97278,25.037689924240112
1619090106.4958,28.07646,25.05330991744995
1619090106.51143,26.95271,25.068939924240112
1619090106.52706,25.38495,25.084569931030273
1619090106.54268,23.30225,25.100189924240112
1619090106.55831,20.81686,25.115819931030273
1619090106.57393,18.13515,25.131439924240112
1619090106.58956,15.39941,25.147069931030273
1619090106.60518,12.64576,25.162689924240112
1619090106.62081,9.791557,25.178319931030273
1619090106.63644,6.810097,25.193949937820435
1619090106.65206,3.752911,25.209569931030273
1619090106.66769,0.7858353,25.225199937820435
1619090106.68331,-1.923706,25.240819931030273
1619090106.69894,-4.332211,25.256449937820435
1619090106.71456,-6.566975,25.272069931030273
1619090106.73019,-8.890007,25.287699937820435
1619090106.74582,-11.61668,25.303329944610596
1619090106.76144,-15.00021,25.318949937820435
1619090106.77707,-19.1354,25.334579944610596
1619090106.79269,-23.86788,25.350199937820435
1619090106.80832,-28.75697,25.365829944610596
1619090106.82394,-33.08465,25.381449937820435
1619090106.83957,-36.03941,25.397079944610596
1619090106.8552,-36.86793,25.412709951400757
1619090106.87082,-35.15247,25.428329944610596
1619090106.88645,-30.93739,25.443959951400757
1619090106.90207,-24.76572,25.459579944610596
1619090106.9177,-17.4895,25.475209951400757
1619090106.93332,-10.02174,25.490829944610596
1619090106.94895,-3.051096,25.506459951400757
1619090106.96458,3.040725,25.522089958190918
1619090106.9802,8.173568,25.537709951400757
1619090106.99583,12.46678,25.553339958190918
1619090107.01145,16.07518,25.568959951400757
1619090107.02708,19.11691,25.584589958190918
1619090107.0427,21.61402,25.600209951400757
1619090107.05833,23.5416,25.615839958190918
1619090107.07396,24.92451,25.63146996498108
1619090107.08958,25.86638,25.647089958190918
1619090107.10521,26.54309,25.66271996498108
1619090107.12083,27.1245,25.678339958190918
1619090107.13646,27.67353,25.69396996498108
1619090107.15208,28.08018,25.709589958190918
1619090107.16771,28.19523,25.72521996498108
1619090107.18334,27.90691,25.74084997177124
1619090107.19896,27.26596,25.75646996498108
1619090107.21459,26.46506,25.77209997177124
1619090107.23021,25.76148,25.78771996498108
1619090107.24584,25.32194,25.80334997177124
1619090107.26146,25.14835,25.81896996498108
1619090107.27709,25.08441,25.83459997177124
1619090107.29272,24.9268,25.8502299785614
1619090107.30834,24.50906,25.86584997177124
1619090107.32397,23.7924,25.8814799785614
1619090107.33959,22.80376,25.89709997177124
1619090107.35522,21.56589,25.9127299785614
1619090107.37084,20.0447,25.92834997177124
1619090107.38647,18.12621,25.9439799785614
1619090107.4021,15.69661,25.959609985351562
1619090107.41772,12.72565,25.9752299785614
1619090107.43335,9.294716,25.990859985351562
1619090107.44897,5.575939,26.0064799785614
1619090107.4646,1.77663,26.022109985351562
1619090107.48022,-1.93837,26.0377299785614
1619090107.49585,-5.501881,26.053359985351562
1619090107.51148,-8.911781,26.068989992141724
1619090107.5271,-12.22692,26.084609985351562
1619090107.54273,-15.57125,26.100239992141724
1619090107.55835,-19.15228,26.115859985351562
1619090107.57398,-23.15615,26.131489992141724
1619090107.5896,-27.65401,26.147109985351562
1619090107.60523,-32.46157,26.162739992141724
1619090107.62086,-37.01913,26.178369998931885
1619090107.63648,-40.51686,26.193989992141724
1619090107.65211,-42.11666,26.209619998931885
1619090107.66773,-41.23628,26.225239992141724
1619090107.68336,-37.79435,26.240869998931885
1619090107.69898,-32.22859,26.256489992141724
1619090107.71461,-25.32162,26.272119998931885
1619090107.73024,-17.95531,26.287750005722046
1619090107.74586,-10.85039,26.303369998931885
1619090107.76149,-4.462265,26.319000005722046
1619090107.77711,1.009132,26.334619998931885
1619090107.79274,5.594452,26.350250005722046
1619090107.80836,9.425438,26.365869998931885
1619090107.82399,12.70384,26.381500005722046
1619090107.83962,15.6426,26.397130012512207
1619090107.85524,18.37525,26.412750005722046
1619090107.87087,20.92986,26.428380012512207
1619090107.88649,23.18965,26.444000005722046
1619090107.90212,24.96431,26.459630012512207
1619090107.91774,26.08556,26.475250005722046
1619090107.93337,26.53487,26.490880012512207
1619090107.949,26.4715,26.50650978088379
1619090107.96462,26.18732,26.522130012512207
1619090107.98025,25.99017,26.53775978088379
1619090107.99587,26.04476,26.553380012512207
1619090108.0115,26.36226,26.56900978088379
1619090108.02712,26.84084,26.584630012512207
1619090108.04275,27.36636,26.60025978088379
1619090108.05838,27.86432,26.61588978767395
1619090108.074,28.31023,26.63150978088379
1619090108.08963,28.59672,26.64713978767395
1619090108.10525,28.49593,26.66275978088379
1619090108.12088,27.72915,26.67838978767395
1619090108.1365,26.1179,26.69400978088379
1619090108.15213,23.76944,26.70963978767395
1619090108.16776,21.07184,26.72526979446411
1619090108.18338,18.53052,26.74088978767395
1619090108.19901,16.49672,26.75651979446411
1619090108.21463,14.95762,26.77213978767395
1619090108.23026,13.49235,26.78776979446411
1619090108.24589,11.54813,26.803399801254272
1619090108.26151,8.737724,26.81901979446411
1619090108.27714,5.063599,26.834649801254272
1619090108.29276,0.9378815,26.85026979446411
1619090108.30839,-3.053673,26.865899801254272
1619090108.32401,-6.499428,26.88151979446411
1619090108.33964,-9.324387,26.897149801254272
1619090108.35527,-11.79385,26.912779808044434
1619090108.37089,-14.35187,26.928399801254272
1619090108.38652,-17.29212,26.944029808044434
1619090108.40214,-20.68022,26.959649801254272
1619090108.41777,-24.36512,26.975279808044434
1619090108.43339,-28.22289,26.990899801254272
1619090108.44902,-32.27296,27.006529808044434
1619090108.46465,-36.65691,27.022159814834595
1619090108.48027,-41.41631,27.037779808044434
1619090108.4959,-46.16497,27.053409814834595
1619090108.51152,-50.01958,27.069029808044434
1619090108.52715,-51.76448,27.084659814834595
1619090108.54277,-50.39043,27.100279808044434
1619090108.5584,-45.55091,27.115909814834595
1619090108.57403,-37.79401,27.131539821624756
1619090108.58965,-28.35571,27.147159814834595
1619090108.60528,-18.67493,27.162789821624756
1619090108.6209,-9.874176,27.178409814834595
1619090108.63653,-2.448051,27.194039821624756
1619090108.65215,3.624725,27.209659814834595
1619090108.66778,8.673714,27.225289821624756
1619090108.68341,12.95828,27.240919828414917
1619090108.69903,16.59752,27.256539821624756
1619090108.71466,19.56172,27.272169828414917
1619090108.73028,21.80911,27.287789821624756
1619090108.74591,23.41863,27.303419828414917
1619090108.76153,24.57796,27.319039821624756
1619090108.77716,25.49416,27.334669828414917
1619090108.79279,26.3037,27.350299835205078
1619090108.80841,27.04408,27.365919828414917
1619090108.82404,27.64133,27.381549835205078
1619090108.83966,28.01929,27.397169828414917
1619090108.85529,28.19801,27.412799835205078
1619090108.87091,28.2784,27.428419828414917
1619090108.88654,28.47812,27.444049835205078
1619090108.90217,28.9856,27.45967984199524
1619090108.91779,29.88,27.475299835205078
1619090108.93342,31.03877,27.49092984199524
1619090108.94904,32.17167,27.506549835205078
1619090108.96467,32.90946,27.52217984199524
1619090108.98029,32.9534,27.537799835205078
1619090108.99592,32.21661,27.55342984199524
1619090109.01155,30.79845,27.5690598487854
1619090109.02717,28.96121,27.58467984199524
1619090109.0428,26.92427,27.6003098487854
1619090109.05842,24.81059,27.61592984199524
1619090109.07405,22.57394,27.6315598487854
1619090109.08967,20.12408,27.64717984199524
1619090109.1053,17.40907,27.6628098487854
1619090109.12093,14.48905,27.67843985557556
1619090109.13655,11.55639,27.6940598487854
1619090109.15218,8.761818,27.70968985557556
1619090109.1678,6.194901,27.7253098487854
1619090109.18343,3.739601,27.74093985557556
1619090109.19905,1.206741,27.7565598487854
1619090109.21468,-1.562996,27.77218985557556
1619090109.23031,-4.613205,27.787819862365723
1619090109.24593,-7.847656,27.80343985557556
1619090109.26156,-11.08398,27.819069862365723
1619090109.27718,-14.17015,27.83468985557556
1619090109.29281,-17.08598,27.850319862365723
1619090109.30843,-19.92358,27.86593985557556
1619090109.32406,-22.91191,27.881569862365723
1619090109.33969,-26.32805,27.897199869155884
1619090109.35531,-30.41515,27.912819862365723
1619090109.37094,-35.3095,27.928449869155884
1619090109.38656,-40.87721,27.944069862365723
1619090109.40219,-46.6385,27.959699869155884
1619090109.41781,-51.72298,27.975319862365723
1619090109.43344,-55.03204,27.990949869155884
1619090109.44907,-55.55421,28.006579875946045
1619090109.46469,-52.75179,28.022199869155884
1619090109.48032,-46.82922,28.037829875946045
1619090109.49594,-38.68127,28.053449869155884
1619090109.51157,-29.57973,28.069079875946045
1619090109.52719,-20.72334,28.084699869155884
1619090109.54282,-12.90758,28.100329875946045
1619090109.55845,-6.356125,28.115959882736206
1619090109.57407,-0.9362106,28.131579875946045
1619090109.5897,3.62912,28.147209882736206
1619090109.60532,7.510841,28.162829875946045
1619090109.62095,10.78265,28.178459882736206
1619090109.63657,13.47357,28.194079875946045
1619090109.6522,15.63901,28.209709882736206
1619090109.66783,17.4077,28.225339889526367
1619090109.68345,18.88355,28.240959882736206
1619090109.69908,20.06548,28.256589889526367
1619090109.7147,20.85422,28.272209882736206
1619090109.73033,21.15864,28.287839889526367
1619090109.74595,20.95971,28.303459882736206
1619090109.76158,20.40805,28.319089889526367
1619090109.77721,19.78508,28.33471989631653
1619090109.79283,19.3611,28.350339889526367
1619090109.80846,19.32498,28.36596989631653
1619090109.82408,19.69249,28.381589889526367
1619090109.83971,20.30376,28.39721989631653
1619090109.85533,20.86422,28.412839889526367
1619090109.87096,21.01823,28.42846989631653
1619090109.88659,20.46883,28.44409990310669
1619090109.90221,19.04659,28.45971989631653
1619090109.91784,16.79938,28.47534990310669
1619090109.93346,13.93909,28.49096989631653
1619090109.94909,10.77232,28.50659990310669
1619090109.96471,7.58744,28.52221989631653
1619090109.98034,4.518265,28.53784990310669
1619090109.99597,1.551926,28.55347990989685
1619090110.01159,-1.430939,28.56909990310669
1619090110.02722,-4.585205,28.58472990989685
1619090110.04284,-8.07254,28.60034990310669
1619090110.05847,-11.97623,28.61597990989685
1619090110.07409,-16.3042,28.63159990310669
1619090110.08972,-20.85626,28.64722990989685
1619090110.10535,-25.18595,28.66285991668701
1619090110.12097,-28.59938,28.67847990989685
1619090110.1366,-30.32481,28.69410991668701
1619090110.15222,-29.75648,28.70972990989685
1619090110.16785,-26.69622,28.72535991668701
1619090110.18347,-21.44892,28.74097990989685
1619090110.1991,-14.72442,28.75660991668701
1619090110.21473,-7.390484,28.772239923477173
1619090110.23035,-0.1706924,28.78785991668701
1619090110.24598,6.451756,28.803489923477173
1619090110.2616,12.28942,28.81910991668701
1619090110.27723,17.31074,28.834739923477173
1619090110.29285,21.51811,28.85035991668701
1619090110.30848,24.8849,28.865989923477173
1619090110.32411,27.3406,28.881619930267334
1619090110.33973,28.82697,28.897239923477173
1619090110.35536,29.35907,28.912869930267334
1619090110.37098,29.05281,28.928489923477173
1619090110.38661,28.11124,28.944119930267334
1619090110.40224,26.82096,28.959749937057495
1619090110.41786,25.495,28.975369930267334
1619090110.43349,24.40506,28.990999937057495
1619090110.44911,23.71641,29.006619930267334
1619090110.46474,23.4597,29.022249937057495
1619090110.48036,23.54089,29.037869930267334
1619090110.49599,23.81366,29.053499937057495
1619090110.51162,24.15173,29.069129943847656
1619090110.52724,24.48376,29.084749937057495
1619090110.54287,24.79881,29.100379943847656
1619090110.55849,25.1103,29.115999937057495
1619090110.57412,25.37733,29.131629943847656
1619090110.58974,25.48105,29.147249937057495
1619090110.60537,25.23777,29.162879943847656
1619090110.621,24.46499,29.178509950637817
1619090110.63662,23.06985,29.194129943847656
1619090110.65225,21.13423,29.209759950637817
1619090110.66787,18.91461,29.225379943847656
1619090110.6835,16.76573,29.241009950637817
1619090110.69912,14.96226,29.256629943847656
1619090110.71475,13.60387,29.272259950637817
1619090110.73038,12.56545,29.28788995742798
1619090110.746,11.57965,29.303509950637817
1619090110.76163,10.40786,29.31913995742798
1619090110.77725,8.936252,29.334759950637817
1619090110.79288,7.195132,29.35038995742798
1619090110.8085,5.308772,29.366009950637817
1619090110.82413,3.418656,29.38163995742798
1619090110.83976,1.596043,29.39726996421814
1619090110.85538,-0.121666,29.41288995742798
1619090110.87101,-1.66893,29.42851996421814
1619090110.88663,-2.984104,29.44413995742798
1619090110.90226,-3.977463,29.45976996421814
1619090110.91788,-4.635424,29.47538995742798
1619090110.93351,-5.064054,29.49101996421814
1619090110.94914,-5.496067,29.5066499710083
1619090110.96476,-6.245907,29.52226996421814
1619090110.98039,-7.590797,29.5378999710083
1619090110.99601,-9.664154,29.55351996421814
1619090111.01164,-12.40533,29.5691499710083
1619090111.02726,-15.59972,29.58476996421814
1619090111.04289,-18.92187,29.6003999710083
1619090111.05852,-22.06362,29.616029977798462
1619090111.07414,-24.82843,29.6316499710083
1619090111.08977,-27.18358,29.647279977798462
1619090111.10539,-29.24809,29.6628999710083
1619090111.12102,-31.21854,29.678529977798462
1619090111.13664,-33.28708,29.6941499710083
1619090111.15227,-35.57574,29.709779977798462
1619090111.1679,-38.14631,29.725409984588623
1619090111.18352,-41.03695,29.741029977798462
1619090111.19915,-44.34456,29.756659984588623
1619090111.21477,-48.20125,29.772279977798462
1619090111.2304,-52.66566,29.787909984588623
1619090111.24602,-57.56712,29.803529977798462
1619090111.26165,-62.39052,29.819159984588623
1619090111.27728,-66.24397,29.834789991378784
1619090111.2929,-68.08105,29.850409984588623
1619090111.30853,-66.99847,29.866039991378784
1619090111.32415,-62.53039,29.881659984588623
1619090111.33978,-54.88821,29.897289991378784
1619090111.3554,-44.89072,29.912909984588623
1619090111.37103,-33.74223,29.928539991378784
1619090111.38666,-22.69947,29.944169998168945
1619090111.40228,-12.79091,29.959789991378784
1619090111.41791,-4.613319,29.975419998168945
1619090111.43353,1.666153,29.991039991378784
1619090111.44916,6.223801,30.006669998168945
1619090111.46478,9.418243,30.022289991378784
1619090111.48041,11.61903,30.037919998168945
1619090111.49604,13.09569,30.053550004959106
1619090111.51166,14.01919,30.069169998168945
1619090111.52729,14.49538,30.084800004959106
1619090111.54291,14.63684,30.100419998168945
1619090111.55854,14.6175,30.116050004959106
1619090111.57416,14.62781,30.131669998168945
1619090111.58979,14.77173,30.147300004959106
1619090111.60542,15.05651,30.162930011749268
1619090111.62104,15.35477,30.178550004959106
1619090111.63667,15.52534,30.194180011749268
1619090111.65229,15.51257,30.209800004959106
1619090111.66792,15.35155,30.225430011749268
1619090111.68354,15.14443,30.241050004959106
1619090111.69917,14.96668,30.256680011749268
1619090111.7148,14.76082,30.27230978012085
1619090111.73042,14.35622,30.287930011749268
1619090111.74605,13.59321,30.30355978012085
1619090111.76167,12.36301,30.319180011749268
1619090111.7773,10.71913,30.33480978012085
1619090111.79292,8.827354,30.350430011749268
1619090111.80855,6.882385,30.36605978012085
1619090111.82418,5.025269,30.38168978691101
1619090111.8398,3.264137,30.39730978012085
1619090111.85543,1.495361,30.41293978691101
1619090111.87105,-0.4571686,30.42855978012085
1619090111.88668,-2.706406,30.44418978691101
1619090111.9023,-5.240829,30.45980978012085
1619090111.91793,-7.904594,30.47543978691101
1619090111.93356,-10.42853,30.491069793701172
1619090111.94918,-12.61243,30.50668978691101
1619090111.96481,-14.42892,30.522319793701172
1619090111.98043,-16.06081,30.53793978691101
1619090111.99606,-17.87428,30.553569793701172
1619090112.01168,-20.31064,30.56918978691101
1619090112.02731,-23.70742,30.584819793701172
1619090112.04294,-28.15324,30.600449800491333
1619090112.05856,-33.38096,30.616069793701172
1619090112.07419,-38.70654,30.631699800491333
1619090112.08981,-43.15704,30.647319793701172
1619090112.10544,-45.67392,30.662949800491333
1619090112.12106,-45.43629,30.678569793701172
1619090112.13669,-42.13435,30.694199800491333
1619090112.15232,-36.09755,30.709829807281494
1619090112.16794,-28.19497,30.725449800491333
1619090112.18357,-19.56749,30.741079807281494
1619090112.19919,-11.26784,30.756699800491333
1619090112.21482,-3.974396,30.772329807281494
1619090112.23044,2.059883,30.787949800491333
1619090112.24607,6.966434,30.803579807281494
1619090112.2617,10.99548,30.819209814071655
1619090112.27732,14.35247,30.834829807281494
1619090112.29295,17.11111,30.850459814071655
1619090112.30857,19.21904,30.866079807281494
1619090112.3242,20.6507,30.881709814071655
1619090112.33982,21.43824,30.897329807281494
1619090112.35545,21.75031,30.912959814071655
1619090112.37108,21.79852,30.928589820861816
1619090112.3867,21.77406,30.944209814071655
1619090112.40233,21.7498,30.959839820861816
1619090112.41795,21.64864,30.975459814071655
1619090112.43358,21.3364,30.991089820861816
1619090112.4492,20.7309,31.006709814071655
1619090112.46483,19.8715,31.022339820861816
1619090112.48046,18.96062,31.037969827651978
1619090112.49608,18.23724,31.053589820861816
1619090112.51171,17.85066,31.069219827651978
1619090112.52733,17.76024,31.084839820861816
1619090112.54296,17.75003,31.100469827651978
1619090112.55858,17.53281,31.116089820861816
1619090112.57421,16.807,31.131719827651978
1619090112.58984,15.4129,31.14734983444214
1619090112.60546,13.30795,31.162969827651978
1619090112.62109,10.61232,31.17859983444214
1619090112.63671,7.568814,31.194219827651978
1619090112.65234,4.477324,31.20984983444214
1619090112.66796,1.614678,31.225469827651978
1619090112.68359,-0.8796473,31.24109983444214
1619090112.69922,-3.090205,31.2567298412323
1619090112.71484,-5.31434,31.27234983444214
1619090112.73047,-7.989717,31.2879798412323
1619090112.74609,-11.46041,31.30359983444214
1619090112.76172,-15.84254,31.3192298412323
1619090112.77734,-20.93076,31.33484983444214
1619090112.79297,-26.2795,31.3504798412323
1619090112.8086,-31.31419,31.36610984802246
1619090112.82422,-35.4238,31.3817298412323
1619090112.83985,-38.05405,31.39735984802246
1619090112.85547,-38.74562,31.4129798412323
1619090112.8711,-37.20279,31.42860984802246
1619090112.88672,-33.41175,31.4442298412323
1619090112.90235,-27.71389,31.45985984802246
1619090112.91798,-20.78945,31.475489854812622
1619090112.9336,-13.47702,31.49110984802246
1619090112.94923,-6.572059,31.506739854812622
1619090112.96485,-0.6283579,31.52235984802246
1619090112.98048,4.1359,31.537989854812622
1619090112.9961,7.810906,31.55360984802246
1619090113.01173,10.6491,31.569239854812622
1619090113.02736,12.94778,31.584869861602783
1619090113.04298,14.93476,31.600489854812622
1619090113.05861,16.75384,31.616119861602783
1619090113.07423,18.41911,31.631739854812622
1619090113.08986,19.87267,31.647369861602783
1619090113.10549,21.00208,31.662999868392944
1619090113.12111,21.71025,31.678619861602783
1619090113.13674,21.97177,31.694249868392944
1619090113.15236,21.88879,31.709869861602783
1619090113.16799,21.63682,31.725499868392944
1619090113.18361,21.39286,31.741119861602783
1619090113.19924,21.23891,31.756749868392944
1619090113.21487,21.13187,31.772379875183105
1619090113.23049,20.89817,31.787999868392944
1619090113.24612,20.32474,31.803629875183105
1619090113.26174,19.2282,31.819249868392944
1619090113.27737,17.54565,31.834879875183105
1619090113.29299,15.32948,31.850499868392944
1619090113.30862,12.74936,31.866129875183105
1619090113.32425,10.00391,31.881759881973267
1619090113.33987,7.237431,31.897379875183105
1619090113.3555,4.459404,31.913009881973267
1619090113.37112,1.545444,31.928629875183105
1619090113.38675,-1.704086,31.944259881973267
1619090113.40237,-5.430588,31.959879875183105
1619090113.418,-9.708862,31.975509881973267
1619090113.43363,-14.53881,31.991139888763428
1619090113.44925,-19.86549,32.00675988197327
1619090113.46488,-25.5684,32.02238988876343
1619090113.4805,-31.36734,32.03800988197327
1619090113.49613,-36.68044,32.05363988876343
1619090113.51175,-40.65733,32.06925988197327
1619090113.52738,-42.39425,32.08488988876343
1619090113.54301,-41.25377,32.10051989555359
1619090113.55863,-37.16083,32.11613988876343
1619090113.57426,-30.70841,32.13176989555359
1619090113.58988,-22.94668,32.14738988876343
1619090113.60551,-15.01373,32.16301989555359
1619090113.62113,-7.749905,32.17863988876343
1619090113.63676,-1.560055,32.19426989555359
1619090113.65239,3.535229,32.20989990234375
1619090113.66801,7.683056,32.22551989555359
1619090113.68364,10.97625,32.24114990234375
1619090113.69926,13.41561,32.25676989555359
1619090113.71489,14.98109,32.27239990234375
1619090113.73051,15.74062,32.28801989555359
1619090113.74614,15.89184,32.30364990234375
1619090113.76177,15.67509,32.31927990913391
1619090113.77739,15.30052,32.33489990234375
1619090113.79302,14.83842,32.35052990913391
1619090113.80864,14.31217,32.36614990234375
1619090113.82427,13.69643,32.38177990913391
1619090113.83989,13.01871,32.39739990234375
1619090113.85552,12.33851,32.41302990913391
1619090113.87115,11.68575,32.42865991592407
1619090113.88677,10.99207,32.44427990913391
1619090113.9024,10.14379,32.45990991592407
1619090113.91802,9.012161,32.47552990913391
1619090113.93365,7.53511,32.49115991592407
1619090113.94927,5.783005,32.50677990913391
1619090113.9649,3.905846,32.52240991592407
1619090113.98053,2.058449,32.53803992271423
1619090113.99615,0.2985229,32.55365991592407
1619090114.01178,-1.424896,32.56928992271423
1619090114.0274,-3.24852,32.58490991592407
1619090114.04303,-5.334839,32.60053992271423
1619090114.05865,-7.808159,32.61615991592407
1619090114.07428,-10.83295,32.63178992271423
1619090114.08991,-14.57844,32.647419929504395
1619090114.10553,-19.16479,32.66303992271423
1619090114.12116,-24.54177,32.678669929504395
1619090114.13678,-30.33044,32.69428992271423
1619090114.15241,-35.80135,32.709919929504395
1619090114.16803,-39.99657,32.72553992271423
1619090114.18366,-41.97615,32.741169929504395
1619090114.19929,-41.11373,32.756799936294556
1619090114.21491,-37.27115,32.772419929504395
1619090114.23054,-30.91434,32.788049936294556
1619090114.24616,-22.92464,32.803669929504395
1619090114.26179,-14.38976,32.819299936294556
1619090114.27741,-6.282158,32.834919929504395
1619090114.29304,0.7512741,32.850549936294556
1619090114.30867,6.539688,32.86617994308472
1619090114.32429,11.28917,32.881799936294556
1619090114.33992,15.4019,32.89742994308472
1619090114.35554,19.22954,32.913049936294556
1619090114.37117,22.84689,32.92867994308472
1619090114.38679,26.01292,32.944299936294556
1619090114.40242,28.29012,32.95992994308472
1619090114.41805,29.30067,32.97555994987488
1619090114.43367,28.91289,32.99117994308472
1619090114.4493,27.35768,33.00680994987488
1619090114.46492,25.15479,33.02242994308472
1619090114.48055,22.91985,33.03805994987488
1619090114.49617,21.14906,33.05367994308472
1619090114.5118,20.02811,33.06930994987488
1619090114.52743,19.42201,33.08493995666504
1619090114.54305,19.00546,33.10055994987488
1619090114.55868,18.42851,33.11618995666504
1619090114.5743,17.51512,33.13180994987488
1619090114.58993,16.2702,33.14743995666504
1619090114.60555,14.83359,33.16305994987488
1619090114.62118,13.30435,33.17868995666504
1619090114.63681,11.6344,33.1943199634552
1619090114.65243,9.630417,33.20993995666504
1619090114.66806,7.087845,33.2255699634552
1619090114.68368,3.92485,33.24118995666504
1619090114.69931,0.2662048,33.2568199634552
1619090114.71493,-3.59819,33.27243995666504
1619090114.73056,-7.445084,33.2880699634552
1619090114.74619,-11.25841,33.30369997024536
1619090114.76181,-15.29338,33.3193199634552
1619090114.77744,-19.8788,33.33494997024536
1619090114.79306,-25.17612,33.3505699634552
1619090114.80869,-30.8855,33.36619997024536
1619090114.82431,-36.21701,33.3818199634552
1619090114.83994,-40.11128,33.39744997024536
1619090114.85557,-41.63213,33.41307997703552
1619090114.87119,-40.34096,33.42869997024536
1619090114.88682,-36.41353,33.44432997703552
1619090114.90244,-30.55438,33.45994997024536
1619090114.91807,-23.63631,33.47557997703552
1619090114.93369,-16.41939,33.49119997024536
1619090114.94932,-9.342117,33.50682997703552
1619090114.96495,-2.564499,33.522459983825684
1619090114.98057,3.900467,33.53807997703552
1619090114.9962,10.04854,33.553709983825684
1619090115.01182,15.80466,33.56932997703552
1619090115.02745,21.01785,33.584959983825684
1619090115.04307,25.53964,33.60057997703552
1619090115.0587,29.24605,33.616209983825684
1619090115.07433,32.07069,33.631839990615845
1619090115.08995,33.98323,33.647459983825684
1619090115.10558,34.99062,33.663089990615845
1619090115.1212,35.19632,33.678709983825684
1619090115.13683,34.74477,33.694339990615845
1619090115.15245,33.81094,33.709959983825684
1619090115.16808,32.59244,33.725589990615845
1619090115.18371,31.27249,33.741219997406006
1619090115.19933,30.0099,33.756839990615845
1619090115.21496,28.88431,33.772469997406006
1619090115.23058,27.89682,33.788089990615845
1619090115.24621,26.96092,33.803719997406006
1619090115.26184,26.00046,33.81935000419617
1619090115.27746,24.96396,33.834969997406006
1619090115.29309,23.82443,33.85060000419617
1619090115.30871,22.51259,33.866219997406006
1619090115.32434,20.87497,33.88185000419617
1619090115.33996,18.68994,33.897469997406006
1619090115.35559,15.69963,33.91310000419617
1619090115.37122,11.80019,33.92873001098633
1619090115.38684,7.173828,33.94435000419617
1619090115.40247,2.474472,33.95998001098633
1619090115.41809,-1.478485,33.97560000419617
1619090115.43372,-4.152771,33.99123001098633
1619090115.44934,-5.593689,34.00685000419617
1619090115.46497,-6.528198,34.02248001098633
1619090115.4806,-8.067978,34.03811001777649
1619090115.49622,-11.18581,34.05373001098633
1619090115.51185,-16.21133,34.06936001777649
1619090115.52747,-22.65462,34.08498001098633
1619090115.5431,-28.94688,34.10061001777649
1619090115.55872,-33.24762,34.11623001098633
1619090115.57435,-34.11163,34.13186001777649
1619090115.58998,-30.95546,34.14748978614807
1619090115.6056,-24.21922,34.16311001777649
1619090115.62123,-15.06854,34.17873978614807
1619090115.63685,-4.825348,34.19436001777649
1619090115.65248,5.473099,34.20998978614807
1619090115.6681,15.26636,34.22561001777649
1619090115.68373,25.08455,34.24123978614807
1619090115.69936,35.65547,34.25686979293823
1619090115.71498,47.41937,34.27248978614807
1619090115.73061,60.23317,34.28811979293823
1619090115.74623,73.20895,34.30373978614807
1619090115.76186,85.22856,34.31936979293823
1619090115.77748,95.43816,34.33498978614807
1619090115.79311,103.6583,34.35061979293823
1619090115.80874,110.3474,34.366249799728394
1619090115.82436,117.172,34.38186979293823
1619090115.83999,125.8109,34.397499799728394
1619090115.85561,137.3212,34.41311979293823
1619090115.87124,151.9557,34.428749799728394
1619090115.88686,169.0303,34.44436979293823
1619090115.90249,187.2139,34.459999799728394
1619090115.91812,204.877,34.475629806518555
1619090115.93374,220.2368,34.491249799728394
1619090115.94937,226.2986,34.506879806518555
1619090115.96499,217.6707,34.522499799728394
1619090115.98062,192.1425,34.538129806518555
1619090115.99624,152.7588,34.553749799728394
1619090116.01187,107.7168,34.569379806518555
1619090116.0275,66.66573,34.585009813308716
1619090116.04312,36.55469,34.600629806518555
1619090116.05875,19.40816,34.616259813308716
1619090116.07437,12.7501,34.631879806518555
1619090116.09,11.78736,34.647509813308716
1619090116.10562,12.77298,34.663129806518555
1619090116.12125,14.55569,34.678759813308716
1619090116.13688,16.84203,34.69438982009888
1619090116.1525,19.99703,34.710009813308716
1619090116.16813,23.83329,34.72563982009888
1619090116.18375,27.4163,34.741259813308716
1619090116.19938,29.39004,34.75688982009888
1619090116.215,28.57349,34.772509813308716
1619090116.23063,24.34689,34.78813982009888
1619090116.24626,17.34222,34.80376982688904
1619090116.26188,8.548645,34.81938982009888
1619090116.27751,-1.488564,34.83501982688904
1619090116.29313,-11.88617,34.85063982009888
1619090116.30876,-22.56297,34.86626982688904
1619090116.32438,-33.92223,34.88188982009888
1619090116.34001,-46.38609,34.89751982688904
1619090116.35564,-60.19893,34.9131498336792
1619090116.37126,-75.48994,34.92876982688904
1619090116.38689,-92.04639,34.9443998336792
1619090116.40251,-110.011,34.96001982688904
1619090116.41814,-129.9564,34.9756498336792
1619090116.43376,-152.3387,34.99126982688904
1619090116.44939,-177.141,35.0068998336792
1619090116.46502,-203.2045,35.02252984046936
1619090116.48064,-227.9988,35.0381498336792
1619090116.49627,-248.5566,35.05377984046936
1619090116.51189,-262.3145,35.0693998336792
1619090116.52752,-267.7376,35.08502984046936
1619090116.54314,-265.1027,35.1006498336792
1619090116.55877,-256.0869,35.11627984046936
1619090116.5744,-242.8188,35.13190984725952
1619090116.59002,-227.2391,35.14752984046936
1619090116.60565,-210.6313,35.16315984725952
1619090116.62127,-193.4441,35.17877984046936
1619090116.6369,-176.2356,35.19440984725952
1619090116.65252,-159.5788,35.21002984046936
1619090116.66815,-143.8354,35.22565984725952
1619090116.68378,-129.5799,35.24128985404968
1619090116.6994,-117.3514,35.25690984725952
1619090116.71503,-107.3291,35.27253985404968
1619090116.73065,-99.19299,35.28815984725952
1619090116.74628,-91.73093,35.30378985404968
1619090116.7619,-82.30991,35.31940984725952
1619090116.77753,-68.35596,35.33503985404968
1619090116.79316,-47.94275,35.350669860839844
1619090116.80878,-20.72931,35.36628985404968
1619090116.82441,10.56699,35.381919860839844
1619090116.84003,40.61133,35.39753985404968
1619090116.85566,63.30392,35.413169860839844
1619090116.87128,73.94594,35.42878985404968
1619090116.88691,70.91502,35.444419860839844
1619090116.90254,56.60165,35.460049867630005
1619090116.91816,34.9324,35.475669860839844
1619090116.93379,10.29004,35.491299867630005
1619090116.94941,-9.629959,35.506919860839844
1619090116.96504,-18.80716,35.522549867630005
1619090116.98066,-14.44128,35.538169860839844
1619090116.99629,2.111557,35.553799867630005
1619090117.01192,26.02431,35.569429874420166
1619090117.02754,47.22276,35.585049867630005
1619090117.04317,62.26549,35.600679874420166
1619090117.05879,70.2717,35.616299867630005
1619090117.07442,71.37059,35.631929874420166
1619090117.09004,66.19324,35.647549867630005
1619090117.10567,56.58131,35.663179874420166
1619090117.1213,43.85135,35.67880988121033
1619090117.13692,29.47861,35.694429874420166
1619090117.15255,15.17982,35.71005988121033
1619090117.16817,2.670837,35.725679874420166
1619090117.1838,-6.08197,35.74130988121033
1619090117.19942,-10.64333,35.756929874420166
1619090117.21505,-11.65082,35.77255988121033
1619090117.23068,-10.30602,35.78818988800049
1619090117.2463,-8.380417,35.80380988121033
1619090117.26193,-7.593567,35.81943988800049
1619090117.27755,-8.854111,35.83505988121033
1619090117.29318,-12.0188,35.85068988800049
1619090117.3088,-16.17091,35.86630988121033
1619090117.32443,-19.72299,35.88193988800049
1619090117.34006,-22.08273,35.89756989479065
1619090117.35568,-23.51312,35.91318988800049
1619090117.37131,-24.67138,35.92881989479065
1619090117.38693,-26.43723,35.94443988800049
1619090117.40256,-29.3991,35.96006989479065
1619090117.41818,-33.32961,35.97568988800049
1619090117.43381,-37.18021,35.99131989479065
1619090117.44944,-39.50035,36.00694990158081
1619090117.46506,-38.75986,36.02256989479065
1619090117.48069,-34.62023,36.03819990158081
1619090117.49631,-27.78889,36.05381989479065
1619090117.51194,-19.57394,36.06944990158081
1619090117.52757,-11.46273,36.08507990837097
1619090117.54319,-4.645733,36.10069990158081
1619090117.55882,0.4904633,36.11632990837097
1619090117.57444,4.294399,36.13194990158081
1619090117.59007,7.521599,36.14757990837097
1619090117.60569,11.08239,36.16319990158081
1619090117.62132,15.31736,36.17882990837097
1619090117.63695,20.05012,36.19445991516113
1619090117.65257,24.81078,36.21007990837097
1619090117.6682,29.06281,36.22570991516113
1619090117.68382,32.38706,36.24132990837097
1619090117.69945,34.62829,36.25695991516113
1619090117.71507,35.84906,36.27257990837097
1619090117.7307,36.1698,36.28820991516113
1619090117.74633,35.77516,36.303839921951294
1619090117.76195,34.76225,36.31945991516113
1619090117.77758,33.22352,36.335089921951294
1619090117.7932,31.34048,36.35070991516113
1619090117.80883,29.34707,36.366339921951294
1619090117.82445,27.46793,36.38195991516113
1619090117.84008,25.88316,36.397589921951294
1619090117.85571,24.64476,36.413219928741455
1619090117.87133,23.71671,36.428839921951294
1619090117.88696,22.96922,36.444469928741455
1619090117.90258,22.20838,36.460089921951294
1619090117.91821,21.20386,36.475719928741455
1619090117.93383,19.75445,36.491339921951294
1619090117.94946,17.79083,36.506969928741455
1619090117.96509,15.41758,36.522599935531616
1619090117.98071,12.96361,36.538219928741455
1619090117.99634,10.82851,36.553849935531616
1619090118.01196,9.349106,36.569469928741455
1619090118.02759,8.615608,36.585099935531616
1619090118.04321,8.378403,36.600719928741455
1619090118.05884,8.153839,36.616349935531616
1619090118.07447,7.448326,36.63197994232178
1619090118.09009,5.931763,36.647599935531616
1619090118.10572,3.578743,36.66322994232178
1619090118.12134,0.5930862,36.678849935531616
1619090118.13697,-2.66774,36.69447994232178
1619090118.15259,-5.858269,36.710099935531616
1619090118.16822,-8.665863,36.72572994232178
1619090118.18385,-10.75954,36.74135994911194
1619090118.19947,-11.75039,36.75697994232178
1619090118.2151,-11.17962,36.77260994911194
1619090118.23072,-8.688644,36.78822994232178
1619090118.24635,-4.204498,36.80385994911194
1619090118.26197,1.896057,36.81947994232178
1619090118.2776,8.809158,36.83510994911194
1619090118.29323,15.56667,36.8507399559021
1619090118.30885,21.32056,36.86635994911194
1619090118.32448,25.66264,36.8819899559021
1619090118.3401,28.67111,36.89760994911194
1619090118.35573,30.70851,36.9132399559021
1619090118.37135,32.17097,36.92885994911194
1619090118.38698,33.23949,36.9444899559021
1619090118.40261,33.81432,36.96011996269226
1619090118.41823,33.70357,36.9757399559021
1619090118.43386,32.819,36.99136996269226
1619090118.44948,31.36118,37.0069899559021
1619090118.46511,29.79485,37.02261996269226
1619090118.48073,28.65771,37.0382399559021
1619090118.49636,28.29564,37.05386996269226
1619090118.51199,28.66277,37.06949996948242
1619090118.52761,29.38567,37.08511996269226
1619090118.54324,29.96147,37.10074996948242
1619090118.55886,30.04515,37.11636996269226
1619090118.57449,29.58321,37.13199996948242
1619090118.59011,28.78589,37.14761996269226
1619090118.60574,27.92525,37.16324996948242
1619090118.62137,27.12949,37.17887997627258
1619090118.63699,26.29752,37.19449996948242
1619090118.65262,25.16656,37.21012997627258
1619090118.66824,23.52042,37.22574996948242
1619090118.68387,21.34888,37.24137997627258
1619090118.69949,18.92365,37.25699996948242
1619090118.71512,16.61887,37.27262997627258
1619090118.73075,14.7571,37.288259983062744
1619090118.74637,13.40654,37.30387997627258
1619090118.762,12.37686,37.319509983062744
1619090118.77762,11.31728,37.33512997627258
1619090118.79325,9.884521,37.350759983062744
1619090118.80887,7.911316,37.36637997627258
1619090118.8245,5.44252,37.382009983062744
1619090118.84013,2.763428,37.397639989852905
1619090118.85575,0.2003479,37.413259983062744
1619090118.87138,-1.95076,37.428889989852905
1619090118.887,-3.58696,37.444509983062744
1619090118.90263,-4.83989,37.460139989852905
1619090118.91825,-5.976624,37.475759983062744
1619090118.93388,-7.270432,37.491389989852905
1619090118.94951,-8.86763,37.507019996643066
1619090118.96513,-10.77281,37.522639989852905
1619090118.98076,-12.87862,37.538269996643066
1619090118.99638,-15.08897,37.553889989852905
1619090119.01201,-17.34808,37.569519996643066
1619090119.02763,-19.67931,37.585139989852905
1619090119.04326,-22.1498,37.600769996643066
1619090119.05889,-24.84953,37.61640000343323
1619090119.07451,-27.90225,37.632019996643066
1619090119.09014,-31.41927,37.64765000343323
1619090119.10576,-35.46654,37.663269996643066
1619090119.12139,-39.88831,37.67890000343323
1619090119.13701,-44.26149,37.694519996643066
1619090119.15264,-47.89543,37.71015000343323
1619090119.16827,-49.96298,37.72578001022339
1619090119.18389,-49.82292,37.74140000343323
1619090119.19952,-47.18053,37.75703001022339
1619090119.21514,-42.22963,37.77265000343323
1619090119.23077,-35.55486,37.78828001022339
1619090119.24639,-27.95697,37.80390000343323
1619090119.26202,-20.23854,37.81953001022339
1619090119.27765,-13.05562,37.83516001701355
1619090119.29327,-6.795837,37.85078001022339
1619090119.3089,-1.598511,37.86641001701355
1619090119.32452,2.660889,37.88203001022339
1619090119.34015,6.26178,37.89766001701355
1619090119.35577,9.471405,37.91328001022339
1619090119.3714,12.45937,37.92891001701355
1619090119.38703,15.20691,37.94453978538513
1619090119.40265,17.57257,37.96016001701355
1619090119.41828,19.39243,37.97578978538513
1619090119.4339,20.60005,37.99141001701355
1619090119.44953,21.28667,38.00703978538513
1619090119.46515,21.63654,38.02266001701355
1619090119.48078,21.85522,38.03828978538513
1619090119.49641,22.07845,38.05391979217529
1619090119.51203,22.33325,38.06953978538513
1619090119.52766,22.5795,38.08516979217529
1619090119.54328,22.69608,38.10078978538513
1619090119.55891,22.53969,38.11641979217529
1619090119.57453,21.95351,38.13203978538513
1619090119.59016,20.82324,38.14766979217529
1619090119.60579,19.1472,38.163299798965454
1619090119.62141,17.05765,38.17891979217529
1619090119.63704,14.75078,38.194549798965454
1619090119.65266,12.42232,38.21016979217529
1619090119.66829,10.17249,38.225799798965454
1619090119.68391,7.958786,38.24141979217529
1619090119.69954,5.658142,38.257049798965454
1619090119.71517,3.152771,38.272679805755615
1619090119.73079,0.39151,38.288299798965454
1619090119.74642,-2.577927,38.303929805755615
1619090119.76204,-5.667007,38.319549798965454
1619090119.77767,-8.811157,38.335179805755615
1619090119.79329,-11.97911,38.350799798965454
1619090119.80892,-15.22385,38.366429805755615
1619090119.82455,-18.64537,38.382059812545776
1619090119.84017,-22.39246,38.397679805755615
1619090119.8558,-26.58112,38.413309812545776
1619090119.87142,-31.1682,38.428929805755615
1619090119.88705,-35.82672,38.444559812545776
1619090119.90267,-39.92484,38.460179805755615
1619090119.9183,-42.62111,38.475809812545776
1619090119.93393,-43.15054,38.49143981933594
1619090119.94955,-41.12216,38.507059812545776
1619090119.96518,-36.68399,38.52268981933594
1619090119.9808,-30.48384,38.538309812545776
1619090119.99643,-23.35425,38.55393981933594
1619090120.01205,-16.05905,38.569559812545776
1619090120.02768,-9.036346,38.58518981933594
1619090120.04331,-2.456482,38.6008198261261
1619090120.05893,3.67984,38.61643981933594
1619090120.07456,9.366913,38.6320698261261
1619090120.09018,14.55035,38.64768981933594
1619090120.10581,19.1806,38.6633198261261
1619090120.12144,23.27145,38.67894983291626
1619090120.13706,26.85001,38.6945698261261
1619090120.15269,29.88022,38.71019983291626
1619090120.16831,32.18329,38.7258198261261
1619090120.18394,33.5007,38.74144983291626
1619090120.19956,33.69366,38.7570698261261
1619090120.21519,32.88724,38.77269983291626
1619090120.23082,31.52118,38.78832983970642
1619090120.24644,30.15317,38.80394983291626
1619090120.26207,29.22351,38.81957983970642
1619090120.27769,28.79688,38.83519983291626
1619090120.29332,28.59464,38.85082983970642
1619090120.30894,28.20068,38.86644983291626
1619090120.32457,27.35507,38.88207983970642
1619090120.3402,26.0788,38.89770984649658
1619090120.35582,24.60571,38.91332983970642
1619090120.37145,23.14172,38.92895984649658
1619090120.38707,21.67404,38.94457983970642
1619090120.4027,19.94644,38.96020984649658
1619090120.41832,17.64243,38.97582983970642
1619090120.43395,14.5816,38.99145984649658
1619090120.44958,10.85257,39.00708985328674
1619090120.4652,6.803589,39.02270984649658
1619090120.48083,2.839386,39.03833985328674
1619090120.49645,-0.7309875,39.05395984649658
1619090120.51208,-3.824097,39.06958985328674
1619090120.5277,-6.552521,39.08520984649658
1619090120.54333,-9.117279,39.10083985328674
1619090120.55896,-11.71783,39.116469860076904
1619090120.57458,-14.49088,39.13208985328674
1619090120.59021,-17.54666,39.147719860076904
1619090120.60583,-21.0444,39.16333985328674
1619090120.62146,-25.16431,39.178969860076904
1619090120.63708,-30.03952,39.19458985328674
1619090120.65271,-35.55542,39.210219860076904
1619090120.66834,-41.23688,39.225849866867065
1619090120.68396,-46.23575,39.241469860076904
1619090120.69959,-49.48523,39.257099866867065
1619090120.71521,-50.04776,39.272719860076904
1619090120.73084,-47.40033,39.288349866867065
1619090120.74646,-41.64069,39.303969860076904
1619090120.76209,-33.44489,39.319599866867065
1619090120.77772,-23.86118,39.33522987365723
1619090120.79334,-14.02039,39.350849866867065
1619090120.80897,-4.876312,39.36647987365723
1619090120.82459,2.94693,39.382099866867065
1619090120.84022,9.220459,39.39772987365723
1619090120.85584,14.0535,39.413349866867065
1619090120.87147,17.73999,39.42897987365723
1619090120.8871,20.6449,39.44460988044739
1619090120.90272,23.03107,39.46022987365723
1619090120.91835,25.01825,39.47585988044739
1619090120.93397,26.60419,39.49147987365723
1619090120.9496,27.73932,39.50710988044739
1619090120.96522,28.43555,39.52272987365723
1619090120.98085,28.81192,39.53835988044739
1619090120.99648,29.05872,39.55398988723755
1619090121.0121,29.34525,39.56960988044739
1619090121.02773,29.71652,39.58523988723755
1619090121.04335,30.0726,39.60085988044739
1619090121.05898,30.26984,39.61648988723755
1619090121.0746,30.19,39.63210988044739
1619090121.09023,29.88199,39.64773988723755
1619090121.10586,29.47089,39.66336989402771
1619090121.12148,29.12042,39.67898988723755
1619090121.13711,28.86386,39.69461989402771
1619090121.15273,28.58316,39.71023988723755
1619090121.16836,28.00562,39.72586989402771
1619090121.18398,26.83847,39.74148988723755
1619090121.19961,24.93869,39.75711989402771
1619090121.21524,22.37845,39.77274990081787
1619090121.23086,19.39453,39.78836989402771
1619090121.24649,16.26633,39.80399990081787
1619090121.26211,13.14352,39.81961989402771
1619090121.27774,9.999084,39.83524990081787
1619090121.29336,6.712494,39.85086989402771
1619090121.30899,3.183746,39.86649990081787
1619090121.32462,-0.5375061,39.88212990760803
1619090121.34024,-4.267059,39.89774990081787
1619090121.35587,-7.808868,39.91337990760803
1619090121.37149,-11.10016,39.92899990081787
1619090121.38712,-14.30325,39.94462990760803
1619090121.40274,-17.77701,39.96024990081787
1619090121.41837,-21.95242,39.97587990760803
1619090121.434,-27.07034,39.99150991439819
1619090121.44962,-33.03842,40.00712990760803
1619090121.46525,-39.3432,40.02275991439819
1619090121.48087,-45.13538,40.03837990760803
1619090121.4965,-49.43945,40.05400991439819
1619090121.51212,-51.33054,40.06962990760803
1619090121.52775,-50.23352,40.08525991439819
1619090121.54338,-46.06735,40.100889921188354
1619090121.559,-39.32175,40.11650991439819
1619090121.57463,-30.90408,40.132139921188354
1619090121.59025,-21.88565,40.14775991439819
1619090121.60588,-13.20969,40.163389921188354
1619090121.6215,-5.465027,40.17900991439819
1619090121.63713,1.149506,40.194639921188354
1619090121.65276,6.776306,40.210269927978516
1619090121.66838,11.70346,40.225889921188354
1619090121.68401,16.19879,40.241519927978516
1619090121.69963,20.41263,40.257139921188354
1619090121.71526,24.38882,40.272769927978516
1619090121.73088,28.03452,40.288389921188354
1619090121.74651,31.21063,40.304019927978516
1619090121.76214,33.75034,40.31964993476868
1619090121.77776,35.51413,40.335269927978516
1619090121.79339,36.5314,40.35089993476868
1619090121.80901,36.94998,40.366519927978516
1619090121.82464,37.00357,40.38214993476868
1619090121.84026,36.91763,40.397769927978516
1619090121.85589,36.82211,40.41339993476868
1619090121.87152,36.7594,40.42902994155884
1619090121.88714,36.7207,40.44464993476868
1619090121.90277,36.69983,40.46027994155884
1619090121.91839,36.67072,40.47589993476868
1619090121.93402,36.78223,40.49152994155884
1619090121.94964,37.05441,40.50714993476868
1619090121.96527,37.32959,40.52277994155884
1619090121.9809,37.30765,40.538409948349
1619090121.99652,36.66153,40.55402994155884
1619090122.01215,35.21912,40.569659948349
1619090122.02777,33.02921,40.58527994155884
1619090122.0434,30.31763,40.600909948349
1619090122.05902,27.29379,40.61652994155884
1619090122.07465,24.59531,40.632159948349
1619090122.09028,22.77841,40.64778995513916
1619090122.1059,22.14734,40.663409948349
1619090122.12153,22.60483,40.67903995513916
1619090122.13715,23.6214,40.694659948349
1619090122.15278,24.4379,40.71028995513916
1619090122.1684,24.4209,40.725909948349
1619090122.18403,23.24344,40.74153995513916
1619090122.19966,20.96442,40.75716996192932
1619090122.21528,18.66953,40.77278995513916
1619090122.23091,17.38184,40.78841996192932
1619090122.24653,17.6459,40.80403995513916
1619090122.26216,19.19049,40.81966996192932
1619090122.27778,21.2048,40.83528995513916
1619090122.29341,23.01282,40.85091996192932
1619090122.30904,24.73344,40.86654996871948
1619090122.32466,27.3452,40.88216996192932
1619090122.34029,32.27951,40.89779996871948
1619090122.35591,41.8035,40.91341996192932
1619090122.37154,57.46648,40.92904996871948
1619090122.38717,79.69627,40.944679975509644
1619090122.40279,107.5443,40.96029996871948
1619090122.41842,138.8322,40.975929975509644
1619090122.43404,170.6947,40.99154996871948
1619090122.44967,200.1668,41.007179975509644
1619090122.46529,224.5549,41.02279996871948
1619090122.48092,235.6065,41.038429975509644
1619090122.49655,227.5136,41.054059982299805
1619090122.51217,198.4703,41.069679975509644
1619090122.5278,152.7907,41.085309982299805
1619090122.54342,99.55164,41.100929975509644
1619090122.55905,48.45682,41.116559982299805
1619090122.57467,6.035698,41.132179975509644
1619090122.5903,-25.45529,41.147809982299805
1619090122.60593,-46.96955,41.163439989089966
1619090122.62155,-60.80701,41.179059982299805
1619090122.63718,-68.29814,41.194689989089966
1619090122.6528,-70.73052,41.210309982299805
1619090122.66843,-69.35252,41.225939989089966
1619090122.68405,-65.95708,41.241559982299805
1619090122.69968,-62.81786,41.257189989089966
1619090122.71531,-62.12243,41.27281999588013
1619090122.73093,-65.00782,41.288439989089966
1619090122.74656,-71.31058,41.30406999588013
1619090122.76218,-80.00668,41.319689989089966
1619090122.77781,-89.05209,41.33531999588013
1619090122.79343,-97.26585,41.350939989089966
1619090122.80906,-104.4184,41.36656999588013
1619090122.82469,-111.603,41.38220000267029
1619090122.84031,-120.9542,41.39781999588013
1619090122.85594,-134.7626,41.41345000267029
1619090122.87156,-154.3705,41.42906999588013
1619090122.88719,-179.5283,41.44470000267029
1619090122.90281,-208.4197,41.46031999588013
1619090122.91844,-234.5068,41.47595000267029
1619090122.93407,-252.3192,41.49158000946045
1619090122.94969,-258.2039,41.50720000267029
1619090122.96532,-251.5118,41.52283000946045
1619090122.98094,-234.5866,41.53845000267029
1619090122.99657,-211.6663,41.55408000946045
1619090123.01219,-187.155,41.56970000267029
1619090123.02782,-164.2308,41.58533000946045
1619090123.04345,-144.1284,41.60096001625061
1619090123.05907,-126.2845,41.61658000946045
1619090123.0747,-109.7428,41.63221001625061
1619090123.09032,-93.25286,41.64783000946045
1619090123.10595,-75.63353,41.66346001625061
1619090123.12157,-55.82655,41.67908000946045
1619090123.1372,-32.9472,41.69471001625061
1619090123.15283,-6.583839,41.71033978462219
1619090123.16845,22.79696,41.72596001625061
1619090123.18408,53.77125,41.74158978462219
1619090123.1997,83.96481,41.75721001625061
1619090123.21533,110.2216,41.77283978462219
1619090123.23095,129.7545,41.78846001625061
1619090123.24658,140.9311,41.80408978462219
1619090123.26221,143.5966,41.81971979141235
1619090123.27783,138.9619,41.83533978462219
1619090123.29346,129.0279,41.85096979141235
1619090123.30908,115.1562,41.86658978462219
1619090123.32471,99.51645,41.88221979141235
1619090123.34033,84.57935,41.89783978462219
1619090123.35596,72.19708,41.91346979141235
1619090123.37159,63.11117,41.929099798202515
1619090123.38721,56.51436,41.94471979141235
1619090123.40284,50.42342,41.960349798202515
1619090123.41846,42.99174,41.97596979141235
1619090123.43409,33.06666,41.991599798202515
1619090123.44971,20.47198,42.00721979141235
1619090123.46534,6.474415,42.022849798202515
1619090123.48097,-7.198162,42.038479804992676
1619090123.49659,-19.06501,42.054099798202515
1619090123.51222,-28.21545,42.069729804992676
1619090123.52784,-34.52276,42.085349798202515
1619090123.54347,-38.48395,42.100979804992676
1619090123.55909,-40.82637,42.116599798202515
1619090123.57472,-42.28154,42.132229804992676
1619090123.59035,-43.27703,42.14785981178284
1619090123.60597,-43.78189,42.163479804992676
1619090123.6216,-43.70821,42.17910981178284
1619090123.63722,-43.10878,42.194729804992676
1619090123.65285,-42.20621,42.21035981178284
1619090123.66847,-41.33094,42.225979804992676
1619090123.6841,-40.72964,42.24160981178284
1619090123.69973,-40.48258,42.257239818573
1619090123.71535,-40.54557,42.27285981178284
1619090123.73098,-40.89163,42.288489818573
1619090123.7466,-41.48035,42.30410981178284
1619090123.76223,-42.44035,42.319739818573
1619090123.77785,-43.87937,42.33535981178284
1619090123.79348,-45.63842,42.350989818573
1619090123.80911,-47.12769,42.36661982536316
1619090123.82473,-47.43306,42.382239818573
1619090123.84036,-45.65221,42.39786982536316
1619090123.85598,-41.30217,42.413489818573
1619090123.87161,-34.53669,42.42911982536316
1619090123.88723,-26.05267,42.444739818573
1619090123.90286,-16.85192,42.46036982536316
1619090123.91849,-7.963964,42.47599983215332
1619090123.93411,-0.1498022,42.49161982536316
1619090123.94974,6.190917,42.50724983215332
1619090123.96536,11.0869,42.52286982536316
1619090123.98099,14.85891,42.53849983215332
1619090123.99661,17.95206,42.55411982536316
1619090124.01224,20.77525,42.56974983215332
1619090124.02787,23.58533,42.58537983894348
1619090124.04349,26.3359,42.60099983215332
1619090124.05912,28.76742,42.61662983894348
1619090124.07474,30.52247,42.63224983215332
1619090124.09037,31.36221,42.64787983894348
1619090124.10599,31.29623,42.66349983215332
1619090124.12162,30.57597,42.67912983894348
1619090124.13725,29.55447,42.69475984573364
1619090124.15287,28.56048,42.71037983894348
1619090124.1685,27.7756,42.72600984573364
1619090124.18412,27.27283,42.74162983894348
1619090124.19975,27.06863,42.75725984573364
1619090124.21537,27.14308,42.77287983894348
1619090124.231,27.41188,42.78850984573364
1619090124.24663,27.73697,42.804139852523804
1619090124.26225,27.89719,42.81975984573364
1619090124.27788,27.62003,42.835389852523804
1619090124.2935,26.73565,42.85100984573364
1619090124.30913,25.20952,42.866639852523804
1619090124.32475,23.168,42.88225984573364
1619090124.34038,20.83381,42.897889852523804
1619090124.35601,18.41996,42.913519859313965
1619090124.37163,16.06919,42.929139852523804
1619090124.38726,13.78465,42.944769859313965
1619090124.40288,11.55295,42.960389852523804
1619090124.41851,9.372448,42.976019859313965
1619090124.43413,7.32452,42.991639852523804
1619090124.44976,5.487766,43.007269859313965
1619090124.46539,3.889946,43.022899866104126
1619090124.48101,2.43803,43.038519859313965
1619090124.49664,0.927887,43.054149866104126
1619090124.51226,-0.8766289,43.069769859313965
1619090124.52789,-3.112411,43.085399866104126
1619090124.54351,-5.746002,43.101019859313965
1619090124.55914,-8.571381,43.116649866104126
1619090124.57477,-11.30112,43.13227987289429
1619090124.59039,-13.71601,43.147899866104126
1619090124.60602,-15.77499,43.16352987289429
1619090124.62164,-17.60387,43.179149866104126
1619090124.63727,-19.43741,43.19477987289429
1619090124.65289,-21.47207,43.210399866104126
1619090124.66852,-23.83431,43.22602987289429
1619090124.68415,-26.605,43.24165987968445
1619090124.69977,-29.83814,43.25727987289429
1619090124.7154,-33.58048,43.27290987968445
1619090124.73102,-37.80816,43.28852987289429
1619090124.74665,-42.29359,43.30415987968445
1619090124.76227,-46.48101,43.31977987289429
1619090124.7779,-49.53971,43.33540987968445
1619090124.79353,-50.52807,43.35103988647461
1619090124.80915,-48.73083,43.36665987968445
1619090124.82478,-43.97555,43.38228988647461
1619090124.8404,-36.70348,43.39790987968445
1619090124.85603,-27.87146,43.41353988647461
1619090124.87165,-18.67558,43.42915987968445
1619090124.88728,-10.15688,43.44478988647461
1619090124.90291,-2.9561,43.46041989326477
1619090124.91853,2.750488,43.47603988647461
1619090124.93416,7.196045,43.49166989326477
1619090124.94978,10.80198,43.50728988647461
1619090124.96541,13.9923,43.52291989326477
1619090124.98103,17.06406,43.53853988647461
1619090124.99666,20.09602,43.55416989326477
1619090125.01229,22.95876,43.56979990005493
1619090125.02791,25.39891,43.58541989326477
1619090125.04354,27.18576,43.60104990005493
1619090125.05916,28.17171,43.61666989326477
1619090125.07479,28.44875,43.63229990005493
1619090125.09042,28.26683,43.64792990684509
1619090125.10604,27.93356,43.66354990005493
1619090125.12167,27.71326,43.67917990684509
1619090125.13729,27.71782,43.69479990005493
1619090125.15292,27.91721,43.71042990684509
1619090125.16854,28.211,43.72604990005493
1619090125.18417,28.49986,43.74167990684509
1619090125.1998,28.67247,43.757309913635254
1619090125.21542,28.64813,43.77292990684509
1619090125.23105,28.32942,43.788559913635254
1619090125.24667,27.64844,43.80417990684509
1619090125.2623,26.56708,43.819809913635254
1619090125.27792,25.12996,43.83542990684509
1619090125.29355,23.44821,43.851059913635254
1619090125.30918,21.6474,43.866689920425415
1619090125.3248,19.81396,43.882309913635254
1619090125.34043,17.9498,43.897939920425415
1619090125.35605,16.05154,43.913559913635254
1619090125.37168,14.11234,43.929189920425415
1619090125.3873,12.1772,43.944809913635254
1619090125.40293,10.32431,43.960439920425415
1619090125.41856,8.600266,43.976069927215576
1619090125.43418,6.991486,43.991689920425415
1619090125.44981,5.396774,44.007319927215576
1619090125.46543,3.672882,44.022939920425415
1619090125.48106,1.703796,44.038569927215576
1619090125.49668,-0.5596008,44.054189920425415
1619090125.51231,-3.11731,44.069819927215576
1619090125.52794,-5.915024,44.08544993400574
1619090125.54356,-8.853943,44.101069927215576
1619090125.55919,-11.86047,44.11669993400574
1619090125.57481,-14.87416,44.132319927215576
1619090125.59044,-17.88676,44.14794993400574
1619090125.60606,-21.0054,44.163569927215576
1619090125.62169,-24.41454,44.17919993400574
1619090125.63732,-28.3165,44.1948299407959
1619090125.65294,-32.79504,44.21044993400574
1619090125.66857,-37.68263,44.2260799407959
1619090125.68419,-42.46596,44.24169993400574
1619090125.69982,-46.35088,44.2573299407959
1619090125.71544,-48.4203,44.27294993400574
1619090125.73107,-47.90303,44.2885799407959
1619090125.7467,-44.44183,44.30420994758606
1619090125.76232,-38.28004,44.3198299407959
1619090125.77795,-30.15781,44.33545994758606
1619090125.79357,-21.13033,44.3510799407959
1619090125.8092,-12.27228,44.36670994758606
1619090125.82482,-4.359436,44.3823299407959
1619090125.84045,2.22525,44.39795994758606
1619090125.85608,7.500793,44.41358995437622
1619090125.8717,11.77747,44.42920994758606
1619090125.88733,15.44958,44.44483995437622
1619090125.90295,18.82321,44.46045994758606
1619090125.91858,22.00821,44.47608995437622
1619090125.9342,24.91969,44.49170994758606
1619090125.94983,27.35519,44.50733995437622
1619090125.96546,29.08046,44.52296996116638
1619090125.98108,29.96729,44.53858995437622
1619090125.99671,30.03828,44.55421996116638
1619090126.01233,29.53223,44.56983995437622
1619090126.02796,28.82594,44.58546996116638
1619090126.04358,28.32698,44.60108995437622
1619090126.05921,28.29988,44.61671996116638
1619090126.07484,28.76071,44.63234996795654
1619090126.09046,29.46611,44.64796996116638
1619090126.10609,30.04117,44.66359996795654
1619090126.12171,30.179,44.67921996116638
1619090126.13734,29.73257,44.69484996795654
1619090126.15296,28.76346,44.71046996116638
1619090126.16859,27.41772,44.72609996795654
1619090126.18422,25.82732,44.741729974746704
1619090126.19984,24.03455,44.75734996795654
1619090126.21547,21.9948,44.772979974746704
1619090126.23109,19.7455,44.78859996795654
1619090126.24672,17.45627,44.804229974746704
1619090126.26234,15.38887,44.81984996795654
1619090126.27797,13.76428,44.835479974746704
1619090126.2936,12.58737,44.851109981536865
1619090126.30922,11.56409,44.866729974746704
1619090126.32485,10.23874,44.882359981536865
1619090126.34047,8.192062,44.897979974746704
1619090126.3561,5.264999,44.913609981536865
1619090126.37172,1.676117,44.929229974746704
