timestamp,value,norm_ts
1618159805.239,2.080833,5.046780109405518
1618159805.25462,0.297554,5.0624001026153564
1618159805.27025,-1.623833,5.078030109405518
1618159805.28587,-3.840965,5.0936501026153564
1618159805.3015,-6.53965,5.109280109405518
1618159805.31713,-9.801926,5.124910116195679
1618159805.33275,-13.64099,5.140530109405518
1618159805.34838,-17.9942,5.156160116195679
1618159805.364,-22.76324,5.171780109405518
1618159805.37963,-27.71122,5.187410116195679
1618159805.39525,-32.28568,5.203030109405518
1618159805.41088,-35.63097,5.218660116195679
1618159805.42651,-36.6979,5.23429012298584
1618159805.44213,-34.60089,5.249910116195679
1618159805.45776,-28.9841,5.26554012298584
1618159805.47338,-20.26726,5.281160116195679
1618159805.48901,-9.569374,5.29679012298584
1618159805.50463,1.607094,5.312410116195679
1618159805.52026,11.8088,5.32804012298584
1618159805.53589,20.06743,5.343670129776001
1618159805.55151,25.96134,5.35929012298584
1618159805.56714,29.56094,5.374920129776001
1618159805.58276,31.20985,5.39054012298584
1618159805.59839,31.26309,5.406170129776001
1618159805.61401,29.95741,5.42179012298584
1618159805.62964,27.45204,5.437420129776001
1618159805.64527,23.92232,5.453050136566162
1618159805.66089,19.66835,5.468670129776001
1618159805.67652,15.19273,5.484300136566162
1618159805.69214,11.05943,5.499920129776001
1618159805.70777,7.7743,5.515550136566162
1618159805.72339,5.644913,5.531170129776001
1618159805.73902,4.724464,5.546800136566162
1618159805.75465,4.838188,5.562430143356323
1618159805.77027,5.68335,5.578050136566162
1618159805.7859,6.859344,5.593680143356323
1618159805.80152,7.90966,5.609300136566162
1618159805.81715,8.388985,5.624930143356323
1618159805.83277,7.909958,5.640550136566162
1618159805.8484,6.271469,5.656180143356323
1618159805.86403,3.574806,5.671809911727905
1618159805.87965,0.1593323,5.687430143356323
1618159805.89528,-3.489319,5.703059911727905
1618159805.9109,-6.90918,5.718680143356323
1618159805.92653,-9.860634,5.734309911727905
1618159805.94215,-12.37068,5.749930143356323
1618159805.95778,-14.66331,5.765559911727905
1618159805.97341,-17.04737,5.781189918518066
1618159805.98903,-19.85761,5.796809911727905
1618159806.00466,-23.30639,5.812439918518066
1618159806.02028,-27.43466,5.828059911727905
1618159806.03591,-31.91706,5.843689918518066
1618159806.05153,-36.03098,5.859309911727905
1618159806.06716,-38.66338,5.874939918518066
1618159806.08279,-38.60123,5.8905699253082275
1618159806.09841,-34.95078,5.906189918518066
1618159806.11404,-27.47575,5.9218199253082275
1618159806.12966,-16.86023,5.937439918518066
1618159806.14529,-4.549187,5.9530699253082275
1618159806.16091,7.57415,5.968689918518066
1618159806.17654,17.82011,5.9843199253082275
1618159806.19217,25.09595,5.999949932098389
1618159806.20779,29.1501,6.0155699253082275
1618159806.22342,30.4131,6.031199932098389
1618159806.23904,29.66358,6.0468199253082275
1618159806.25467,27.65731,6.062449932098389
1618159806.27029,24.84804,6.0780699253082275
1618159806.28592,21.45007,6.093699932098389
1618159806.30155,17.48891,6.10932993888855
1618159806.31717,13.11439,6.124949932098389
1618159806.3328,8.650085,6.14057993888855
1618159806.34842,4.584061,6.156199932098389
1618159806.36405,1.431229,6.17182993888855
1618159806.37967,-0.4710083,6.187449932098389
1618159806.3953,-1.087852,6.20307993888855
1618159806.41093,-0.7159271,6.218709945678711
1618159806.42655,0.1654892,6.23432993888855
1618159806.44218,0.9524307,6.249959945678711
1618159806.4578,1.142296,6.26557993888855
1618159806.47343,0.4693451,6.281209945678711
1618159806.48905,-1.074615,6.29682993888855
1618159806.50468,-3.136002,6.312459945678711
1618159806.52031,-5.138199,6.328089952468872
1618159806.53593,-6.499847,6.343709945678711
1618159806.55156,-6.854538,6.359339952468872
1618159806.56718,-6.203918,6.374959945678711
1618159806.58281,-4.996208,6.390589952468872
1618159806.59843,-3.99588,6.406209945678711
1618159806.61406,-4.023788,6.421839952468872
1618159806.62969,-5.754894,6.437469959259033
1618159806.64531,-9.338104,6.453089952468872
1618159806.66094,-14.29667,6.468719959259033
1618159806.67656,-19.55663,6.484339952468872
1618159806.69219,-23.72336,6.499969959259033
1618159806.70781,-25.4048,6.515589952468872
1618159806.72344,-23.73528,6.531219959259033
1618159806.73907,-18.66312,6.546849966049194
1618159806.75469,-10.91624,6.562469959259033
1618159806.77032,-1.881008,6.578099966049194
1618159806.78594,6.954796,6.593719959259033
1618159806.80157,14.36428,6.609349966049194
1618159806.81719,19.63734,6.624969959259033
1618159806.83282,22.54464,6.640599966049194
1618159806.84845,23.23694,6.6562299728393555
1618159806.86407,22.07363,6.671849966049194
1618159806.8797,19.51516,6.6874799728393555
1618159806.89532,16.10423,6.703099966049194
1618159806.91095,12.33064,6.7187299728393555
1618159806.92657,8.613876,6.734349966049194
1618159806.9422,5.199707,6.7499799728393555
1618159806.95783,2.171238,6.765609979629517
1618159806.97345,-0.4590988,6.7812299728393555
1618159806.98908,-2.68153,6.796859979629517
1618159807.0047,-4.386448,6.8124799728393555
1618159807.02033,-5.360268,6.828109979629517
1618159807.03595,-5.416153,6.8437299728393555
1618159807.05158,-4.53587,6.859359979629517
1618159807.06721,-2.920834,6.874989986419678
1618159807.08283,-1.012665,6.890609979629517
1618159807.09846,0.6023674,6.906239986419678
1618159807.11408,1.423237,6.921859979629517
1618159807.12971,1.123665,6.937489986419678
1618159807.14533,-0.3151894,6.953109979629517
1618159807.16096,-2.622742,6.968739986419678
1618159807.17659,-5.35556,6.984369993209839
1618159807.19221,-8.105377,6.999989986419678
1618159807.20784,-10.65864,7.015619993209839
1618159807.22346,-13.06762,7.031239986419678
1618159807.23909,-15.61843,7.046869993209839
1618159807.25472,-18.61049,7.0625
1618159807.27034,-22.19764,7.078119993209839
1618159807.28597,-26.24055,7.09375
1618159807.30159,-30.24109,7.109369993209839
1618159807.31722,-33.39433,7.125
1618159807.33284,-34.75065,7.140619993209839
1618159807.34847,-33.43186,7.15625
1618159807.3641,-28.88643,7.171880006790161
1618159807.37972,-21.12862,7.1875
1618159807.39535,-10.80367,7.203130006790161
1618159807.41097,0.8941498,7.21875
1618159807.4266,12.46257,7.234380006790161
1618159807.44222,22.5251,7.25
1618159807.45785,30.15019,7.265630006790161
1618159807.47348,35.03105,7.281260013580322
1618159807.4891,37.3554,7.296880006790161
1618159807.50473,37.59335,7.312510013580322
1618159807.52035,36.24304,7.328130006790161
1618159807.53598,33.67347,7.343760013580322
1618159807.5516,30.19064,7.359380006790161
1618159807.56723,26.13344,7.375010013580322
1618159807.58286,21.94692,7.390640020370483
1618159807.59848,18.12578,7.406260013580322
1618159807.61411,15.11302,7.421890020370483
1618159807.62973,13.08923,7.437510013580322
1618159807.64536,12.00415,7.453140020370483
1618159807.66098,11.59966,7.468760013580322
1618159807.67661,11.60279,7.484390020370483
1618159807.69224,11.80672,7.5000200271606445
1618159807.70786,12.07684,7.515640020370483
1618159807.72349,12.26898,7.5312700271606445
1618159807.73911,12.19442,7.546890020370483
1618159807.75474,11.60198,7.5625200271606445
1618159807.77036,10.29259,7.578140020370483
1618159807.78599,8.157984,7.5937700271606445
1618159807.80162,5.275787,7.609400033950806
1618159807.81724,1.841602,7.6250200271606445
1618159807.83287,-1.913963,7.640650033950806
1618159807.84849,-5.727911,7.6562700271606445
1618159807.86412,-9.411074,7.671900033950806
1618159807.87974,-12.81314,7.6875200271606445
1618159807.89537,-15.93627,7.703150033950806
1618159807.911,-18.91005,7.718780040740967
1618159807.92662,-21.97285,7.734400033950806
1618159807.94225,-25.23883,7.750030040740967
1618159807.95787,-28.53103,7.765650033950806
1618159807.9735,-31.21898,7.781280040740967
1618159807.98912,-32.29152,7.796900033950806
1618159808.00475,-30.65742,7.812530040740967
1618159808.02038,-25.56238,7.828160047531128
1618159808.036,-16.99447,7.843780040740967
1618159808.05163,-5.81708,7.859410047531128
1618159808.06725,6.4146,7.875030040740967
1618159808.08288,17.9161,7.890660047531128
1618159808.0985,27.12652,7.906280040740967
1618159808.11413,33.15559,7.921910047531128
1618159808.12976,35.87904,7.937540054321289
1618159808.14538,35.79293,7.953160047531128
1618159808.16101,33.6974,7.968790054321289
1618159808.17663,30.36334,7.984410047531128
1618159808.19226,26.34821,8.000040054321289
1618159808.20788,22.03493,8.015660047531128
1618159808.22351,17.70932,8.031290054321289
1618159808.23914,13.65847,8.04692006111145
1618159808.25476,10.22055,8.062540054321289
1618159808.27039,7.73621,8.07817006111145
1618159808.28601,6.334478,8.093790054321289
1618159808.30164,5.900963,8.10942006111145
1618159808.31726,6.079462,8.125040054321289
1618159808.33289,6.398001,8.14067006111145
1618159808.34852,6.491106,8.156300067901611
1618159808.36414,6.170244,8.17192006111145
1618159808.37977,5.418045,8.187550067901611
1618159808.39539,4.262758,8.20317006111145
1618159808.41102,2.715488,8.218800067901611
1618159808.42664,0.6445522,8.23442006111145
1618159808.44227,-2.121471,8.250050067901611
1618159808.4579,-5.637911,8.265680074691772
1618159808.47352,-9.79213,8.281300067901611
1618159808.48915,-14.26026,8.296930074691772
1618159808.50477,-18.57441,8.312550067901611
1618159808.5204,-22.32539,8.328180074691772
1618159808.53602,-25.3601,8.343800067901611
1618159808.55165,-27.90253,8.359430074691772
1618159808.56728,-30.50907,8.375060081481934
1618159808.5829,-33.77432,8.390680074691772
1618159808.59853,-37.99711,8.406310081481934
1618159808.61415,-42.91845,8.421930074691772
1618159808.62978,-47.62046,8.437560081481934
1618159808.6454,-50.70546,8.453180074691772
1618159808.66103,-50.72513,8.468810081481934
1618159808.67666,-46.5872,8.484440088272095
1618159808.69228,-37.98277,8.500060081481934
1618159808.70791,-25.43428,8.515690088272095
1618159808.72353,-10.1907,8.531310081481934
1618159808.73916,6.077429,8.546940088272095
1618159808.75478,21.644,8.562560081481934
1618159808.77041,35.045,8.578190088272095
1618159808.78604,45.37363,8.593820095062256
1618159808.80166,52.39824,8.609440088272095
1618159808.81729,56.5291,8.625070095062256
1618159808.83291,58.59169,8.640690088272095
1618159808.84854,59.48077,8.656320095062256
1618159808.86416,59.82422,8.671940088272095
1618159808.87979,59.76939,8.687570095062256
1618159808.89542,58.99327,8.703200101852417
1618159808.91104,57.04158,8.718820095062256
1618159808.92667,53.60664,8.734450101852417
1618159808.94229,48.776,8.750070095062256
1618159808.95792,43.07553,8.765700101852417
1618159808.97354,37.26071,8.781320095062256
1618159808.98917,32.00719,8.796950101852417
1618159809.0048,27.68404,8.812580108642578
1618159809.02042,24.24742,8.828200101852417
1618159809.03605,21.35316,8.843830108642578
1618159809.05167,18.52789,8.859450101852417
1618159809.0673,15.39365,8.875080108642578
1618159809.08292,11.76929,8.890700101852417
1618159809.09855,7.749939,8.906330108642578
1618159809.11418,3.560379,8.92196011543274
1618159809.1298,-0.4349632,8.937580108642578
1618159809.14543,-3.784927,8.95321011543274
1618159809.16105,-6.076252,8.968830108642578
1618159809.17668,-6.943474,8.98446011543274
1618159809.1923,-6.362743,9.000080108642578
1618159809.20793,-4.763695,9.01571011543274
1618159809.22356,-3.110352,9.0313401222229
1618159809.23918,-2.673111,9.04696011543274
1618159809.25481,-4.615242,9.0625901222229
1618159809.27043,-9.487709,9.07821011543274
1618159809.28606,-16.83141,9.0938401222229
1618159809.30168,-25.24667,9.10946011543274
1618159809.31731,-32.78364,9.1250901222229
1618159809.33294,-37.66241,9.140720129013062
1618159809.34856,-38.82579,9.1563401222229
1618159809.36419,-36.29868,9.171970129013062
1618159809.37981,-30.97559,9.1875901222229
1618159809.39544,-24.31168,9.203220129013062
1618159809.41106,-17.80139,9.2188401222229
1618159809.42669,-12.62425,9.234470129013062
1618159809.44232,-9.511169,9.250100135803223
1618159809.45794,-8.688766,9.265720129013062
1618159809.47357,-9.935677,9.281350135803223
1618159809.48919,-12.63409,9.296970129013062
1618159809.50482,-15.97515,9.312600135803223
1618159809.52045,-19.11257,9.328230142593384
1618159809.53607,-21.38568,9.343850135803223
1618159809.5517,-22.52647,9.359480142593384
1618159809.56732,-22.61557,9.375100135803223
1618159809.58295,-21.99723,9.390730142593384
1618159809.59857,-21.01717,9.406350135803223
1618159809.6142,-19.93081,9.421980142593384
1618159809.62983,-18.79863,9.437609910964966
1618159809.64545,-17.57175,9.453230142593384
1618159809.66108,-16.19492,9.468859910964966
1618159809.6767,-14.60704,9.484480142593384
1618159809.69233,-12.82891,9.500109910964966
1618159809.70795,-10.96349,9.515730142593384
1618159809.72358,-9.192863,9.531359910964966
1618159809.73921,-7.690353,9.546989917755127
1618159809.75483,-6.635025,9.562609910964966
1618159809.77046,-6.109192,9.578239917755127
1618159809.78608,-6.04203,9.593859910964966
1618159809.80171,-6.288124,9.609489917755127
1618159809.81733,-6.686852,9.625109910964966
1618159809.83296,-7.2304,9.640739917755127
1618159809.84859,-8.019539,9.656369924545288
1618159809.86421,-9.338745,9.671989917755127
1618159809.87984,-11.40704,9.687619924545288
1618159809.89546,-14.33147,9.703239917755127
1618159809.91109,-18.03977,9.718869924545288
1618159809.92671,-22.22827,9.734489917755127
1618159809.94234,-26.39455,9.750119924545288
1618159809.95797,-29.87422,9.76574993133545
1618159809.97359,-31.88779,9.781369924545288
1618159809.98922,-31.6031,9.79699993133545
1618159810.00484,-28.41324,9.812619924545288
1618159810.02047,-22.12843,9.82824993133545
1618159810.03609,-13.10883,9.843869924545288
1618159810.05172,-2.34433,9.85949993133545
1618159810.06735,8.744148,9.87512993812561
1618159810.08297,18.6487,9.89074993133545
1618159810.0986,26.11168,9.90637993812561
1618159810.11422,30.39568,9.92199993133545
1618159810.12985,31.36634,9.93762993812561
1618159810.14547,29.42402,9.95324993133545
1618159810.1611,25.29682,9.96887993812561
1618159810.17673,19.80379,9.984509944915771
1618159810.19235,13.71265,10.00012993812561
1618159810.20798,7.665543,10.015759944915771
1618159810.2236,2.168915,10.03137993812561
1618159810.23923,-2.353073,10.047009944915771
1618159810.25485,-5.625488,10.06262993812561
1618159810.27048,-7.589157,10.078259944915771
1618159810.28611,-8.446358,10.093889951705933
1618159810.30173,-8.588501,10.109509944915771
1618159810.31736,-8.466736,10.125139951705933
1618159810.33298,-8.457321,10.140759944915771
1618159810.34861,-8.700813,10.156389951705933
1618159810.36423,-9.145554,10.172009944915771
1618159810.37986,-9.606361,10.187639951705933
1618159810.39549,-9.906975,10.203269958496094
1618159810.41111,-10.00913,10.218889951705933
1618159810.42674,-10.03205,10.234519958496094
1618159810.44236,-10.17944,10.250139951705933
1618159810.45799,-10.6697,10.265769958496094
1618159810.47361,-11.6814,10.281389951705933
1618159810.48924,-13.25725,10.297019958496094
1618159810.50487,-15.3692,10.312649965286255
1618159810.52049,-17.89226,10.328269958496094
1618159810.53612,-20.54643,10.343899965286255
1618159810.55174,-22.91645,10.359519958496094
1618159810.56737,-24.45882,10.375149965286255
1618159810.58299,-24.55511,10.390769958496094
1618159810.59862,-22.649,10.406399965286255
1618159810.61425,-18.40929,10.422029972076416
1618159810.62987,-11.83836,10.437649965286255
1618159810.6455,-3.391773,10.453279972076416
1618159810.66112,6.158855,10.468899965286255
1618159810.67675,15.82879,10.484529972076416
1618159810.69237,24.68019,10.500149965286255
1618159810.708,31.95643,10.515779972076416
1618159810.72363,37.17359,10.531409978866577
1618159810.73925,40.09736,10.547029972076416
1618159810.75488,40.71405,10.562659978866577
1618159810.7705,39.26474,10.578279972076416
1618159810.78613,36.10789,10.593909978866577
1618159810.80175,31.73018,10.609529972076416
1618159810.81738,26.63999,10.625159978866577
1618159810.83301,21.29885,10.640789985656738
1618159810.84863,16.09729,10.656409978866577
1618159810.86426,11.33025,10.672039985656738
1618159810.87988,7.229038,10.687659978866577
1618159810.89551,3.956564,10.703289985656738
1618159810.91113,1.581673,10.718909978866577
1618159810.92676,0.04480743,10.734539985656738
1618159810.94239,-0.8787346,10.7501699924469
1618159810.95801,-1.484936,10.765789985656738
1618159810.97364,-2.021774,10.7814199924469
1618159810.98926,-2.585009,10.797039985656738
1618159811.00489,-3.083471,10.8126699924469
1618159811.02051,-3.361476,10.828289985656738
1618159811.03614,-3.315703,10.8439199924469
1618159811.05177,-3.074934,10.85954999923706
1618159811.06739,-3.062288,10.8751699924469
1618159811.08302,-3.794926,10.89079999923706
1618159811.09864,-5.759523,10.9064199924469
1618159811.11427,-9.146986,10.92204999923706
1618159811.12989,-13.74197,10.9376699924469
1618159811.14552,-18.98016,10.95329999923706
1618159811.16115,-24.04808,10.968930006027222
1618159811.17677,-28.09674,10.98454999923706
1618159811.1924,-30.37952,11.000180006027222
1618159811.20802,-30.36097,11.01579999923706
1618159811.22365,-27.76082,11.031430006027222
1618159811.23927,-22.62163,11.04704999923706
1618159811.2549,-15.38291,11.062680006027222
1618159811.27053,-6.785047,11.078310012817383
1618159811.28615,2.159211,11.093930006027222
1618159811.30178,10.44907,11.109560012817383
1618159811.3174,17.28639,11.125180006027222
1618159811.33303,22.21404,11.140810012817383
1618159811.34865,25.21858,11.156430006027222
1618159811.36428,26.54063,11.172060012817383
1618159811.37991,26.55338,11.187690019607544
1618159811.39553,25.60663,11.203310012817383
1618159811.41116,23.95749,11.218940019607544
1618159811.42678,21.85729,11.234560012817383
1618159811.44241,19.59948,11.250190019607544
1618159811.45803,17.51615,11.265810012817383
1618159811.47366,15.94367,11.281440019607544
1618159811.48929,15.07636,11.297070026397705
1618159811.50491,14.88881,11.312690019607544
1618159811.52054,15.05372,11.328320026397705
1618159811.53616,15.09674,11.343940019607544
1618159811.55179,14.55279,11.359570026397705
1618159811.56741,13.16675,11.375190019607544
1618159811.58304,11.0272,11.390820026397705
1618159811.59867,8.428623,11.406450033187866
1618159811.61429,5.697332,11.422070026397705
1618159811.62992,2.904755,11.437700033187866
1618159811.64554,-0.1676025,11.453320026397705
1618159811.66117,-3.948854,11.468950033187866
1618159811.6768,-8.747803,11.484580039978027
1618159811.69242,-14.57088,11.500200033187866
1618159811.70805,-20.97322,11.515830039978027
1618159811.72367,-27.18147,11.531450033187866
1618159811.7393,-32.26153,11.547080039978027
1618159811.75492,-35.33508,11.562700033187866
1618159811.77055,-35.70082,11.578330039978027
1618159811.78618,-32.9503,11.593960046768188
1618159811.8018,-27.00036,11.609580039978027
1618159811.81743,-18.15919,11.625210046768188
1618159811.83305,-7.202875,11.640830039978027
1618159811.84868,4.700682,11.656460046768188
1618159811.8643,16.11407,11.672080039978027
1618159811.87993,25.6977,11.687710046768188
1618159811.89556,32.56637,11.70334005355835
1618159811.91118,36.47787,11.718960046768188
1618159811.92681,37.80344,11.73459005355835
1618159811.94243,37.26047,11.750210046768188
1618159811.95806,35.51958,11.76584005355835
1618159811.97368,32.93866,11.781460046768188
1618159811.98931,29.5682,11.79709005355835
1618159812.00494,25.31981,11.81272006034851
1618159812.02056,20.26661,11.82834005355835
1618159812.03619,14.87037,11.84397006034851
1618159812.05181,9.885639,11.85959005355835
1618159812.06744,6.062061,11.87522006034851
1618159812.08306,3.815163,11.89084005355835
1618159812.09869,2.989178,11.90647006034851
1618159812.11432,3.01494,11.922100067138672
1618159812.12994,3.173391,11.93772006034851
1618159812.14557,2.971128,11.953350067138672
1618159812.16119,2.257965,11.96897006034851
1618159812.17682,1.200085,11.984600067138672
1618159812.19244,0.01844025,12.00022006034851
1618159812.20807,-1.21233,12.015850067138672
1618159812.2237,-2.606083,12.031480073928833
1618159812.23932,-4.441353,12.047100067138672
1618159812.25495,-6.969635,12.062730073928833
1618159812.27057,-10.35723,12.078350067138672
1618159812.2862,-14.59511,12.093980073928833
1618159812.30182,-19.60415,12.109600067138672
1618159812.31745,-25.15055,12.125230073928833
1618159812.33308,-30.81996,12.140860080718994
1618159812.3487,-35.94666,12.156480073928833
1618159812.36433,-39.60992,12.172110080718994
1618159812.37995,-40.814,12.187730073928833
1618159812.39558,-38.7587,12.203360080718994
1618159812.4112,-33.22168,12.218980073928833
1618159812.42683,-24.65858,12.234610080718994
1618159812.44246,-14.18146,12.250240087509155
1618159812.45808,-3.235989,12.265860080718994
1618159812.47371,6.768143,12.281490087509155
1618159812.48933,14.79425,12.297110080718994
1618159812.50496,20.28449,12.312740087509155
1618159812.52058,23.10812,12.328360080718994
1618159812.53621,23.44094,12.343990087509155
1618159812.55184,21.62945,12.359620094299316
1618159812.56746,18.16169,12.375240087509155
1618159812.58309,13.66281,12.390870094299316
1618159812.59871,8.899406,12.406490087509155
1618159812.61434,4.699402,12.422120094299316
1618159812.62996,1.760841,12.437740087509155
1618159812.64559,0.5220795,12.453370094299316
1618159812.66122,0.9599762,12.469000101089478
1618159812.67684,2.692112,12.484620094299316
1618159812.69247,5.078575,12.500250101089478
1618159812.70809,7.490147,12.515870094299316
1618159812.72372,9.47736,12.531500101089478
1618159812.73934,10.83299,12.547120094299316
1618159812.75497,11.59004,12.562750101089478
1618159812.7706,11.85493,12.578380107879639
1618159812.78622,11.72969,12.594000101089478
1618159812.80185,11.19497,12.609630107879639
1618159812.81747,10.21341,12.625250101089478
1618159812.8331,8.760509,12.640880107879639
1618159812.84872,6.899052,12.656500101089478
1618159812.86435,4.733536,12.672130107879639
1618159812.87998,2.293205,12.6877601146698
1618159812.8956,-0.5403862,12.703380107879639
1618159812.91123,-4.059074,12.7190101146698
1618159812.92685,-8.597057,12.734630107879639
1618159812.94248,-14.28244,12.7502601146698
1618159812.9581,-20.75269,12.765880107879639
1618159812.97373,-27.12714,12.7815101146698
1618159812.98936,-32.05541,12.797140121459961
1618159813.00498,-34.08591,12.8127601146698
1618159813.02061,-32.14248,12.828390121459961
1618159813.03623,-25.92497,12.8440101146698
1618159813.05186,-16.02325,12.859640121459961
1618159813.06748,-3.795193,12.8752601146698
1618159813.08311,9.018456,12.890890121459961
1618159813.09874,20.79111,12.906520128250122
1618159813.11436,30.34417,12.922140121459961
1618159813.12999,37.11612,12.937770128250122
1618159813.14561,41.15067,12.953390121459961
1618159813.16124,42.88018,12.969020128250122
1618159813.17686,42.85039,12.984640121459961
1618159813.19249,41.55953,13.000270128250122
1618159813.20812,39.38185,13.015900135040283
1618159813.22374,36.55353,13.031520128250122
1618159813.23937,33.27557,13.047150135040283
1618159813.25499,29.75719,13.062770128250122
1618159813.27062,26.24303,13.078400135040283
1618159813.28624,22.984,13.094020128250122
1618159813.30187,20.11716,13.109650135040283
1618159813.3175,17.66442,13.125280141830444
1618159813.33312,15.44855,13.140900135040283
1618159813.34875,13.22016,13.156530141830444
1618159813.36437,10.73365,13.172150135040283
1618159813.38,7.889244,13.187780141830444
1618159813.39562,4.712791,13.203400135040283
1618159813.41125,1.408279,13.219030141830444
1618159813.42688,-1.777683,13.234659910202026
1618159813.4425,-4.641935,13.250280141830444
1618159813.45813,-6.991583,13.265909910202026
1618159813.47375,-8.775429,13.281530141830444
1618159813.48938,-10.04745,13.297159910202026
1618159813.505,-11.01556,13.312780141830444
1618159813.52063,-11.93866,13.328409910202026
1618159813.53626,-13.11305,13.344039916992188
1618159813.55188,-14.70426,13.359659910202026
1618159813.56751,-16.6102,13.375289916992188
1618159813.58313,-18.3215,13.390909910202026
1618159813.59876,-18.92423,13.406539916992188
1618159813.61438,-17.25154,13.422159910202026
1618159813.63001,-12.17783,13.437789916992188
1618159813.64564,-2.991088,13.453419923782349
1618159813.66126,10.39133,13.469039916992188
1618159813.67689,27.27398,13.484669923782349
1618159813.69251,46.25372,13.500289916992188
1618159813.70814,65.54118,13.515919923782349
1618159813.72376,83.34935,13.531539916992188
1618159813.73939,98.33284,13.547169923782349
1618159813.75502,109.9204,13.56279993057251
1618159813.77064,118.2865,13.578419923782349
1618159813.78627,124.0257,13.59404993057251
1618159813.80189,127.7523,13.609669923782349
1618159813.81752,129.803,13.62529993057251
1618159813.83314,130.1302,13.640919923782349
1618159813.84877,128.5994,13.65654993057251
1618159813.8644,125.2558,13.672179937362671
1618159813.88002,120.6049,13.68779993057251
1618159813.89565,115.6292,13.703429937362671
1618159813.91127,111.48,13.71904993057251
1618159813.9269,109.047,13.734679937362671
1618159813.94252,108.6428,13.75029993057251
1618159813.95815,109.9949,13.765929937362671
1618159813.97378,112.4886,13.781559944152832
1618159813.9894,115.6001,13.797179937362671
1618159814.00503,119.1348,13.812809944152832
1618159814.02065,123.3632,13.828429937362671
1618159814.03628,128.8459,13.844059944152832
1618159814.0519,136.1598,13.859679937362671
1618159814.06753,145.5002,13.875309944152832
1618159814.08316,156.4359,13.890939950942993
1618159814.09878,167.7618,13.906559944152832
1618159814.11441,177.5659,13.922189950942993
1618159814.13003,183.6411,13.937809944152832
1618159814.14566,183.9401,13.953439950942993
1618159814.16128,177.1033,13.969059944152832
1618159814.17691,162.8181,13.984689950942993
1618159814.19254,141.8584,14.000319957733154
1618159814.20816,115.8794,14.015939950942993
1618159814.22379,87.10355,14.031569957733154
1618159814.23941,57.97974,14.047189950942993
1618159814.25504,30.97702,14.062819957733154
1618159814.27066,8.309479,14.078439950942993
1618159814.28629,-8.666626,14.094069957733154
1618159814.30192,-20.10172,14.109699964523315
1618159814.31754,-28.09644,14.125319957733154
1618159814.33317,-36.35294,14.140949964523315
1618159814.34879,-48.95166,14.156569957733154
1618159814.36442,-68.64917,14.172199964523315
1618159814.38005,-95.66052,14.187829971313477
1618159814.39567,-127.4761,14.203449964523315
1618159814.4113,-159.9752,14.219079971313477
1618159814.42692,-189.2913,14.234699964523315
1618159814.44255,-213.2092,14.250329971313477
1618159814.45817,-231.5563,14.265949964523315
1618159814.4738,-245.3713,14.281579971313477
1618159814.48943,-255.6118,14.297209978103638
1618159814.50505,-262.2658,14.312829971313477
1618159814.52068,-264.401,14.328459978103638
1618159814.5363,-261.0121,14.344079971313477
1618159814.55193,-252.0049,14.359709978103638
1618159814.56755,-238.6824,14.375329971313477
1618159814.58318,-223.3848,14.390959978103638
1618159814.59881,-208.5835,14.406589984893799
1618159814.61443,-195.9534,14.422209978103638
1618159814.63006,-185.8925,14.437839984893799
1618159814.64568,-177.6387,14.453459978103638
1618159814.66131,-169.8648,14.469089984893799
1618159814.67693,-161.4401,14.484709978103638
1618159814.69256,-151.8747,14.500339984893799
1618159814.70819,-141.4258,14.51596999168396
1618159814.72381,-130.8747,14.531589984893799
1618159814.73944,-121.1111,14.54721999168396
1618159814.75506,-112.804,14.562839984893799
1618159814.77069,-106.2307,14.57846999168396
1618159814.78631,-101.2249,14.594089984893799
1618159814.80194,-97.32135,14.60971999168396
1618159814.81757,-94.00415,14.625349998474121
1618159814.83319,-90.78192,14.64096999168396
1618159814.84882,-87.28558,14.656599998474121
1618159814.86444,-83.22369,14.67221999168396
1618159814.88007,-78.31543,14.687849998474121
1618159814.89569,-72.29425,14.70346999168396
1618159814.91132,-65.00024,14.719099998474121
1618159814.92695,-56.46472,14.734730005264282
1618159814.94257,-46.82831,14.750349998474121
1618159814.9582,-36.11353,14.765980005264282
1618159814.97382,-23.83002,14.781599998474121
1618159814.98945,-8.815857,14.797230005264282
1618159815.00507,10.43311,14.812849998474121
1618159815.0207,34.9989,14.828480005264282
1618159815.03633,64.73993,14.844110012054443
1618159815.05195,97.88977,14.859730005264282
1618159815.06758,131.4745,14.875360012054443
1618159815.0832,162.272,14.890980005264282
1618159815.09883,187.8842,14.906610012054443
1618159815.11445,207.27,14.922230005264282
1618159815.13008,220.4832,14.937860012054443
1618159815.14571,227.887,14.953490018844604
1618159815.16133,229.4205,14.969110012054443
1618159815.17696,224.3868,14.984740018844604
1618159815.19258,211.892,15.000360012054443
1618159815.20821,191.588,15.015990018844604
1618159815.22383,164.2222,15.031610012054443
1618159815.23946,131.6651,15.047240018844604
1618159815.25509,96.30426,15.062870025634766
1618159815.27071,60.2887,15.078490018844604
1618159815.28634,25.0188,15.094120025634766
1618159815.30196,-8.895325,15.109740018844604
1618159815.31759,-41.24817,15.125370025634766
1618159815.33321,-71.73102,15.140990018844604
1618159815.34884,-99.60669,15.156620025634766
1618159815.36447,-123.7919,15.172250032424927
1618159815.38009,-143.267,15.187870025634766
1618159815.39572,-157.522,15.203500032424927
1618159815.41134,-166.866,15.219120025634766
1618159815.42697,-172.3699,15.234750032424927
1618159815.44259,-175.5046,15.250370025634766
1618159815.45822,-177.5944,15.266000032424927
1618159815.47385,-179.3695,15.281630039215088
1618159815.48947,-180.6835,15.297250032424927
1618159815.5051,-180.6146,15.312880039215088
1618159815.52072,-177.7795,15.328500032424927
1618159815.53635,-170.8595,15.344130039215088
1618159815.55197,-159.1501,15.359750032424927
1618159815.5676,-142.8696,15.375380039215088
1618159815.58323,-123.1901,15.391010046005249
1618159815.59885,-101.9277,15.406630039215088
1618159815.61448,-80.94275,15.422260046005249
1618159815.6301,-61.61938,15.437880039215088
1618159815.64573,-44.64063,15.453510046005249
1618159815.66135,-30.03534,15.469130039215088
1618159815.67698,-17.53156,15.484760046005249
1618159815.69261,-6.87085,15.50039005279541
1618159815.70823,2.020569,15.516010046005249
1618159815.72386,9.117065,15.53164005279541
1618159815.73948,14.43329,15.547260046005249
1618159815.75511,18.16064,15.56289005279541
1618159815.77073,20.67303,15.578510046005249
1618159815.78636,22.42749,15.59414005279541
1618159815.80199,23.80756,15.609770059585571
1618159815.81761,25.0368,15.62539005279541
1618159815.83324,26.20447,15.641020059585571
1618159815.84886,27.31757,15.65664005279541
1618159815.86449,28.3996,15.672270059585571
1618159815.88011,29.41846,15.68789005279541
1618159815.89574,30.36914,15.703520059585571
1618159815.91137,31.16559,15.719150066375732
1618159815.92699,31.66718,15.734770059585571
1618159815.94262,31.71887,15.750400066375732
1618159815.95824,31.13092,15.766020059585571
1618159815.97387,29.74316,15.781650066375732
1618159815.98949,27.435,15.797270059585571
1618159816.00512,24.22052,15.812900066375732
1618159816.02075,20.22406,15.828530073165894
1618159816.03637,15.78278,15.844150066375732
1618159816.052,11.36786,15.859780073165894
1618159816.06762,7.381531,15.875400066375732
1618159816.08325,4.012085,15.891030073165894
1618159816.09887,1.11554,15.906650066375732
1618159816.1145,-1.718689,15.922280073165894
1618159816.13013,-4.921753,15.937910079956055
1618159816.14575,-8.580078,15.953530073165894
1618159816.16138,-12.25623,15.969160079956055
1618159816.177,-14.95026,15.984780073165894
1618159816.19263,-15.47498,16.000410079956055
1618159816.20825,-12.94537,16.016030073165894
1618159816.22388,-7.078186,16.031660079956055
1618159816.23951,1.653748,16.047290086746216
1618159816.25513,12.19525,16.062910079956055
1618159816.27076,23.24969,16.078540086746216
1618159816.28638,33.58325,16.094160079956055
1618159816.30201,42.24182,16.109790086746216
1618159816.31763,48.66681,16.125410079956055
1618159816.33326,52.70508,16.141040086746216
1618159816.34889,54.53357,16.156670093536377
1618159816.36451,54.62744,16.172290086746216
1618159816.38014,53.54022,16.187920093536377
1618159816.39576,51.75092,16.203540086746216
1618159816.41139,49.60657,16.219170093536377
1618159816.42701,47.28809,16.234790086746216
1618159816.44264,44.94897,16.250420093536377
1618159816.45827,42.80066,16.266050100326538
1618159816.47389,41.10785,16.281670093536377
1618159816.48952,40.02826,16.297300100326538
1618159816.50514,39.40393,16.312920093536377
1618159816.52077,38.61749,16.328550100326538
1618159816.5364,36.6358,16.3441801071167
1618159816.55202,32.35071,16.359800100326538
1618159816.56765,24.92395,16.3754301071167
1618159816.58327,14.15631,16.391050100326538
1618159816.5989,0.5835571,16.4066801071167
1618159816.61452,-14.62579,16.422300100326538
1618159816.63015,-30.06683,16.4379301071167
1618159816.64578,-44.41272,16.45356011390686
1618159816.6614,-56.76672,16.4691801071167
1618159816.67703,-66.81274,16.48481011390686
1618159816.69265,-74.71429,16.5004301071167
1618159816.70828,-81.01086,16.51606011390686
1618159816.7239,-86.29681,16.5316801071167
1618159816.73953,-91.16956,16.54731011390686
1618159816.75516,-96.03247,16.56294012069702
1618159816.77078,-101.0116,16.57856011390686
1618159816.78641,-105.8022,16.59419012069702
1618159816.80203,-109.5131,16.60981011390686
1618159816.81766,-110.7798,16.62544012069702
1618159816.83328,-108.0267,16.64106011390686
1618159816.84891,-100.0583,16.65669012069702
1618159816.86454,-86.53937,16.672320127487183
1618159816.88016,-68.28796,16.68794012069702
1618159816.89579,-47.10223,16.703570127487183
1618159816.91141,-25.24921,16.71919012069702
1618159816.92704,-4.867432,16.734820127487183
1618159816.94266,12.58276,16.75044012069702
1618159816.95829,26.44006,16.766070127487183
1618159816.97392,36.73077,16.781700134277344
1618159816.98954,43.83527,16.797320127487183
1618159817.00517,48.22852,16.812950134277344
1618159817.02079,50.34442,16.828570127487183
1618159817.03642,50.62677,16.844200134277344
1618159817.05204,49.53308,16.859820127487183
1618159817.06767,47.55865,16.875450134277344
1618159817.0833,45.16714,16.891080141067505
1618159817.09892,42.6709,16.906700134277344
1618159817.11455,40.24326,16.922330141067505
1618159817.13017,37.91739,16.937950134277344
1618159817.1458,35.69672,16.953580141067505
1618159817.16142,33.65256,16.969200134277344
1618159817.17705,31.90787,16.984830141067505
1618159817.19268,30.57605,17.000459909439087
1618159817.2083,29.62772,17.016080141067505
1618159817.22393,28.86884,17.031709909439087
1618159817.23955,27.9183,17.047330141067505
1618159817.25518,26.36859,17.062959909439087
1618159817.2708,24.01422,17.078580141067505
1618159817.28643,20.87451,17.094209909439087
1618159817.30206,17.16824,17.109839916229248
1618159817.31768,13.16397,17.125459909439087
1618159817.33331,9.014893,17.141089916229248
1618159817.34893,4.766052,17.156709909439087
1618159817.36456,0.3858032,17.172339916229248
1618159817.38018,-4.177979,17.187959909439087
1618159817.39581,-8.992615,17.203589916229248
1618159817.41144,-14.1214,17.21921992301941
1618159817.42706,-19.64407,17.234839916229248
1618159817.44269,-25.54083,17.25046992301941
1618159817.45831,-31.48288,17.266089916229248
1618159817.47394,-36.75757,17.28171992301941
1618159817.48956,-40.22424,17.297339916229248
1618159817.50519,-40.60672,17.31296992301941
1618159817.52082,-36.87427,17.32859992980957
1618159817.53644,-28.65802,17.34421992301941
1618159817.55207,-16.47906,17.35984992980957
1618159817.56769,-1.667145,17.37546992301941
1618159817.58332,13.98978,17.39109992980957
1618159817.59894,28.81039,17.40671992301941
1618159817.61457,41.51801,17.42234992980957
1618159817.6302,51.5148,17.43797993659973
1618159817.64582,58.80869,17.45359992980957
1618159817.66145,63.76831,17.46922993659973
1618159817.67707,66.91666,17.48484992980957
1618159817.6927,68.72241,17.50047993659973
1618159817.70832,69.59808,17.51609992980957
1618159817.72395,69.92429,17.53172993659973
1618159817.73958,70.15567,17.547359943389893
1618159817.7552,70.71915,17.56297993659973
1618159817.77083,71.9281,17.578609943389893
1618159817.78645,73.84534,17.59422993659973
1618159817.80208,76.19492,17.609859943389893
1618159817.8177,78.47885,17.62547993659973
1618159817.83333,80.1059,17.641109943389893
1618159817.84896,80.60022,17.656739950180054
1618159817.86458,79.67545,17.672359943389893
1618159817.88021,77.29163,17.687989950180054
1618159817.89583,73.61267,17.703609943389893
1618159817.91146,68.9408,17.719239950180054
1618159817.92708,63.72632,17.734859943389893
1618159817.94271,58.38495,17.750489950180054
1618159817.95834,53.35223,17.766119956970215
1618159817.97396,48.92404,17.781739950180054
1618159817.98959,45.22311,17.797369956970215
1618159818.00521,42.13504,17.812989950180054
1618159818.02084,39.37964,17.828619956970215
1618159818.03646,36.53571,17.844239950180054
1618159818.05209,33.16617,17.859869956970215
1618159818.06772,28.88544,17.875499963760376
1618159818.08334,23.34042,17.891119956970215
1618159818.09897,16.40393,17.906749963760376
1618159818.11459,8.217438,17.922369956970215
1618159818.13022,-0.6488037,17.937999963760376
1618159818.14584,-9.197845,17.953619956970215
1618159818.16147,-16.09818,17.969249963760376
1618159818.1771,-20.12286,17.984879970550537
1618159818.19272,-20.51672,18.000499963760376
1618159818.20835,-17.37122,18.016129970550537
1618159818.22397,-11.71439,18.031749963760376
1618159818.2396,-5.086395,18.047379970550537
1618159818.25522,0.9289246,18.062999963760376
1618159818.27085,5.334259,18.078629970550537
1618159818.28648,7.986603,18.0942599773407
1618159818.3021,9.505402,18.109879970550537
1618159818.31773,10.74445,18.1255099773407
1618159818.33335,12.32513,18.141129970550537
1618159818.34898,14.34946,18.1567599773407
1618159818.3646,16.45251,18.172379970550537
1618159818.38023,18.21692,18.1880099773407
1618159818.39586,19.50018,18.20363998413086
1618159818.41148,20.64276,18.2192599773407
1618159818.42711,22.30325,18.23488998413086
1618159818.44273,25.02048,18.2505099773407
1618159818.45836,28.83923,18.26613998413086
1618159818.47398,33.1991,18.2817599773407
1618159818.48961,37.14929,18.29738998413086
1618159818.50524,39.76059,18.31301999092102
1618159818.52086,40.50586,18.32863998413086
1618159818.53649,39.30405,18.34426999092102
1618159818.55211,36.36633,18.35988998413086
1618159818.56774,31.93442,18.37551999092102
1618159818.58336,26.03998,18.39113998413086
1618159818.59899,18.54041,18.40676999092102
1618159818.61462,9.310211,18.42239999771118
1618159818.63024,-1.472687,18.43801999092102
1618159818.64587,-13.3342,18.45364999771118
1618159818.66149,-25.42599,18.46926999092102
1618159818.67712,-36.82758,18.48489999771118
1618159818.69274,-46.79596,18.50051999092102
1618159818.70837,-54.91452,18.51614999771118
1618159818.724,-61.25739,18.531780004501343
1618159818.73962,-66.26566,18.54739999771118
1618159818.75525,-70.63062,18.563030004501343
1618159818.77087,-75.06097,18.57864999771118
1618159818.7865,-80.08731,18.594280004501343
1618159818.80212,-85.78284,18.60989999771118
1618159818.81775,-91.67657,18.625530004501343
1618159818.83338,-96.69025,18.641160011291504
1618159818.849,-99.37976,18.656780004501343
1618159818.86463,-98.32855,18.672410011291504
1618159818.88025,-92.59894,18.688030004501343
1618159818.89588,-82.17426,18.703660011291504
1618159818.9115,-68.04675,18.719280004501343
1618159818.92713,-51.9809,18.734910011291504
1618159818.94276,-35.96625,18.750540018081665
1618159818.95838,-21.66248,18.766160011291504
1618159818.97401,-9.973633,18.781790018081665
1618159818.98963,-1.017456,18.797410011291504
1618159819.00526,5.565002,18.813040018081665
1618159819.02088,10.26923,18.828660011291504
1618159819.03651,13.43726,18.844290018081665
1618159819.05214,15.21881,18.859920024871826
1618159819.06776,15.74182,18.875540018081665
1618159819.08339,15.24091,18.891170024871826
1618159819.09901,14.12152,18.906790018081665
1618159819.11464,12.82904,18.922420024871826
1618159819.13027,11.78589,18.938050031661987
1618159819.14589,11.1897,18.953670024871826
1618159819.16152,11.05353,18.969300031661987
1618159819.17714,11.3078,18.984920024871826
1618159819.19277,11.88159,19.000550031661987
1618159819.20839,12.74023,19.016170024871826
1618159819.22402,13.8493,19.031800031661987
1618159819.23965,15.07343,19.04743003845215
1618159819.25527,16.14905,19.063050031661987
1618159819.2709,16.78613,19.07868003845215
1618159819.28652,16.71356,19.094300031661987
1618159819.30215,15.76318,19.10993003845215
1618159819.31777,13.91187,19.125550031661987
1618159819.3334,11.27386,19.14118003845215
1618159819.34903,8.048157,19.15681004524231
1618159819.36465,4.495544,19.17243003845215
1618159819.38028,0.8103638,19.18806004524231
1618159819.3959,-2.94635,19.20368003845215
1618159819.41153,-6.897766,19.21931004524231
1618159819.42715,-11.32788,19.23493003845215
1618159819.44278,-16.57056,19.25056004524231
1618159819.45841,-22.75366,19.26619005203247
1618159819.47403,-29.59161,19.28181004524231
1618159819.48966,-36.27545,19.29744005203247
1618159819.50528,-41.62024,19.31306004524231
1618159819.52091,-44.42297,19.32869005203247
1618159819.53653,-43.85498,19.34431004524231
1618159819.55216,-39.77362,19.35994005203247
1618159819.56779,-32.70776,19.375570058822632
1618159819.58341,-23.7171,19.39119005203247
1618159819.59904,-13.9939,19.406820058822632
1618159819.61466,-4.697083,19.42244005203247
1618159819.63029,3.262207,19.438070058822632
1618159819.64591,9.23584,19.45369005203247
1618159819.66154,12.76563,19.469320058822632
1618159819.67717,13.64404,19.484950065612793
1618159819.69279,11.94312,19.500570058822632
1618159819.70842,8.056885,19.516200065612793
1618159819.72404,2.694214,19.531820058822632
1618159819.73967,-3.208679,19.547450065612793
1618159819.75529,-8.733887,19.563070058822632
1618159819.77092,-13.17023,19.578700065612793
1618159819.78655,-16.0918,19.594330072402954
1618159819.80217,-17.4425,19.609950065612793
1618159819.8178,-17.45453,19.625580072402954
1618159819.83342,-16.61792,19.641200065612793
1618159819.84905,-15.57538,19.656830072402954
1618159819.86467,-15.06732,19.672450065612793
1618159819.8803,-15.71857,19.688080072402954
1618159819.89593,-17.92737,19.703710079193115
1618159819.91155,-21.67285,19.719330072402954
1618159819.92718,-26.43506,19.734960079193115
1618159819.9428,-31.35944,19.750580072402954
1618159819.95843,-35.50555,19.766210079193115
1618159819.97405,-38.18134,19.781830072402954
1618159819.98968,-39.1441,19.797460079193115
1618159820.00531,-38.73108,19.813090085983276
1618159820.02093,-37.75195,19.828710079193115
1618159820.03656,-37.3645,19.844340085983276
1618159820.05218,-38.72998,19.859960079193115
1618159820.06781,-42.67517,19.875590085983276
1618159820.08343,-49.3183,19.891210079193115
1618159820.09906,-57.81738,19.906840085983276
1618159820.11469,-66.38385,19.922470092773438
1618159820.13031,-72.61957,19.938090085983276
1618159820.14594,-74.19885,19.953720092773438
1618159820.16156,-69.53717,19.969340085983276
1618159820.17719,-58.29736,19.984970092773438
1618159820.19281,-41.46149,20.000590085983276
1618159820.20844,-21.03851,20.016220092773438
1618159820.22407,0.5185547,20.0318500995636
1618159820.23969,20.92242,20.047470092773438
1618159820.25532,38.43921,20.0631000995636
1618159820.27094,52.11145,20.078720092773438
1618159820.28657,61.71326,20.0943500995636
1618159820.30219,67.58884,20.109970092773438
1618159820.31782,70.40256,20.1256000995636
1618159820.33345,70.93716,20.14123010635376
1618159820.34907,69.90268,20.1568500995636
1618159820.3647,67.86084,20.17248010635376
1618159820.38032,65.23923,20.1881000995636
1618159820.39595,62.38388,20.20373010635376
1618159820.41157,59.5726,20.2193500995636
1618159820.4272,56.97653,20.23498010635376
1618159820.44283,54.61411,20.25061011314392
1618159820.45845,52.32562,20.26623010635376
1618159820.47408,49.82574,20.28186011314392
1618159820.4897,46.84198,20.29748010635376
1618159820.50533,43.17517,20.31311011314392
1618159820.52095,38.81204,20.32873010635376
1618159820.53658,33.90646,20.34436011314392
1618159820.55221,28.8172,20.359990119934082
1618159820.56783,23.996,20.37561011314392
1618159820.58346,19.84952,20.391240119934082
1618159820.59908,16.64743,20.40686011314392
1618159820.61471,14.32095,20.422490119934082
1618159820.63033,12.46609,20.43811011314392
1618159820.64596,10.39056,20.453740119934082
1618159820.66159,7.375122,20.469370126724243
1618159820.67721,2.918152,20.484990119934082
1618159820.69284,-2.969208,20.500620126724243
1618159820.70846,-9.625946,20.516240119934082
1618159820.72409,-15.89148,20.531870126724243
1618159820.73971,-20.22989,20.547490119934082
1618159820.75534,-21.19656,20.563120126724243
1618159820.77097,-17.78101,20.578750133514404
1618159820.78659,-9.76416,20.594370126724243
1618159820.80222,2.182068,20.610000133514404
1618159820.81784,16.50735,20.625620126724243
1618159820.83347,31.20398,20.641250133514404
1618159820.84909,44.25259,20.656870126724243
1618159820.86472,54.08716,20.672500133514404
1618159820.88035,59.92307,20.688130140304565
1618159820.89597,61.72726,20.703750133514404
1618159820.9116,60.02469,20.719380140304565
1618159820.92722,55.65942,20.735000133514404
1618159820.94285,49.55215,20.750630140304565
1618159820.95847,42.56857,20.766250133514404
1618159820.9741,35.43033,20.781880140304565
1618159820.98973,28.75864,20.797509908676147
1618159821.00535,22.98517,20.813130140304565
1618159821.02098,18.42731,20.828759908676147
1618159821.0366,15.16806,20.844380140304565
1618159821.05223,13.08884,20.860009908676147
1618159821.06785,11.88583,20.875630140304565
1618159821.08348,11.07001,20.891259908676147
1618159821.09911,10.11594,20.90688991546631
1618159821.11473,8.54892,20.922509908676147
1618159821.13036,6.157898,20.93813991546631
1618159821.14598,3.012909,20.953759908676147
1618159821.16161,-0.5147705,20.96938991546631
1618159821.17723,-3.931091,20.985009908676147
1618159821.19286,-6.86087,21.00063991546631
1618159821.20849,-9.254578,21.01626992225647
1618159821.22411,-11.42053,21.03188991546631
1618159821.23974,-13.9812,21.04751992225647
1618159821.25536,-17.62976,21.06313991546631
1618159821.27099,-22.85852,21.07876992225647
1618159821.28661,-29.80194,21.09438991546631
1618159821.30224,-37.95734,21.11001992225647
1618159821.31787,-46.22296,21.12564992904663
1618159821.33349,-52.97076,21.14126992225647
1618159821.34912,-56.38239,21.15689992904663
1618159821.36474,-54.93781,21.17251992225647
1618159821.38037,-47.9129,21.18814992904663
1618159821.396,-35.68231,21.203779935836792
1618159821.41162,-19.71606,21.21939992904663
1618159821.42725,-2.288513,21.235029935836792
1618159821.44287,14.13269,21.25064992904663
1618159821.4585,27.43396,21.266279935836792
1618159821.47412,36.34625,21.28189992904663
1618159821.48975,40.659,21.297529935836792
1618159821.50538,41.12622,21.313159942626953
1618159821.521,39.06531,21.328779935836792
1618159821.53663,35.85132,21.344409942626953
1618159821.55225,32.45886,21.360029935836792
1618159821.56788,29.20856,21.375659942626953
1618159821.5835,25.95398,21.391279935836792
1618159821.59913,22.34918,21.406909942626953
1618159821.61476,18.29321,21.422539949417114
1618159821.63038,14.03839,21.438159942626953
1618159821.64601,10.13885,21.453789949417114
1618159821.66163,7.06427,21.469409942626953
1618159821.67726,4.92926,21.485039949417114
1618159821.69288,3.328003,21.500659942626953
1618159821.70851,1.296448,21.516289949417114
1618159821.72414,-2.397583,21.531919956207275
1618159821.73976,-9.05719,21.547539949417114
1618159821.75539,-19.64252,21.563169956207275
1618159821.77101,-34.58344,21.578789949417114
1618159821.78664,-53.57001,21.594419956207275
1618159821.80226,-75.56372,21.610039949417114
1618159821.81789,-98.98383,21.625669956207275
1618159821.83352,-122.1053,21.641299962997437
1618159821.84914,-143.5691,21.656919956207275
1618159821.86477,-162.5794,21.672549962997437
1618159821.88039,-178.8115,21.688169956207275
1618159821.89602,-192.09,21.703799962997437
1618159821.91164,-201.9974,21.719419956207275
1618159821.92727,-207.6947,21.735049962997437
1618159821.9429,-208.081,21.750679969787598
1618159821.95852,-202.1725,21.766299962997437
1618159821.97415,-189.4617,21.781929969787598
1618159821.98977,-170.1912,21.797549962997437
1618159822.0054,-145.3326,21.813179969787598
1618159822.02102,-116.443,21.828799962997437
1618159822.03665,-85.4303,21.844429969787598
1618159822.05228,-54.23267,21.86005997657776
1618159822.0679,-24.52209,21.875679969787598
1618159822.08353,2.550232,21.89130997657776
1618159822.09915,26.41235,21.906929969787598
1618159822.11478,46.9982,21.92255997657776
1618159822.1304,64.44751,21.938179969787598
1618159822.14603,78.88733,21.95380997657776
1618159822.16166,90.3382,21.96943998336792
1618159822.17728,98.80597,21.98505997657776
1618159822.19291,104.5261,22.00068998336792
1618159822.20853,107.9909,22.01630997657776
1618159822.22416,109.791,22.03193998336792
1618159822.23978,110.3022,22.04755997657776
1618159822.25541,109.5058,22.06318998336792
1618159822.27104,106.9673,22.07881999015808
1618159822.28666,102.2145,22.09443998336792
1618159822.30229,95.15775,22.11006999015808
1618159822.31791,86.26132,22.12568998336792
1618159822.33354,76.51123,22.14131999015808
1618159822.34916,67.06537,22.15693998336792
1618159822.36479,58.7858,22.17256999015808
1618159822.38042,51.99387,22.188199996948242
1618159822.39604,46.439,22.20381999015808
1618159822.41167,41.39682,22.219449996948242
1618159822.42729,35.98358,22.23506999015808
1618159822.44292,29.40338,22.250699996948242
1618159822.45854,21.28394,22.26631999015808
1618159822.47417,11.98334,22.281949996948242
1618159822.4898,2.740051,22.297580003738403
1618159822.50542,-4.512787,22.313199996948242
1618159822.52105,-7.636536,22.328830003738403
1618159822.53667,-5.037903,22.344449996948242
1618159822.5523,3.609863,22.360080003738403
1618159822.56792,17.11063,22.375699996948242
1618159822.58355,33.02646,22.391330003738403
1618159822.59918,48.44327,22.406960010528564
1618159822.6148,60.9917,22.422580003738403
1618159822.63043,69.47095,22.438210010528564
1618159822.64605,73.94122,22.453830003738403
1618159822.66168,75.30362,22.469460010528564
1618159822.6773,74.58002,22.485080003738403
1618159822.69293,72.32266,22.500710010528564
1618159822.70856,68.4967,22.516340017318726
1618159822.72418,62.78647,22.531960010528564
1618159822.73981,54.95932,22.547590017318726
1618159822.75543,45.34912,22.563210010528564
1618159822.77106,34.76407,22.578840017318726
1618159822.78668,24.19666,22.594460010528564
1618159822.80231,14.4921,22.610090017318726
1618159822.81794,5.985382,22.625720024108887
1618159822.83356,-1.521698,22.641340017318726
1618159822.84919,-8.489197,22.656970024108887
1618159822.86481,-15.31763,22.672590017318726
1618159822.88044,-22.08252,22.688220024108887
1618159822.89606,-28.33994,22.703840017318726
1618159822.91169,-33.20554,22.719470024108887
1618159822.92732,-35.56897,22.735100030899048
1618159822.94294,-34.25101,22.750720024108887
1618159822.95857,-28.21463,22.766350030899048
1618159822.97419,-16.8902,22.781970024108887
1618159822.98982,-0.3781738,22.797600030899048
1618159823.00544,20.28384,22.813220024108887
1618159823.02107,43.13831,22.828850030899048
1618159823.0367,65.655,22.84448003768921
1618159823.05232,85.38617,22.860100030899048
1618159823.06795,100.6116,22.87573003768921
1618159823.08357,110.8617,22.891350030899048
1618159823.0992,116.9086,22.90698003768921
1618159823.11482,120.2403,22.922600030899048
1618159823.13045,122.3981,22.93823003768921
1618159823.14608,124.3262,22.95386004447937
1618159823.1617,126.0617,22.96948003768921
1618159823.17733,127.0247,22.98511004447937
1618159823.19295,126.3961,23.00073003768921
1618159823.20858,123.4965,23.01636004447937
1618159823.2242,118.0016,23.03198003768921
1618159823.23983,109.9231,23.04761004447937
1618159823.25546,99.50751,23.06324005126953
1618159823.27108,87.2063,23.07886004447937
1618159823.28671,73.63446,23.09449005126953
1618159823.30233,59.50409,23.11011004447937
1618159823.31796,45.57501,23.12574005126953
1618159823.33358,32.67279,23.14136004447937
1618159823.34921,21.89319,23.15699005126953
1618159823.36484,14.82623,23.172620058059692
1618159823.38046,13.39886,23.18824005126953
1618159823.39609,19.02319,23.203870058059692
1618159823.41171,31.61774,23.21949005126953
1618159823.42734,48.64093,23.235120058059692
1618159823.44296,65.2757,23.25074005126953
1618159823.45859,75.80835,23.266370058059692
1618159823.47422,75.59497,23.282000064849854
1618159823.48984,62.80133,23.297620058059692
1618159823.50547,38.7298,23.313250064849854
1618159823.52109,6.865173,23.328870058059692
1618159823.53672,-28.94531,23.344500064849854
1618159823.55234,-65.82056,23.360120058059692
1618159823.56797,-102.2226,23.375750064849854
1618159823.5836,-137.2919,23.391380071640015
1618159823.59922,-169.9025,23.407000064849854
1618159823.61485,-198.3889,23.422630071640015
1618159823.63047,-220.993,23.438250064849854
1618159823.6461,-236.7874,23.453880071640015
1618159823.66173,-246.3903,23.469510078430176
1618159823.67735,-251.8455,23.485130071640015
1618159823.69298,-255.6928,23.500760078430176
1618159823.7086,-259.7569,23.516380071640015
1618159823.72423,-264.3562,23.532010078430176
1618159823.73985,-268.0565,23.547630071640015
1618159823.75548,-268.2815,23.563260078430176
1618159823.77111,-262.2936,23.578890085220337
1618159823.78673,-248.2842,23.594510078430176
1618159823.80236,-226.1288,23.610140085220337
1618159823.81798,-197.5345,23.625760078430176
1618159823.83361,-165.509,23.641390085220337
1618159823.84923,-133.4428,23.657010078430176
1618159823.86486,-104.1914,23.672640085220337
1618159823.88049,-79.41608,23.688270092010498
1618159823.89611,-59.6095,23.703890085220337
1618159823.91174,-44.42249,23.719520092010498
1618159823.92736,-33.17542,23.735140085220337
1618159823.94299,-25.29633,23.750770092010498
1618159823.95861,-20.34869,23.766390085220337
1618159823.97424,-17.95038,23.782020092010498
1618159823.98987,-17.5188,23.79765009880066
1618159824.00549,-18.25958,23.813270092010498
1618159824.02112,-19.29016,23.82890009880066
1618159824.03674,-19.89337,23.844520092010498
1618159824.05237,-19.66986,23.86015009880066
1618159824.06799,-18.59332,23.875770092010498
1618159824.08362,-16.87726,23.89140009880066
1618159824.09925,-14.72089,23.90703010559082
1618159824.11487,-12.27673,23.92265009880066
1618159824.1305,-9.6651,23.93828010559082
1618159824.14612,-7.054443,23.95390009880066
1618159824.16175,-4.817322,23.96953010559082
1618159824.17737,-3.463928,23.98515009880066
1618159824.193,-3.502319,24.00078010559082
1618159824.20863,-5.218506,24.01641011238098
1618159824.22425,-8.513916,24.03203010559082
1618159824.23988,-12.90442,24.04766011238098
1618159824.2555,-17.77277,24.06328010559082
1618159824.27113,-22.62122,24.07891011238098
1618159824.28675,-27.315,24.09453010559082
1618159824.30238,-32.12885,24.11016011238098
1618159824.31801,-37.61414,24.125790119171143
1618159824.33363,-44.28345,24.14141011238098
1618159824.34926,-52.3255,24.157040119171143
1618159824.36488,-61.32156,24.17266011238098
1618159824.38051,-70.06586,24.188290119171143
1618159824.39613,-76.71942,24.20391011238098
1618159824.41176,-79.21115,24.219540119171143
1618159824.42739,-75.8031,24.235170125961304
1618159824.44301,-65.7471,24.250790119171143
1618159824.45864,-49.59766,24.266420125961304
1618159824.47426,-29.2113,24.282040119171143
1618159824.48989,-7.229004,24.297670125961304
1618159824.50551,13.66769,24.313290119171143
1618159824.52114,31.43503,24.328920125961304
1618159824.53677,44.94376,24.344550132751465
1618159824.55239,53.98462,24.360170125961304
1618159824.56802,58.89648,24.375800132751465
1618159824.58364,60.23575,24.391420125961304
1618159824.59927,58.65649,24.407050132751465
1618159824.61489,54.81274,24.422670125961304
1618159824.63052,49.4505,24.438300132751465
1618159824.64615,43.40607,24.453930139541626
1618159824.66177,37.49707,24.469550132751465
1618159824.6774,32.39801,24.485180139541626
1618159824.69302,28.52673,24.500800132751465
1618159824.70865,26.03152,24.516430139541626
1618159824.72427,24.81885,24.532050132751465
1618159824.7399,24.70903,24.547680139541626
1618159824.75553,25.41228,24.563310146331787
1618159824.77115,26.56961,24.578930139541626
1618159824.78678,27.71321,24.594560146331787
1618159824.8024,28.2849,24.610180139541626
1618159824.81803,27.67767,24.625810146331787
1618159824.83365,25.43747,24.641430139541626
1618159824.84928,21.42717,24.657060146331787
1618159824.86491,15.90131,24.67268991470337
1618159824.88053,9.503342,24.688310146331787
1618159824.89616,3.021439,24.70393991470337
1618159824.91178,-2.843033,24.719560146331787
1618159824.92741,-7.733177,24.73518991470337
1618159824.94303,-11.77858,24.750810146331787
1618159824.95866,-15.55422,24.76643991470337
1618159824.97429,-19.88255,24.78206992149353
1618159824.98991,-25.52675,24.79768991470337
1618159825.00554,-32.77301,24.81331992149353
1618159825.02116,-41.0453,24.82893991470337
1618159825.03679,-48.84072,24.84456992149353
1618159825.05241,-53.90356,24.86018991470337
1618159825.06804,-53.92698,24.87581992149353
1618159825.08367,-47.35339,24.89144992828369
1618159825.09929,-34.02139,24.90706992149353
1618159825.11492,-15.34845,24.92269992828369
1618159825.13054,6.056915,24.93831992149353
1618159825.14617,27.21943,24.95394992828369
1618159825.16179,45.66048,24.96956992149353
1618159825.17742,59.89474,24.98519992828369
1618159825.19305,69.50531,25.000829935073853
1618159825.20867,74.83011,25.01644992828369
1618159825.2243,76.52881,25.032079935073853
1618159825.23992,75.32536,25.04769992828369
1618159825.25555,71.9103,25.063329935073853
1618159825.27117,67.0098,25.07894992828369
1618159825.2868,61.37148,25.094579935073853
1618159825.30243,55.74681,25.110209941864014
1618159825.31805,50.71506,25.125829935073853
1618159825.33368,46.59251,25.141459941864014
1618159825.3493,43.40564,25.157079935073853
1618159825.36493,40.97008,25.172709941864014
1618159825.38055,39.05759,25.188329935073853
1618159825.39618,37.52995,25.203959941864014
1618159825.41181,36.38876,25.219589948654175
1618159825.42743,35.71278,25.235209941864014
1618159825.44306,35.52409,25.250839948654175
1618159825.45868,35.59,25.266459941864014
1618159825.47431,35.42377,25.282089948654175
1618159825.48993,34.38264,25.297709941864014
1618159825.50556,31.89346,25.313339948654175
1618159825.52119,27.72324,25.328969955444336
1618159825.53681,22.0773,25.344589948654175
1618159825.55244,15.5697,25.360219955444336
1618159825.56806,8.901276,25.375839948654175
1618159825.58369,2.639343,25.391469955444336
1618159825.59931,-3.028229,25.407089948654175
1618159825.61494,-8.331543,25.422719955444336
1618159825.63057,-13.80017,25.438349962234497
1618159825.64619,-20.04849,25.453969955444336
1618159825.66182,-27.45291,25.469599962234497
1618159825.67744,-35.96478,25.485219955444336
1618159825.69307,-44.83578,25.500849962234497
1618159825.70869,-52.63901,25.516469955444336
1618159825.72432,-57.39203,25.532099962234497
1618159825.73995,-57.08847,25.547729969024658
1618159825.75557,-50.34564,25.563349962234497
1618159825.7712,-36.97424,25.578979969024658
1618159825.78682,-18.3447,25.594599962234497
1618159825.80245,3.003143,25.610229969024658
1618159825.81807,23.94299,25.625849962234497
1618159825.8337,41.85333,25.641479969024658
1618159825.84933,55.14496,25.65710997581482
1618159825.86495,63.5769,25.672729969024658
1618159825.88058,67.8555,25.68835997581482
1618159825.8962,69.06024,25.703979969024658
1618159825.91183,68.09415,25.71960997581482
1618159825.92745,65.43317,25.735229969024658
1618159825.94308,61.38617,25.75085997581482
1618159825.95871,56.30786,25.76648998260498
1618159825.97433,50.89844,25.78210997581482
1618159825.98996,46.00916,25.79773998260498
1618159826.00558,42.37579,25.81335997581482
1618159826.02121,40.29819,25.82898998260498
1618159826.03683,39.49408,25.84460997581482
1618159826.05246,39.32376,25.86023998260498
1618159826.06809,39.12625,25.87586998939514
1618159826.08371,38.55707,25.89148998260498
1618159826.09934,37.71326,25.90711998939514
1618159826.11496,36.96869,25.92273998260498
1618159826.13059,36.66785,25.93836998939514
1618159826.14621,36.84137,25.95398998260498
1618159826.16184,37.12103,25.96961998939514
1618159826.17747,36.81439,25.985249996185303
1618159826.19309,35.20752,26.00086998939514
1618159826.20872,31.85126,26.016499996185303
1618159826.22434,26.78046,26.03211998939514
1618159826.23997,20.51379,26.047749996185303
1618159826.2556,13.85168,26.063380002975464
1618159826.27122,7.591919,26.078999996185303
1618159826.28685,2.22052,26.094630002975464
1618159826.30247,-2.226563,26.110249996185303
1618159826.3181,-6.270752,26.125880002975464
1618159826.33372,-10.70233,26.141499996185303
1618159826.34935,-16.27747,26.157130002975464
1618159826.36498,-23.27844,26.172760009765625
1618159826.3806,-31.23639,26.188380002975464
1618159826.39623,-38.82257,26.204010009765625
1618159826.41185,-44.11523,26.219630002975464
1618159826.42748,-45.17133,26.235260009765625
1618159826.4431,-40.6593,26.250880002975464
1618159826.45873,-30.38818,26.266510009765625
1618159826.47436,-15.40784,26.282140016555786
1618159826.48998,2.247925,26.297760009765625
1618159826.50561,20.12585,26.313390016555786
1618159826.52123,36.01428,26.329010009765625
1618159826.53686,48.43066,26.344640016555786
1618159826.55248,56.73352,26.360260009765625
1618159826.56811,61.00244,26.375890016555786
1618159826.58374,61.7691,26.391520023345947
1618159826.59936,59.75934,26.407140016555786
1618159826.61499,55.79791,26.422770023345947
1618159826.63061,50.76294,26.438390016555786
1618159826.64624,45.53229,26.454020023345947
1618159826.66186,40.90979,26.469640016555786
1618159826.67749,37.49371,26.485270023345947
1618159826.69312,35.51099,26.50090003013611
1618159826.70874,34.81702,26.516520023345947
1618159826.72437,34.96948,26.53215003013611
1618159826.73999,35.43536,26.547770023345947
1618159826.75562,35.83173,26.56340003013611
1618159826.77124,36.02673,26.579020023345947
1618159826.78687,36.12506,26.59465003013611
1618159826.8025,36.31207,26.61028003692627
1618159826.81812,36.71313,26.62590003013611
1618159826.83375,37.2157,26.64153003692627
1618159826.84937,37.53546,26.65715003013611
1618159826.865,37.32318,26.67278003692627
1618159826.88062,36.27307,26.68840003013611
1618159826.89625,34.25598,26.70403003692627
1618159826.91188,31.31927,26.71966004371643
1618159826.9275,27.63989,26.73528003692627
1618159826.94313,23.45966,26.75091004371643
1618159826.95875,18.98651,26.76653003692627
1618159826.97438,14.3009,26.78216004371643
1618159826.99,9.327148,26.79778003692627
1618159827.00563,3.842468,26.81341004371643
1618159827.02126,-2.437012,26.829040050506592
1618159827.03688,-9.671387,26.84466004371643
1618159827.05251,-17.70428,26.860290050506592
1618159827.06813,-25.88806,26.87591004371643
1618159827.08376,-33.05768,26.891540050506592
1618159827.09938,-37.72913,26.90716004371643
1618159827.11501,-38.50171,26.922790050506592
1618159827.13064,-34.52722,26.938420057296753
1618159827.14626,-25.88062,26.954040050506592
1618159827.16189,-13.65302,26.969670057296753
1618159827.17751,0.3026733,26.985290050506592
1618159827.19314,13.83069,27.000920057296753
1618159827.20876,25.07886,27.016540050506592
1618159827.22439,32.91418,27.032170057296753
1618159827.24002,37.08582,27.047800064086914
1618159827.25564,38.03955,27.063420057296753
1618159827.27127,36.59766,27.079050064086914
1618159827.28689,33.63544,27.094670057296753
1618159827.30252,29.82697,27.110300064086914
1618159827.31814,25.68005,27.125920057296753
1618159827.33377,21.61188,27.141550064086914
1618159827.3494,18.04572,27.157180070877075
1618159827.36502,15.47394,27.172800064086914
1618159827.38065,14.3067,27.188430070877075
1618159827.39627,14.74908,27.204050064086914
1618159827.4119,16.71777,27.219680070877075
1618159827.42752,19.86078,27.235300064086914
1618159827.44315,23.68433,27.250930070877075
1618159827.45878,27.73431,27.266560077667236
1618159827.4744,31.64685,27.282180070877075
1618159827.49003,35.12537,27.297810077667236
1618159827.50565,37.91754,27.313430070877075
1618159827.52128,39.78333,27.329060077667236
1618159827.5369,40.51849,27.344680070877075
1618159827.55253,40.13342,27.360310077667236
1618159827.56816,38.84442,27.375940084457397
1618159827.58378,36.95538,27.391560077667236
1618159827.59941,34.73779,27.407190084457397
1618159827.61503,32.13232,27.422810077667236
1618159827.63066,28.79047,27.438440084457397
1618159827.64628,24.21271,27.454060077667236
1618159827.66191,18.02637,27.469690084457397
1618159827.67754,10.19391,27.48532009124756
1618159827.69316,1.144897,27.500940084457397
1618159827.70879,-8.29071,27.51657009124756
1618159827.72441,-16.99103,27.532190084457397
1618159827.74004,-23.59137,27.54782009124756
1618159827.75566,-26.71429,27.563440084457397
1618159827.77129,-25.22479,27.57907009124756
1618159827.78692,-18.6474,27.59470009803772
1618159827.80254,-7.531677,27.61032009124756
1618159827.81817,6.492737,27.62595009803772
1618159827.83379,21.06354,27.64157009124756
1618159827.84942,33.73914,27.65720009803772
1618159827.86504,42.69366,27.67282009124756
1618159827.88067,47.16351,27.68845009803772
1618159827.8963,47.40314,27.70408010482788
1618159827.91192,44.29126,27.71970009803772
1618159827.92755,38.87827,27.73533010482788
1618159827.94317,32.01834,27.75095009803772
1618159827.9588,24.35104,27.76658010482788
1618159827.97442,16.33173,27.78220009803772
1618159827.99005,8.326904,27.79783010482788
1618159828.00568,0.6217651,27.813460111618042
1618159828.0213,-6.563385,27.82908010482788
1618159828.03693,-13.07663,27.844710111618042
1618159828.05255,-18.79144,27.86033010482788
1618159828.06818,-23.53809,27.875960111618042
1618159828.0838,-27.18793,27.89158010482788
1618159828.09943,-29.65747,27.907210111618042
1618159828.11506,-31.08862,27.922840118408203
1618159828.13068,-31.8396,27.938460111618042
1618159828.14631,-32.39771,27.954090118408203
1618159828.16193,-33.18607,27.969710111618042
1618159828.17756,-34.42001,27.985340118408203
1618159828.19318,-36.11087,28.000960111618042
1618159828.20881,-38.12445,28.016590118408203
1618159828.22444,-40.28262,28.032220125198364
1618159828.24006,-42.43246,28.047840118408203
1618159828.25569,-44.45499,28.063470125198364
1618159828.27131,-46.24078,28.079090118408203
1618159828.28694,-47.67459,28.094720125198364
1618159828.30256,-48.73956,28.110340118408203
1618159828.31819,-49.56863,28.125970125198364
1618159828.33382,-50.51007,28.141600131988525
1618159828.34944,-52.00934,28.157220125198364
1618159828.36507,-54.3587,28.172850131988525
1618159828.38069,-57.39529,28.188470125198364
1618159828.39632,-60.29337,28.204100131988525
1618159828.41194,-61.61099,28.219720125198364
1618159828.42757,-59.65472,28.235350131988525
1618159828.4432,-53.13272,28.250980138778687
1618159828.45882,-41.68222,28.266600131988525
1618159828.47445,-26.15793,28.282230138778687
1618159828.49007,-8.39444,28.297850131988525
1618159828.5057,9.376068,28.313480138778687
1618159828.52133,25.15417,28.329110145568848
1618159828.53695,37.73679,28.344730138778687
1618159828.55258,46.84448,28.360360145568848
1618159828.5682,52.90717,28.375980138778687
1618159828.58383,56.72556,28.391610145568848
1618159828.59945,59.13129,28.407230138778687
1618159828.61508,60.82678,28.422860145568848
1618159828.63071,62.35495,28.43848991394043
1618159828.64633,64.06711,28.454110145568848
1618159828.66196,66.07672,28.46973991394043
1618159828.67758,68.24121,28.485360145568848
1618159828.69321,70.19022,28.50098991394043
1618159828.70883,71.41476,28.516610145568848
1618159828.72446,71.4176,28.53223991394043
1618159828.74009,69.8313,28.54786992073059
1618159828.75571,66.52365,28.56348991394043
1618159828.77134,61.67276,28.57911992073059
1618159828.78696,55.75919,28.59473991394043
1618159828.80259,49.37192,28.61036992073059
1618159828.81821,42.95712,28.62598991394043
1618159828.83384,36.74637,28.64161992073059
1618159828.84947,30.70065,28.657249927520752
1618159828.86509,24.54562,28.67286992073059
1618159828.88072,17.85986,28.688499927520752
1618159828.89634,10.36929,28.70411992073059
1618159828.91197,2.137619,28.719749927520752
1618159828.92759,-6.218765,28.73536992073059
1618159828.94322,-13.8156,28.750999927520752
1618159828.95885,-19.94931,28.766629934310913
1618159828.97447,-24.19739,28.782249927520752
1618159828.9901,-26.52565,28.797879934310913
1618159829.00572,-27.43936,28.813499927520752
1618159829.02135,-27.83435,28.829129934310913
1618159829.03697,-28.60114,28.844749927520752
1618159829.0526,-30.15569,28.860379934310913
1618159829.06823,-31.97383,28.876009941101074
1618159829.08385,-32.67941,28.891629934310913
1618159829.09948,-30.77814,28.907259941101074
1618159829.1151,-24.93387,28.922879934310913
1618159829.13073,-14.5239,28.938509941101074
1618159829.14635,-0.3170929,28.954129934310913
1618159829.16198,15.55356,28.969759941101074
1618159829.17761,30.19542,28.985389947891235
1618159829.19323,40.89351,29.001009941101074
1618159829.20886,46.28104,29.016639947891235
1618159829.22448,46.60099,29.032259941101074
1618159829.24011,43.1042,29.047889947891235
1618159829.25573,37.87357,29.063509941101074
1618159829.27136,33.36381,29.079139947891235
1618159829.28699,31.61745,29.094769954681396
1618159829.30261,34.03865,29.110389947891235
1618159829.31824,41.38746,29.126019954681396
1618159829.33386,52.25657,29.141639947891235
1618159829.34949,64.81207,29.157269954681396
1618159829.36511,79.52277,29.172889947891235
1618159829.38074,95.85143,29.188519954681396
1618159829.39637,111.5028,29.204149961471558
1618159829.41199,124.7573,29.219769954681396
1618159829.42762,134.4911,29.235399961471558
1618159829.44324,140.152,29.251019954681396
1618159829.45887,141.6557,29.266649961471558
1618159829.47449,139.1669,29.282269954681396
1618159829.49012,133.0904,29.297899961471558
1618159829.50575,123.6705,29.31352996826172
1618159829.52137,110.5984,29.329149961471558
1618159829.537,93.77918,29.34477996826172
1618159829.55262,73.97034,29.360399961471558
1618159829.56825,52.71936,29.37602996826172
1618159829.58387,32.25497,29.391649961471558
1618159829.5995,14.79854,29.40727996826172
1618159829.61513,1.712753,29.42290997505188
1618159829.63075,-6.968231,29.43852996826172
1618159829.64638,-12.51074,29.45415997505188
1618159829.662,-16.78194,29.46977996826172
1618159829.67763,-20.72778,29.48540997505188
1618159829.69325,-23.74664,29.50102996826172
1618159829.70888,-24.63533,29.51665997505188
1618159829.72451,-22.80994,29.53228998184204
1618159829.74013,-19.40929,29.54790997505188
1618159829.75576,-17.14737,29.56353998184204
1618159829.77138,-18.9848,29.57915997505188
1618159829.78701,-26.64819,29.59478998184204
1618159829.80263,-40.03693,29.61040997505188
1618159829.81826,-57.29166,29.62603998184204
1618159829.83389,-76.03043,29.641669988632202
1618159829.84951,-94.75027,29.65728998184204
1618159829.86514,-113.1571,29.672919988632202
1618159829.88076,-131.6038,29.68853998184204
1618159829.89639,-150.0818,29.704169988632202
1618159829.91201,-167.5724,29.71978998184204
1618159829.92764,-182.1875,29.735419988632202
1618159829.94327,-192.1369,29.751049995422363
1618159829.95889,-196.4677,29.766669988632202
1618159829.97452,-195.4072,29.782299995422363
1618159829.99014,-190.1996,29.797919988632202
1618159830.00577,-182.4943,29.813549995422363
1618159830.02139,-173.8166,29.829169988632202
1618159830.03702,-165.1433,29.844799995422363
1618159830.05265,-156.823,29.860430002212524
1618159830.06827,-148.7096,29.876049995422363
1618159830.0839,-140.525,29.891680002212524
1618159830.09952,-132.0842,29.907299995422363
1618159830.11515,-123.4525,29.922930002212524
1618159830.13077,-115.0403,29.938549995422363
1618159830.1464,-107.4193,29.954180002212524
1618159830.16203,-101.1108,29.969810009002686
1618159830.17765,-96.33099,29.985430002212524
1618159830.19328,-92.83276,30.001060009002686
1618159830.2089,-90.0817,30.016680002212524
1618159830.22453,-87.44263,30.032310009002686
1618159830.24015,-84.53735,30.047930002212524
1618159830.25578,-81.37268,30.063560009002686
1618159830.27141,-78.31378,30.079190015792847
1618159830.28703,-75.85727,30.094810009002686
1618159830.30266,-74.49005,30.110440015792847
1618159830.31828,-74.52161,30.126060009002686
1618159830.33391,-76.03503,30.141690015792847
1618159830.34953,-78.94675,30.157310009002686
1618159830.36516,-82.83652,30.172940015792847
1618159830.38079,-86.83206,30.188570022583008
1618159830.39641,-89.56082,30.204190015792847
1618159830.41204,-89.40009,30.219820022583008
1618159830.42766,-84.89725,30.235440015792847
1618159830.44329,-75.32715,30.251070022583008
1618159830.45891,-61.07877,30.266690015792847
1618159830.47454,-43.5741,30.282320022583008
1618159830.49017,-24.96539,30.29795002937317
1618159830.50579,-7.452972,30.313570022583008
1618159830.52142,7.27832,30.32920002937317
1618159830.53704,18.36859,30.344820022583008
1618159830.55267,25.74625,30.36045002937317
1618159830.56829,29.91571,30.376070022583008
1618159830.58392,31.64954,30.39170002937317
1618159830.59955,31.67166,30.40733003616333
1618159830.61517,30.56427,30.42295002937317
1618159830.6308,28.71439,30.43858003616333
1618159830.64642,26.36017,30.45420002937317
1618159830.66205,23.67245,30.46983003616333
1618159830.67768,20.90485,30.48546004295349
1618159830.6933,18.32864,30.50108003616333
1618159830.70893,16.26517,30.51671004295349
1618159830.72455,14.99054,30.53233003616333
1618159830.74018,14.63821,30.54796004295349
1618159830.7558,15.14371,30.56358003616333
1618159830.77143,16.23627,30.57921004295349
1618159830.78706,17.52695,30.594840049743652
1618159830.80268,18.56097,30.61046004295349
1618159830.81831,18.96341,30.626090049743652
1618159830.83393,18.45044,30.64171004295349
1618159830.84956,16.84625,30.657340049743652
1618159830.86518,14.06958,30.67296004295349
1618159830.88081,10.19095,30.688590049743652
1618159830.89644,5.444427,30.704220056533813
1618159830.91206,0.2974091,30.719840049743652
1618159830.92769,-4.746063,30.735470056533813
1618159830.94331,-9.277771,30.751090049743652
1618159830.95894,-13.24866,30.766720056533813
1618159830.97456,-17.08073,30.782340049743652
1618159830.99019,-21.57584,30.797970056533813
1618159831.00582,-27.5775,30.813600063323975
1618159831.02144,-35.47508,30.829220056533813
1618159831.03707,-44.76752,30.844850063323975
1618159831.05269,-53.9651,30.860470056533813
1618159831.06832,-60.90991,30.876100063323975
1618159831.08394,-63.42438,30.891720056533813
1618159831.09957,-60.03154,30.907350063323975
1618159831.1152,-50.51042,30.922980070114136
1618159831.13082,-35.92821,30.938600063323975
1618159831.14645,-18.37538,30.954230070114136
1618159831.16207,-0.3520813,30.969850063323975
1618159831.1777,15.90749,30.985480070114136
1618159831.19332,28.88017,31.001100063323975
1618159831.20895,37.91323,31.016730070114136
1618159831.22458,43.13963,31.032360076904297
1618159831.2402,45.1945,31.047980070114136
1618159831.25583,44.86991,31.063610076904297
1618159831.27145,42.95423,31.079230070114136
1618159831.28708,40.09467,31.094860076904297
1618159831.3027,36.76242,31.110480070114136
1618159831.31833,33.32526,31.126110076904297
1618159831.33396,30.06096,31.141740083694458
1618159831.34958,27.21331,31.157360076904297
1618159831.36521,24.98235,31.172990083694458
1618159831.38083,23.51062,31.188610076904297
1618159831.39646,22.79882,31.204240083694458
1618159831.41208,22.79758,31.219860076904297
1618159831.42771,23.41307,31.235490083694458
1618159831.44334,24.46648,31.25112009048462
1618159831.45896,25.66716,31.266740083694458
1618159831.47459,26.5375,31.28237009048462
1618159831.49021,26.47981,31.297990083694458
1618159831.50584,24.88597,31.31362009048462
1618159831.52146,21.44777,31.329240083694458
1618159831.53709,16.27752,31.34487009048462
1618159831.55272,9.941696,31.36050009727478
1618159831.56834,3.324135,31.37612009048462
1618159831.58397,-2.808174,31.39175009727478
1618159831.59959,-7.98056,31.40737009048462
1618159831.61522,-12.25555,31.42300009727478
1618159831.63084,-16.08005,31.43862009048462
1618159831.64647,-20.22472,31.45425009727478
1618159831.6621,-25.40798,31.46988010406494
1618159831.67772,-32.04995,31.48550009727478
1618159831.69335,-40.03418,31.50113010406494
1618159831.70897,-48.52885,31.51675009727478
1618159831.7246,-56.04225,31.53238010406494
1618159831.74022,-60.62117,31.54800009727478
1618159831.75585,-60.41029,31.56363010406494
1618159831.77148,-54.25623,31.579260110855103
1618159831.7871,-42.22426,31.59488010406494
1618159831.80273,-25.68707,31.610510110855103
1618159831.81835,-6.98642,31.62613010406494
1618159831.83398,11.24692,31.641760110855103
1618159831.8496,26.86325,31.65738010406494
1618159831.86523,38.61134,31.673010110855103
1618159831.88086,46.26881,31.688640117645264
1618159831.89648,50.27814,31.704260110855103
1618159831.91211,51.36006,31.719890117645264
1618159831.92773,50.17889,31.735510110855103
1618159831.94336,47.23375,31.751140117645264
1618159831.95898,42.98752,31.766760110855103
1618159831.97461,37.95673,31.782390117645264
1618159831.99024,32.81932,31.798020124435425
1618159832.00586,28.24425,31.813640117645264
1618159832.02149,24.75763,31.829270124435425
1618159832.03711,22.5621,31.844890117645264
1618159832.05274,21.54483,31.860520124435425
1618159832.06836,21.42139,31.876140117645264
1618159832.08399,21.81,31.891770124435425
1618159832.09962,22.37653,31.907400131225586
1618159832.11524,22.77353,31.923020124435425
1618159832.13087,22.71976,31.938650131225586
1618159832.14649,21.90381,31.954270124435425
1618159832.16212,20.12683,31.969900131225586
1618159832.17774,17.33337,31.985520124435425
1618159832.19337,13.6673,32.001150131225586
1618159832.209,9.431885,32.01678013801575
1618159832.22462,4.93866,32.032400131225586
1618159832.24025,0.4341125,32.04803013801575
1618159832.25587,-4.023682,32.063650131225586
1618159832.2715,-8.550018,32.07928013801575
1618159832.28712,-13.44839,32.094900131225586
1618159832.30275,-19.1015,32.11053013801575
1618159832.31838,-25.79105,32.12616014480591
1618159832.334,-33.49826,32.14178013801575
1618159832.34963,-41.62048,32.15741014480591
1618159832.36525,-48.92474,32.17303013801575
1618159832.38088,-53.64148,32.18866014480591
1618159832.3965,-53.98486,32.20428013801575
1618159832.41213,-48.68884,32.21991014480591
1618159832.42776,-37.56885,32.23553991317749
1618159832.44338,-21.78122,32.25116014480591
1618159832.45901,-3.52124,32.26678991317749
1618159832.47463,14.56155,32.28241014480591
1618159832.49026,30.14389,32.29803991317749
1618159832.50588,41.81851,32.31366014480591
1618159832.52151,49.26617,32.32928991317749
1618159832.53714,52.94708,32.34491991996765
1618159832.55276,53.69843,32.36053991317749
1618159832.56839,52.31305,32.37616991996765
1618159832.58401,49.3381,32.39178991317749
1618159832.59964,45.15582,32.40741991996765
1618159832.61526,40.14017,32.42303991317749
1618159832.63089,34.82693,32.43866991996765
1618159832.64652,29.88974,32.45429992675781
1618159832.66214,26.01166,32.46991991996765
1618159832.67777,23.61987,32.48554992675781
1618159832.69339,22.75281,32.50116991996765
1618159832.70902,23.03021,32.51679992675781
1618159832.72464,23.78528,32.53241991996765
1618159832.74027,24.24982,32.54804992675781
1618159832.7559,23.77789,32.563679933547974
1618159832.77152,22.02118,32.57929992675781
1618159832.78715,18.97437,32.594929933547974
1618159832.80277,14.89264,32.61054992675781
1618159832.8184,10.22131,32.626179933547974
1618159832.83402,5.368713,32.64179992675781
1618159832.84965,0.5993652,32.657429933547974
1618159832.86528,-4.039185,32.673059940338135
1618159832.8809,-8.682007,32.688679933547974
1618159832.89653,-13.5658,32.704309940338135
1618159832.91215,-18.95557,32.719929933547974
1618159832.92778,-25.03424,32.735559940338135
1618159832.9434,-31.85547,32.751179933547974
1618159832.95903,-39.1521,32.766809940338135
1618159832.97466,-46.17456,32.782439947128296
1618159832.99028,-51.68658,32.798059940338135
1618159833.00591,-54.15155,32.813689947128296
1618159833.02153,-52.13373,32.829309940338135
1618159833.03716,-44.80231,32.844939947128296
1618159833.05278,-32.38477,32.860559940338135
1618159833.06841,-16.20007,32.876189947128296
1618159833.08404,1.649658,32.89181995391846
1618159833.09966,18.84393,32.907439947128296
1618159833.11529,33.47662,32.92306995391846
1618159833.13091,44.4046,32.938689947128296
1618159833.14654,51.38232,32.95431995391846
1618159833.16216,54.83118,32.969939947128296
1618159833.17779,55.56183,32.98556995391846
1618159833.19342,54.37836,33.00119996070862
1618159833.20904,51.88489,33.01681995391846
1618159833.22467,48.43567,33.03244996070862
1618159833.24029,44.21838,33.04806995391846
1618159833.25592,39.4339,33.06369996070862
1618159833.27154,34.4278,33.07931995391846
1618159833.28717,29.74823,33.09494996070862
1618159833.3028,25.98322,33.11057996749878
1618159833.31842,23.58972,33.12619996070862
1618159833.33405,22.64606,33.14182996749878
1618159833.34967,22.78015,33.15744996070862
1618159833.3653,23.30945,33.17307996749878
1618159833.38093,23.47015,33.18870997428894
1618159833.39655,22.66992,33.20432996749878
1618159833.41218,20.64569,33.21995997428894
1618159833.4278,17.47443,33.23557996749878
1618159833.44343,13.4223,33.25120997428894
1618159833.45905,8.837585,33.26682996749878
1618159833.47468,4.021179,33.28245997428894
1618159833.49031,-0.8049927,33.2980899810791
1618159833.50593,-5.448792,33.31370997428894
1618159833.52156,-9.806763,33.3293399810791
1618159833.53718,-13.92383,33.34495997428894
1618159833.55281,-18.01276,33.3605899810791
1618159833.56843,-22.40796,33.37620997428894
1618159833.58406,-27.32129,33.3918399810791
1618159833.59969,-32.54156,33.40746998786926
1618159833.61531,-37.20349,33.4230899810791
1618159833.63094,-39.88263,33.43871998786926
1618159833.64656,-38.91681,33.4543399810791
1618159833.66219,-33.11676,33.46996998786926
1618159833.67781,-22.23157,33.4855899810791
1618159833.69344,-7.250549,33.50121998786926
1618159833.70907,9.77948,33.516849994659424
1618159833.72469,26.39856,33.53246998786926
1618159833.74032,40.47876,33.548099994659424
1618159833.75594,50.71613,33.56371998786926
1618159833.77157,56.82837,33.579349994659424
1618159833.78719,59.39691,33.59496998786926
1618159833.80282,59.31635,33.610599994659424
1618159833.81845,57.54541,33.626230001449585
1618159833.83407,54.79706,33.641849994659424
1618159833.8497,51.50269,33.657480001449585
1618159833.86532,47.93182,33.673099994659424
1618159833.88095,44.31635,33.688730001449585
1618159833.89657,40.86737,33.704349994659424
1618159833.9122,37.79498,33.719980001449585
1618159833.92783,35.3053,33.735610008239746
1618159833.94345,33.42346,33.751230001449585
1618159833.95908,32.1662,33.766860008239746
1618159833.9747,31.45038,33.782480001449585
1618159833.99033,31.14209,33.798110008239746
1618159834.00595,31.0152,33.813730001449585
1618159834.02158,30.77985,33.829360008239746
1618159834.03721,30.04102,33.84499001502991
1618159834.05283,28.39191,33.860610008239746
1618159834.06846,25.59003,33.87624001502991
1618159834.08408,21.56287,33.891860008239746
1618159834.09971,16.64758,33.90749001502991
1618159834.11533,11.50391,33.923110008239746
1618159834.13096,6.895996,33.93874001502991
1618159834.14659,3.439453,33.95437002182007
1618159834.16221,1.254272,33.96999001502991
1618159834.17784,-0.1455078,33.98562002182007
1618159834.19346,-1.711975,34.00124001502991
1618159834.20909,-4.507874,34.01687002182007
1618159834.22471,-9.322876,34.03249001502991
1618159834.24034,-16.11249,34.04812002182007
1618159834.25597,-23.86743,34.06375002861023
1618159834.27159,-30.8078,34.07937002182007
1618159834.28722,-34.86322,34.09500002861023
1618159834.30284,-34.38403,34.11062002182007
1618159834.31847,-28.74628,34.12625002861023
1618159834.33409,-18.4964,34.14187002182007
1618159834.34972,-5.176758,34.15750002861023
1618159834.36535,9.151672,34.17313003540039
1618159834.38097,22.58698,34.18875002861023
1618159834.3966,33.74457,34.20438003540039
1618159834.41222,41.87817,34.22000002861023
1618159834.42785,46.82593,34.23563003540039
1618159834.44347,48.73682,34.25125002861023
1618159834.4591,47.94122,34.26688003540039
1618159834.47473,44.99524,34.28251004219055
1618159834.49035,40.72638,34.29813003540039
1618159834.50598,36.12134,34.31376004219055
1618159834.5216,32.2124,34.32938003540039
1618159834.53723,29.69958,34.34501004219055
1618159834.55285,28.7677,34.36063003540039
1618159834.56848,29.07715,34.37626004219055
1618159834.58411,29.95068,34.39189004898071
1618159834.59973,30.65991,34.40751004219055
1618159834.61536,30.79425,34.42314004898071
1618159834.63098,30.33411,34.43876004219055
1618159834.64661,29.52924,34.45439004898071
1618159834.66223,28.72668,34.47001004219055
1618159834.67786,28.07806,34.48564004898071
1618159834.69349,27.39355,34.501270055770874
1618159834.70911,26.25818,34.51689004898071
1618159834.72474,24.15698,34.532520055770874
1618159834.74036,20.76898,34.54814004898071
1618159834.75599,16.17804,34.563770055770874
1618159834.77161,10.88647,34.57939004898071
1618159834.78724,5.62323,34.595020055770874
1618159834.80287,1.162292,34.610650062561035
1618159834.81849,-1.995605,34.626270055770874
1618159834.83412,-3.78009,34.641900062561035
1618159834.84974,-4.549011,34.657520055770874
1618159834.86537,-5.062195,34.673150062561035
1618159834.88099,-6.207092,34.688770055770874
1618159834.89662,-8.699829,34.704400062561035
1618159834.91225,-12.85071,34.720030069351196
1618159834.92787,-18.32764,34.735650062561035
1618159834.9435,-24.11041,34.751280069351196
1618159834.95912,-28.72028,34.766900062561035
1618159834.97475,-30.62531,34.782530069351196
1618159834.99037,-28.74469,34.798150062561035
1618159835.006,-22.89954,34.813780069351196
1618159835.02163,-13.9212,34.82941007614136
1618159835.03725,-3.351685,34.845030069351196
1618159835.05288,7.051208,34.86066007614136
1618159835.0685,15.87762,34.876280069351196
1618159835.08413,22.38684,34.89191007614136
1618159835.09975,26.50867,34.907530069351196
1618159835.11538,28.56604,34.92316007614136
1618159835.13101,29.0495,34.93879008293152
1618159835.14663,28.37592,34.95441007614136
1618159835.16226,26.87,34.97004008293152
1618159835.17788,24.86902,34.98566007614136
1618159835.19351,22.7356,35.00129008293152
1618159835.20913,20.85577,35.01691007614136
1618159835.22476,19.48602,35.03254008293152
1618159835.24039,18.74323,35.04817008972168
1618159835.25601,18.58691,35.06379008293152
1618159835.27164,18.91974,35.07942008972168
1618159835.28726,19.65503,35.09504008293152
1618159835.30289,20.64819,35.11067008972168
1618159835.31851,21.60406,35.12629008293152
1618159835.33414,22.03271,35.14192008972168
1618159835.34977,21.36536,35.15755009651184
1618159835.36539,19.08893,35.17317008972168
1618159835.38102,14.97693,35.18880009651184
1618159835.39664,9.165283,35.20442008972168
1618159835.41227,2.058533,35.22005009651184
1618159835.42789,-5.852234,35.23567008972168
1618159835.44352,-14.1424,35.25130009651184
1618159835.45915,-22.46924,35.266930103302
1618159835.47477,-30.526,35.28255009651184
1618159835.4904,-37.91846,35.298180103302
1618159835.50602,-44.19092,35.31380009651184
1618159835.52165,-49.04791,35.329430103302
1618159835.53728,-52.46155,35.34506011009216
1618159835.5529,-54.81244,35.360680103302
1618159835.56853,-56.72314,35.37631011009216
1618159835.58415,-58.77441,35.391930103302
1618159835.59978,-61.12634,35.40756011009216
1618159835.6154,-63.3269,35.423180103302
1618159835.63103,-64.34686,35.43881011009216
1618159835.64666,-62.89014,35.454440116882324
1618159835.66228,-57.93469,35.47006011009216
1618159835.67791,-49.09521,35.485690116882324
1618159835.69353,-36.91516,35.50131011009216
1618159835.70916,-22.66602,35.516940116882324
1618159835.72478,-8.027893,35.53256011009216
1618159835.74041,5.383667,35.548190116882324
1618159835.75604,16.46185,35.563820123672485
1618159835.77166,24.72217,35.579440116882324
1618159835.78729,30.25415,35.595070123672485
1618159835.80291,33.45563,35.610690116882324
1618159835.81854,34.83716,35.626320123672485
1618159835.83416,34.80951,35.641940116882324
1618159835.84979,33.823,35.657570123672485
1618159835.86542,32.31714,35.67320013046265
1618159835.88104,30.73413,35.688820123672485
1618159835.89667,29.40143,35.70445013046265
1618159835.91229,28.35065,35.720070123672485
1618159835.92792,27.27509,35.73570013046265
1618159835.94354,25.62939,35.751320123672485
1618159835.95917,22.92816,35.76695013046265
1618159835.9748,18.95978,35.78258013725281
1618159835.99042,14.02216,35.79820013046265
1618159836.00605,8.769043,35.81383013725281
1618159836.02167,3.958496,35.82945013046265
1618159836.0373,0.08294678,35.84508013725281
1618159836.05292,-2.800537,35.86070013046265
1618159836.06855,-5.074463,35.87633013725281
1618159836.08418,-7.367249,35.89196014404297
1618159836.0998,-10.20905,35.90758013725281
1618159836.11543,-13.84967,35.92321014404297
1618159836.13105,-18.19788,35.93883013725281
1618159836.14668,-22.91711,35.95446014404297
1618159836.1623,-27.60022,35.97008013725281
1618159836.17793,-31.90234,35.98571014404297
1618159836.19356,-35.66785,36.00133991241455
1618159836.20918,-38.88922,36.01696014404297
1618159836.22481,-41.72089,36.03258991241455
1618159836.24043,-44.39059,36.04821014404297
1618159836.25606,-47.0704,36.06383991241455
1618159836.27168,-49.76041,36.07946014404297
1618159836.28731,-52.14651,36.09508991241455
1618159836.30294,-53.56308,36.11071991920471
1618159836.31856,-53.0849,36.12633991241455
1618159836.33419,-49.86969,36.14196991920471
1618159836.34981,-43.4873,36.15758991241455
1618159836.36544,-34.18719,36.17321991920471
1618159836.38106,-22.92084,36.18883991241455
1618159836.39669,-11.04309,36.20446991920471
1618159836.41232,0.1183167,36.22009992599487
1618159836.42794,9.623993,36.23571991920471
1618159836.44357,17.05658,36.25134992599487
1618159836.45919,22.4306,36.26696991920471
1618159836.47482,25.92615,36.28259992599487
1618159836.49044,27.76285,36.29821991920471
1618159836.50607,28.1181,36.31384992599487
1618159836.5217,27.23645,36.329479932785034
1618159836.53732,25.47443,36.34509992599487
1618159836.55295,23.34384,36.360729932785034
1618159836.56857,21.40524,36.37634992599487
1618159836.5842,20.06567,36.391979932785034
1618159836.59982,19.44568,36.40759992599487
1618159836.61545,19.35898,36.423229932785034
1618159836.63108,19.41901,36.438859939575195
1618159836.6467,19.22073,36.454479932785034
1618159836.66233,18.54147,36.470109939575195
1618159836.67795,17.42093,36.485729932785034
1618159836.69358,16.05978,36.501359939575195
1618159836.7092,14.66684,36.516979932785034
1618159836.72483,13.3139,36.532609939575195
1618159836.74046,11.86127,36.548239946365356
1618159836.75608,10.00629,36.563859939575195
1618159836.77171,7.443024,36.579489946365356
1618159836.78733,4.057678,36.595109939575195
1618159836.80296,-0.03439331,36.610739946365356
1618159836.81858,-4.520142,36.626359939575195
1618159836.83421,-9.025665,36.641989946365356
1618159836.84984,-13.29178,36.65761995315552
1618159836.86546,-17.17432,36.673239946365356
1618159836.88109,-20.62903,36.68886995315552
1618159836.89671,-23.67249,36.704489946365356
1618159836.91234,-26.38162,36.72011995315552
1618159836.92796,-28.89108,36.735739946365356
1618159836.94359,-31.42603,36.75136995315552
1618159836.95922,-34.21274,36.76699995994568
1618159836.97484,-37.30954,36.78261995315552
1618159836.99047,-40.41357,36.79824995994568
1618159837.00609,-42.79349,36.81386995315552
1618159837.02172,-43.43234,36.82949995994568
1618159837.03734,-41.42395,36.84511995315552
1618159837.05297,-36.34543,36.86074995994568
1618159837.0686,-28.49014,36.87637996673584
1618159837.08422,-18.80984,36.89199995994568
1618159837.09985,-8.56546,36.90762996673584
1618159837.11547,1.056488,36.92324995994568
1618159837.1311,9.233002,36.93887996673584
1618159837.14672,15.58694,36.95449995994568
1618159837.16235,20.03229,36.97012996673584
1618159837.17798,22.65982,36.985759973526
1618159837.1936,23.67096,37.00137996673584
1618159837.20923,23.33401,37.017009973526
1618159837.22485,21.98856,37.03262996673584
1618159837.24048,20.07648,37.048259973526
1618159837.2561,18.06726,37.06387996673584
1618159837.27173,16.35376,37.079509973526
1618159837.28736,15.27567,37.09513998031616
1618159837.30298,15.01913,37.110759973526
1618159837.31861,15.56705,37.12638998031616
1618159837.33423,16.73511,37.142009973526
1618159837.34986,18.17899,37.15763998031616
1618159837.36548,19.54498,37.173259973526
1618159837.38111,20.6088,37.18888998031616
1618159837.39674,21.35388,37.20451998710632
1618159837.41236,21.94424,37.22013998031616
1618159837.42799,22.59436,37.23576998710632
1618159837.44361,23.34152,37.25138998031616
1618159837.45924,23.96039,37.26701998710632
1618159837.47486,24.0412,37.28263998031616
1618159837.49049,23.12213,37.29826998710632
1618159837.50612,20.96814,37.313899993896484
1618159837.52174,17.62335,37.32951998710632
1618159837.53737,13.39578,37.345149993896484
1618159837.55299,8.67926,37.36076998710632
1618159837.56862,3.853607,37.376399993896484
1618159837.58424,-0.8642273,37.39201998710632
1618159837.59987,-5.424011,37.407649993896484
1618159837.6155,-9.857574,37.423280000686646
1618159837.63112,-14.30255,37.438899993896484
1618159837.64675,-18.87161,37.454530000686646
1618159837.66237,-23.62097,37.470149993896484
1618159837.678,-28.47479,37.485780000686646
1618159837.69362,-33.1828,37.501399993896484
1618159837.70925,-37.25891,37.517030000686646
1618159837.72488,-40.05197,37.53266000747681
1618159837.7405,-40.83679,37.548280000686646
1618159837.75613,-38.97604,37.56391000747681
1618159837.77175,-34.16293,37.579530000686646
1618159837.78738,-26.58157,37.59516000747681
1618159837.803,-16.97913,37.610780000686646
1618159837.81863,-6.530853,37.62641000747681
1618159837.83426,3.449036,37.64204001426697
1618159837.84988,11.8302,37.65766000747681
1618159837.86551,17.98837,37.67329001426697
1618159837.88113,21.84622,37.68891000747681
1618159837.89676,23.75278,37.70454001426697
1618159837.91238,24.18707,37.72016000747681
1618159837.92801,23.5907,37.73579001426697
1618159837.94364,22.28442,37.75142002105713
1618159837.95926,20.55917,37.76704001426697
1618159837.97489,18.78882,37.78267002105713
1618159837.99051,17.40112,37.79829001426697
1618159838.00614,16.74792,37.81392002105713
1618159838.02176,16.91278,37.82954001426697
1618159838.03739,17.6189,37.84517002105713
1618159838.05302,18.33191,37.86080002784729
1618159838.06864,18.56271,37.87642002105713
1618159838.08427,18.09317,37.89205002784729
1618159838.09989,17.02988,37.90767002105713
1618159838.11552,15.71283,37.92330002784729
1618159838.13115,14.4758,37.93893003463745
1618159838.14677,13.45432,37.95455002784729
1618159838.1624,12.49878,37.97018003463745
1618159838.17802,11.31339,37.98580002784729
1618159838.19365,9.595551,38.00143003463745
1618159838.20927,7.141846,38.01705002784729
1618159838.2249,3.964752,38.03268003463745
1618159838.24053,0.2250671,38.04831004142761
1618159838.25615,-3.833405,38.06393003463745
1618159838.27178,-7.958191,38.07956004142761
1618159838.2874,-11.95331,38.09518003463745
1618159838.30303,-15.75714,38.11081004142761
1618159838.31865,-19.44452,38.12643003463745
1618159838.33428,-23.15067,38.14206004142761
1618159838.34991,-27.01923,38.15769004821777
1618159838.36553,-31.02432,38.17331004142761
1618159838.38116,-34.8873,38.18894004821777
1618159838.39678,-38.01807,38.20456004142761
1618159838.41241,-39.65256,38.22019004821777
1618159838.42803,-39.02313,38.23581004142761
1618159838.44366,-35.70679,38.25144004821777
1618159838.45929,-29.82236,38.267070055007935
1618159838.47491,-22.07553,38.28269004821777
1618159838.49054,-13.61227,38.298320055007935
1618159838.50616,-5.639679,38.31394004821777
1618159838.52179,0.8996582,38.329570055007935
1618159838.53741,5.562897,38.34519004821777
1618159838.55304,8.348816,38.360820055007935
1618159838.56867,9.503021,38.376450061798096
1618159838.58429,9.372894,38.392070055007935
1618159838.59992,8.227997,38.407700061798096
1618159838.61554,6.353455,38.423320055007935
1618159838.63117,4.037689,38.438950061798096
1618159838.64679,1.659058,38.454570055007935
1618159838.66242,-0.4944458,38.470200061798096
1618159838.67805,-2.293152,38.48583006858826
1618159838.69367,-3.793213,38.501450061798096
1618159838.7093,-5.172974,38.51708006858826
1618159838.72492,-6.480225,38.532700061798096
1618159838.74055,-7.580475,38.54833006858826
1618159838.75617,-8.174011,38.563950061798096
1618159838.7718,-8.030731,38.57958006858826
1618159838.78743,-7.124512,38.59521007537842
1618159838.80305,-5.766205,38.61083006858826
1618159838.81868,-4.453918,38.62646007537842
1618159838.8343,-3.645172,38.64208006858826
1618159838.84993,-3.641388,38.65771007537842
1618159838.86555,-4.446899,38.67333006858826
1618159838.88118,-5.946594,38.68896007537842
1618159838.89681,-7.96347,38.70459008216858
1618159838.91243,-10.41806,38.72021007537842
1618159838.92806,-13.25797,38.73584008216858
1618159838.94368,-16.40924,38.75146007537842
1618159838.95931,-19.74571,38.76709008216858
1618159838.97493,-23.11925,38.78271007537842
1618159838.99056,-26.50934,38.79834008216858
1618159839.00619,-30.00235,38.81397008895874
1618159839.02181,-33.78682,38.82959008216858
1618159839.03744,-37.81837,38.84522008895874
1618159839.05306,-41.67969,38.86084008216858
1618159839.06869,-44.46719,38.87647008895874
1618159839.08431,-45.00136,38.89209008216858
1618159839.09994,-42.32301,38.90772008895874
1618159839.11557,-36.03824,38.9233500957489
1618159839.13119,-26.64632,38.93897008895874
1618159839.14682,-15.35579,38.9546000957489
1618159839.16244,-3.788208,38.97022008895874
1618159839.17807,6.637466,38.9858500957489
1618159839.19369,14.99478,39.00147008895874
1618159839.20932,20.93704,39.0171000957489
1618159839.22495,24.62628,39.03273010253906
1618159839.24057,26.38026,39.0483500957489
1618159839.2562,26.58942,39.06398010253906
1618159839.27182,25.60344,39.0796000957489
1618159839.28745,23.8504,39.09523010253906
1618159839.30307,21.77632,39.1108500957489
1618159839.3187,19.85944,39.12648010253906
1618159839.33433,18.45987,39.142110109329224
1618159839.34995,17.67105,39.15773010253906
1618159839.36558,17.32358,39.173360109329224
1618159839.3812,17.02246,39.18898010253906
1618159839.39683,16.41499,39.204610109329224
1618159839.41245,15.28152,39.22023010253906
1618159839.42808,13.72784,39.235860109329224
1618159839.44371,12.01807,39.251490116119385
1618159839.45933,10.47067,39.267110109329224
1618159839.47496,9.283478,39.282740116119385
1618159839.49058,8.399933,39.298360109329224
1618159839.50621,7.614594,39.313990116119385
1618159839.52183,6.640076,39.329610109329224
1618159839.53746,5.29895,39.345240116119385
1618159839.55309,3.495819,39.360870122909546
1618159839.56871,1.310028,39.376490116119385
1618159839.58434,-1.139221,39.392120122909546
1618159839.59996,-3.719879,39.407740116119385
1618159839.61559,-6.376343,39.423370122909546
1618159839.63121,-9.187988,39.438990116119385
1618159839.64684,-12.30927,39.454620122909546
1618159839.66247,-16.00635,39.47025012969971
1618159839.67809,-20.43036,39.485870122909546
1618159839.69372,-25.44525,39.50150012969971
1618159839.70934,-30.508,39.517120122909546
1618159839.72497,-34.61722,39.53275012969971
1618159839.74059,-36.55084,39.548370122909546
1618159839.75622,-35.22723,39.56400012969971
1618159839.77185,-30.1525,39.57963013648987
1618159839.78747,-21.61902,39.59525012969971
1618159839.8031,-10.70251,39.61088013648987
1618159839.81872,1.102997,39.62650012969971
1618159839.83435,12.33432,39.64213013648987
1618159839.84997,21.88776,39.65775012969971
1618159839.8656,29.17804,39.67338013648987
1618159839.88123,34.02899,39.68901014328003
1618159839.89685,36.5744,39.70463013648987
1618159839.91248,37.04994,39.72026014328003
1618159839.9281,35.88177,39.73588013648987
1618159839.94373,33.60049,39.75151014328003
1618159839.95935,30.87488,39.76713013648987
1618159839.97498,28.43484,39.78276014328003
1618159839.99061,26.84579,39.79838991165161
1618159840.00623,26.347,39.81401014328003
1618159840.02186,26.74677,39.82963991165161
1618159840.03748,27.51968,39.84526014328003
1618159840.05311,28.03922,39.86088991165161
1618159840.06873,27.85637,39.87651014328003
1618159840.08436,26.84203,39.89213991165161
1618159840.09999,25.24895,39.90776991844177
1618159840.11561,23.51617,39.92338991165161
1618159840.13124,22.00189,39.93901991844177
1618159840.14686,20.76208,39.95463991165161
1618159840.16249,19.45009,39.97026991844177
1618159840.17811,17.51791,39.98588991165161
1618159840.19374,14.56383,40.00151991844177
1618159840.20937,10.56889,40.017149925231934
1618159840.22499,5.9104,40.03276991844177
1618159840.24062,1.256256,40.048399925231934
1618159840.25624,-2.726685,40.06401991844177
1618159840.27187,-5.658508,40.079649925231934
1618159840.28749,-7.555664,40.09526991844177
1618159840.30312,-8.801315,40.110899925231934
1618159840.31875,-9.982697,40.126529932022095
1618159840.33437,-11.51833,40.142149925231934
1618159840.35,-13.58485,40.157779932022095
1618159840.36562,-16.08437,40.173399925231934
1618159840.38125,-18.5699,40.189029932022095
1618159840.39687,-20.15816,40.204649925231934
1618159840.4125,-19.7374,40.220279932022095
1618159840.42813,-16.17227,40.235909938812256
1618159840.44375,-8.708191,40.251529932022095
1618159840.45938,2.583313,40.267159938812256
1618159840.475,17.03371,40.282779932022095
1618159840.49063,33.4205,40.298409938812256
1618159840.50626,50.23264,40.31403994560242
1618159840.52188,66.12962,40.329659938812256
1618159840.53751,80.33073,40.34528994560242
1618159840.55313,92.58556,40.360909938812256
1618159840.56876,102.9401,40.37653994560242
1618159840.58438,111.4139,40.392159938812256
1618159840.60001,117.53,40.40778994560242
1618159840.61564,120.7742,40.42341995239258
1618159840.63126,120.6813,40.43903994560242
1618159840.64689,117.0258,40.45466995239258
1618159840.66251,110.1046,40.47028994560242
1618159840.67814,101.0246,40.48591995239258
1618159840.69376,91.333,40.50153994560242
1618159840.70939,82.6162,40.51716995239258
1618159840.72502,76.04299,40.53279995918274
1618159840.74064,71.75555,40.54841995239258
1618159840.75627,69.60155,40.56404995918274
1618159840.77189,69.27843,40.57966995239258
1618159840.78752,70.46334,40.59529995918274
1618159840.80314,71.24489,40.61091995239258
1618159840.81877,70.54297,40.62654995918274
1618159840.8344,68.146,40.6421799659729
1618159840.85002,64.8203,40.65779995918274
1618159840.86565,63.86195,40.6734299659729
1618159840.88127,65.75088,40.68904995918274
1618159840.8969,69.55114,40.7046799659729
1618159840.91252,73.94784,40.72029995918274
1618159840.92815,77.36804,40.7359299659729
1618159840.94378,79.21585,40.75155997276306
1618159840.9594,79.57567,40.7671799659729
1618159840.97503,78.52556,40.78280997276306
1618159840.99065,75.73003,40.7984299659729
1618159841.00628,70.2781,40.81405997276306
1618159841.0219,60.6372,40.8296799659729
1618159841.03753,45.67196,40.84530997276306
1618159841.05316,25.05057,40.86093997955322
1618159841.06878,-0.5283966,40.87655997276306
1618159841.08441,-28.97841,40.89218997955322
1618159841.10003,-56.67345,40.90780997276306
1618159841.11566,-78.94588,40.92343997955322
1618159841.13128,-91.08879,40.93905997276306
1618159841.14691,-90.01163,40.95468997955322
1618159841.16254,-75.95111,40.970319986343384
1618159841.17816,-52.60799,40.98593997955322
1618159841.19379,-26.40831,41.001569986343384
1618159841.20941,-4.541824,41.01718997955322
1618159841.22504,7.47522,41.032819986343384
1618159841.24066,7.392761,41.04843997955322
1618159841.25629,-3.750092,41.064069986343384
1618159841.27192,-22.91452,41.079699993133545
1618159841.28754,-46.84207,41.095319986343384
1618159841.30317,-73.37277,41.110949993133545
1618159841.31879,-101.2638,41.126569986343384
1618159841.33442,-129.493,41.142199993133545
1618159841.35004,-156.6283,41.157819986343384
1618159841.36567,-180.5491,41.173449993133545
1618159841.3813,-199.0445,41.189079999923706
1618159841.39692,-210.6441,41.204699993133545
1618159841.41255,-215.196,41.220329999923706
1618159841.42817,-213.8519,41.235949993133545
1618159841.4438,-208.5446,41.251579999923706
1618159841.45942,-201.1169,41.267199993133545
1618159841.47505,-192.8506,41.282829999923706
1618159841.49068,-184.3168,41.29846000671387
1618159841.5063,-175.5987,41.314079999923706
1618159841.52193,-166.6291,41.32971000671387
1618159841.53755,-157.4742,41.345329999923706
1618159841.55318,-148.4859,41.36096000671387
1618159841.5688,-140.1902,41.376579999923706
1618159841.58443,-132.9843,41.39221000671387
1618159841.60006,-126.9465,41.40784001350403
1618159841.61568,-121.7831,41.42346000671387
1618159841.63131,-117.0889,41.43909001350403
1618159841.64693,-112.6524,41.45471000671387
1618159841.66256,-108.7339,41.47034001350403
1618159841.67818,-105.9411,41.48596000671387
1618159841.69381,-104.9975,41.50159001350403
1618159841.70944,-106.243,41.51722002029419
1618159841.72506,-109.1686,41.53284001350403
1618159841.74069,-112.3694,41.54847002029419
1618159841.75631,-113.7523,41.56409001350403
1618159841.77194,-111.1465,41.57972002029419
1618159841.78756,-103.004,41.59534001350403
1618159841.80319,-88.95892,41.61097002029419
1618159841.81882,-69.9538,41.62660002708435
1618159841.83444,-48.05368,41.64222002029419
1618159841.85007,-25.85806,41.65785002708435
1618159841.86569,-5.775391,41.67347002029419
1618159841.88132,10.47723,41.68910002708435
1618159841.89694,22.12317,41.70472002029419
1618159841.91257,29.32187,41.72035002708435
1618159841.9282,32.84076,41.73598003387451
1618159841.94382,33.69891,41.75160002708435
1618159841.95945,32.94046,41.76723003387451
1618159841.97507,31.41037,41.78285002708435
1618159841.9907,29.67538,41.79848003387451
1618159842.00632,28.09506,41.81410002708435
1618159842.02195,26.78784,41.82973003387451
1618159842.03758,25.71582,41.84536004066467
1618159842.0532,24.83322,41.86098003387451
1618159842.06883,24.11249,41.87661004066467
1618159842.08445,23.63123,41.89223003387451
1618159842.10008,23.52045,41.90786004066467
1618159842.1157,23.867,41.92348003387451
1618159842.13133,24.49799,41.93911004066467
1618159842.14696,25.08899,41.954740047454834
1618159842.16258,25.07074,41.97036004066467
1618159842.17821,23.95,41.985990047454834
1618159842.19383,21.4774,42.00161004066467
1618159842.20946,17.7296,42.017240047454834
1618159842.22508,13.09291,42.03286004066467
1618159842.24071,8.036255,42.048490047454834
1618159842.25634,2.962234,42.064120054244995
1618159842.27196,-2.00946,42.079740047454834
1618159842.28759,-6.911057,42.095370054244995
1618159842.30321,-11.95088,42.110990047454834
1618159842.31884,-17.3997,42.126620054244995
1618159842.33446,-23.53856,42.142240047454834
1618159842.35009,-30.59499,42.157870054244995
1618159842.36572,-38.59117,42.173500061035156
1618159842.38134,-47.05384,42.189120054244995
1618159842.39697,-54.80445,42.204750061035156
1618159842.41259,-60.02139,42.220370054244995
1618159842.42822,-60.60532,42.236000061035156
1618159842.44384,-55.00021,42.251620054244995
1618159842.45947,-42.87185,42.267250061035156
1618159842.4751,-25.42985,42.28288006782532
1618159842.49072,-5.241943,42.298500061035156
1618159842.50635,14.61029,42.31413006782532
1618159842.52197,31.4545,42.329750061035156
1618159842.5376,43.74468,42.34538006782532
1618159842.55322,51.29359,42.361000061035156
1618159842.56885,54.99236,42.37663006782532
1618159842.58448,56.19973,42.39226007461548
1618159842.6001,56.16102,42.40788006782532
1618159842.61573,55.69273,42.42351007461548
1618159842.63135,55.0162,42.43913006782532
1618159842.64698,54.03617,42.45476007461548
1618159842.66261,52.49777,42.47039008140564
1618159842.67823,50.28413,42.48601007461548
1618159842.69386,47.45383,42.50164008140564
1618159842.70948,44.26369,42.51726007461548
1618159842.72511,41.07372,42.53289008140564
1618159842.74073,38.2054,42.54851007461548
1618159842.75636,35.85358,42.56414008140564
1618159842.77199,34.00455,42.5797700881958
1618159842.78761,32.51779,42.59539008140564
1618159842.80324,31.1908,42.6110200881958
1618159842.81886,29.81642,42.62664008140564
1618159842.83449,28.21878,42.6422700881958
1618159842.85011,26.24298,42.65789008140564
1618159842.86574,23.68302,42.6735200881958
1618159842.88137,20.32202,42.68915009498596
1618159842.89699,16.0395,42.7047700881958
1618159842.91262,10.89314,42.72040009498596
1618159842.92824,5.197479,42.7360200881958
1618159842.94387,-0.6335754,42.75165009498596
1618159842.95949,-6.275208,42.7672700881958
1618159842.97512,-11.74748,42.78290009498596
1618159842.99075,-17.47075,42.79853010177612
1618159843.00637,-23.98758,42.81415009498596
1618159843.022,-31.58044,42.82978010177612
1618159843.03762,-39.81824,42.84540009498596
1618159843.05325,-47.343,42.86103010177612
1618159843.06887,-52.17371,42.87665009498596
1618159843.0845,-52.30354,42.89228010177612
1618159843.10013,-46.46556,42.907910108566284
1618159843.11575,-34.62332,42.92353010177612
1618159843.13138,-18.13208,42.939160108566284
1618159843.147,0.7236023,42.95478010177612
1618159843.16263,19.36728,42.970410108566284
1618159843.17825,35.60847,42.98603010177612
1618159843.19388,48.07643,43.001660108566284
1618159843.20951,56.30312,43.017290115356445
1618159843.22513,60.52124,43.032910108566284
1618159843.24076,61.40646,43.048540115356445
1618159843.25638,59.79999,43.064160108566284
1618159843.27201,56.52148,43.079790115356445
1618159843.28763,52.28442,43.095410108566284
1618159843.30326,47.68893,43.111040115356445
1618159843.31889,43.15988,43.126670122146606
1618159843.33451,39.00739,43.142290115356445
1618159843.35014,35.42593,43.157920122146606
1618159843.36576,32.57968,43.173540115356445
1618159843.38139,30.61035,43.189170122146606
1618159843.39701,29.60327,43.204790115356445
1618159843.41264,29.47589,43.220420122146606
1618159843.42827,29.97772,43.23605012893677
1618159843.44389,30.65784,43.251670122146606
1618159843.45952,30.9791,43.26730012893677
1618159843.47514,30.49585,43.282920122146606
1618159843.49077,28.96085,43.29855012893677
1618159843.50639,26.37192,43.314170122146606
1618159843.52202,22.92014,43.32980012893677
1618159843.53765,18.91388,43.34543013572693
1618159843.55327,14.63419,43.36105012893677
1618159843.5689,10.30612,43.37668013572693
1618159843.58452,6.084381,43.39230012893677
1618159843.60015,1.997162,43.40793013572693
1618159843.61577,-2.01712,43.42355012893677
1618159843.6314,-6.200836,43.43918013572693
1618159843.64703,-10.96436,43.45481014251709
1618159843.66265,-16.69836,43.47043013572693
1618159843.67828,-23.48465,43.48606014251709
1618159843.6939,-30.80807,43.50168013572693
1618159843.70953,-37.39172,43.51731014251709
1618159843.72515,-41.44464,43.53293013572693
1618159843.74078,-41.21469,43.54856014251709
1618159843.75641,-35.66086,43.56418991088867
1618159843.77203,-24.96649,43.57981014251709
1618159843.78766,-10.58545,43.59543991088867
1618159843.80328,5.171814,43.61106014251709
1618159843.81891,19.86673,43.62668991088867
1618159843.83453,31.67499,43.64231014251709
1618159843.85016,39.77075,43.65793991088867
1618159843.86579,44.24118,43.67356991767883
1618159843.88141,45.72681,43.68918991088867
1618159843.89704,44.96918,43.70481991767883
1618159843.91266,42.52142,43.72043991088867
1618159843.92829,38.76782,43.73606991767883
1618159843.94391,34.06021,43.75168991088867
1618159843.95954,28.83771,43.76731991767883
1618159843.97517,23.64954,43.782949924468994
1618159843.99079,19.08023,43.79856991767883
1618159844.00642,15.61728,43.814199924468994
1618159844.02204,13.52448,43.82981991767883
1618159844.03767,12.81546,43.845449924468994
1618159844.05329,13.23837,43.86106991767883
1618159844.06892,14.36893,43.876699924468994
1618159844.08455,15.65317,43.892329931259155
1618159844.10017,16.56177,43.907949924468994
1618159844.1158,16.6532,43.923579931259155
1618159844.13142,15.72421,43.939199924468994
1618159844.14705,13.85074,43.954829931259155
1618159844.16267,11.30359,43.970449924468994
1618159844.1783,8.382141,43.986079931259155
1618159844.19393,5.262329,44.001709938049316
1618159844.20955,1.893707,44.017329931259155
1618159844.22518,-1.899536,44.032959938049316
1618159844.2408,-6.287659,44.048579931259155
1618159844.25643,-11.35129,44.064209938049316
1618159844.27205,-17.09677,44.079829931259155
1618159844.28768,-23.40027,44.095459938049316
1618159844.30331,-29.99472,44.11108994483948
1618159844.31893,-36.31284,44.126709938049316
1618159844.33456,-41.34167,44.14233994483948
1618159844.35018,-43.67828,44.157959938049316
1618159844.36581,-41.90112,44.17358994483948
1618159844.38143,-35.06152,44.189209938049316
1618159844.39706,-23.26511,44.20483994483948
1618159844.41269,-7.856842,44.22046995162964
1618159844.42831,8.858673,44.23608994483948
1618159844.44394,24.30191,44.25171995162964
1618159844.45956,36.44116,44.26733994483948
1618159844.47519,44.35922,44.28296995162964
1618159844.49081,48.26279,44.29858994483948
1618159844.50644,49.08136,44.31421995162964
1618159844.52207,47.86746,44.3298499584198
1618159844.53769,45.30765,44.34546995162964
1618159844.55332,41.64371,44.3610999584198
1618159844.56894,36.93323,44.37671995162964
1618159844.58457,31.31906,44.3923499584198
1618159844.60019,25.36523,44.40796995162964
1618159844.61582,19.91208,44.4235999584198
1618159844.63145,15.83145,44.43922996520996
1618159844.64707,13.63873,44.4548499584198
1618159844.6627,13.32568,44.47047996520996
1618159844.67832,14.34723,44.4860999584198
1618159844.69395,15.89673,44.50172996520996
1618159844.70957,17.24203,44.5173499584198
1618159844.7252,17.88455,44.53297996520996
1618159844.74083,17.71283,44.54860997200012
1618159844.75645,16.80615,44.56422996520996
1618159844.77208,15.34924,44.57985997200012
1618159844.7877,13.46991,44.59547996520996
1618159844.80333,11.18005,44.61110997200012
1618159844.81895,8.411835,44.62672996520996
1618159844.83458,5.060944,44.64235997200012
1618159844.85021,1.090607,44.65798997879028
1618159844.86583,-3.510803,44.67360997200012
1618159844.88146,-8.693176,44.68923997879028
1618159844.89708,-14.34879,44.70485997200012
1618159844.91271,-20.16977,44.72048997879028
1618159844.92833,-25.5795,44.73610997200012
1618159844.94396,-29.66791,44.75173997879028
1618159844.95959,-31.25388,44.767369985580444
1618159844.97521,-29.17416,44.78298997879028
1618159844.99084,-22.64212,44.798619985580444
1618159845.00646,-11.63626,44.81423997879028
1618159845.02209,3.012451,44.829869985580444
1618159845.03771,19.73767,44.84548997879028
1618159845.05334,36.625,44.861119985580444
1618159845.06897,51.9386,44.876749992370605
1618159845.08459,64.36957,44.892369985580444
1618159845.10022,73.33145,44.907999992370605
1618159845.11584,78.8656,44.923619985580444
1618159845.13147,81.5238,44.939249992370605
1618159845.14709,82.05252,44.954869985580444
1618159845.16272,81.26181,44.970499992370605
1618159845.17835,79.82248,44.98612999916077
1618159845.19397,78.20166,45.001749992370605
1618159845.2096,76.71408,45.01737999916077
1618159845.22522,75.50043,45.032999992370605
1618159845.24085,74.67987,45.04862999916077
1618159845.25647,74.23047,45.064249992370605
1618159845.2721,74.04419,45.07987999916077
1618159845.28773,73.95807,45.09551000595093
1618159845.30335,73.65744,45.11112999916077
1618159845.31898,72.75754,45.12676000595093
1618159845.3346,70.80222,45.14237999916077
1618159845.35023,67.32034,45.15801000595093
1618159845.36586,61.96652,45.17364001274109
1618159845.38148,54.69586,45.18926000595093
1618159845.39711,45.78839,45.20489001274109
1618159845.41273,35.84781,45.22051000595093
1618159845.42836,25.66055,45.23614001274109
1618159845.44398,15.82114,45.25176000595093
1618159845.45961,6.594757,45.26739001274109
1618159845.47524,-2.089172,45.28302001953125
1618159845.49086,-10.48587,45.29864001274109
1618159845.50649,-18.86035,45.31427001953125
1618159845.52211,-27.31021,45.32989001274109
1618159845.53774,-35.80078,45.34552001953125
1618159845.55336,-44.10565,45.36114001274109
1618159845.56899,-51.69891,45.37677001953125
1618159845.58462,-57.70627,45.39240002632141
1618159845.60024,-60.94177,45.40802001953125
1618159845.61587,-60.16901,45.42365002632141
1618159845.63149,-54.62491,45.43927001953125
1618159845.64712,-44.53342,45.45490002632141
1618159845.66274,-31.22046,45.47052001953125
1618159845.67837,-16.88199,45.48615002632141
1618159845.694,-3.878418,45.50178003311157
1618159845.70962,5.92395,45.51740002632141
1618159845.72525,11.57083,45.53303003311157
1618159845.74087,13.086,45.54865002632141
1618159845.7565,11.21414,45.56428003311157
1618159845.77212,7.037811,45.57990002632141
1618159845.78775,1.735443,45.59553003311157
1618159845.80338,-3.682465,45.61116003990173
1618159845.819,-8.537354,45.62678003311157
1618159845.83463,-12.52295,45.64241003990173
1618159845.85025,-15.81351,45.65803003311157
1618159845.86588,-18.84946,45.67366003990173
1618159845.8815,-22.12656,45.68928003311157
1618159845.89713,-25.9332,45.70491003990173
1618159845.91276,-30.23352,45.720540046691895
1618159845.92838,-34.67387,45.73616003990173
1618159845.94401,-38.76031,45.751790046691895
1618159845.95963,-42.12444,45.76741003990173
1618159845.97526,-44.63026,45.783040046691895
1618159845.99088,-46.35703,45.79866003990173
1618159846.00651,-47.45677,45.814290046691895
1618159846.02214,-48.05602,45.829920053482056
1618159846.03776,-48.22127,45.845540046691895
1618159846.05339,-47.99873,45.861170053482056
1618159846.06901,-47.51802,45.876790046691895
1618159846.08464,-47.00288,45.892420053482056
1618159846.10026,-46.72021,45.908040046691895
1618159846.11589,-46.8669,45.923670053482056
1618159846.13152,-47.49924,45.93930006027222
1618159846.14714,-48.55322,45.954920053482056
1618159846.16277,-49.95345,45.97055006027222
1618159846.17839,-51.71396,45.986170053482056
1618159846.19402,-53.88153,46.00180006027222
1618159846.20964,-56.38469,46.017420053482056
1618159846.22527,-58.7894,46.03305006027222
1618159846.2409,-60.20985,46.04868006706238
1618159846.25652,-59.45738,46.06430006027222
1618159846.27215,-55.37541,46.07993006706238
1618159846.28777,-47.29782,46.09555006027222
