timestamp,value,norm_ts
1619091066.60277,61.10269,4.771120071411133
1619091066.6184,62.44421,4.786750078201294
1619091066.63402,63.16989,4.802370071411133
1619091066.64965,63.41739,4.818000078201294
1619091066.66527,63.39276,4.833620071411133
1619091066.6809,63.26379,4.849250078201294
1619091066.69652,63.17508,4.864870071411133
1619091066.71215,63.18787,4.880500078201294
1619091066.72778,63.23846,4.896130084991455
1619091066.7434,63.10684,4.911750078201294
1619091066.75903,62.48062,4.927380084991455
1619091066.77465,61.00897,4.943000078201294
1619091066.79028,58.44705,4.958630084991455
1619091066.8059,54.80222,4.974250078201294
1619091066.82153,50.36972,4.989880084991455
1619091066.83716,45.64487,5.005510091781616
1619091066.85278,41.14987,5.021130084991455
1619091066.86841,37.22479,5.036760091781616
1619091066.88403,33.89377,5.052380084991455
1619091066.89966,30.91986,5.068010091781616
1619091066.91528,27.97021,5.083630084991455
1619091066.93091,24.79486,5.099260091781616
1619091066.94654,21.39282,5.114890098571777
1619091066.96216,17.88962,5.130510091781616
1619091066.97779,14.47302,5.146140098571777
1619091066.99341,11.21194,5.161760091781616
1619091067.00904,7.964722,5.177390098571777
1619091067.02466,4.495422,5.193010091781616
1619091067.04029,0.6265259,5.208640098571777
1619091067.05592,-3.609528,5.224269866943359
1619091067.07154,-7.944244,5.239890098571777
1619091067.08717,-11.95093,5.255519866943359
1619091067.10279,-15.33801,5.271140098571777
1619091067.11842,-18.0643,5.286769866943359
1619091067.13404,-20.40836,5.302390098571777
1619091067.14967,-22.85275,5.318019866943359
1619091067.1653,-25.87643,5.3336498737335205
1619091067.18092,-29.68192,5.349269866943359
1619091067.19655,-34.10867,5.3648998737335205
1619091067.21217,-38.73669,5.380519866943359
1619091067.2278,-43.02097,5.3961498737335205
1619091067.24342,-46.57648,5.411769866943359
1619091067.25905,-49.31558,5.4273998737335205
1619091067.27468,-51.46802,5.443029880523682
1619091067.2903,-53.52246,5.4586498737335205
1619091067.30593,-56.15082,5.474279880523682
1619091067.32155,-60.06107,5.4898998737335205
1619091067.33718,-65.74667,5.505529880523682
1619091067.3528,-73.24918,5.5211498737335205
1619091067.36843,-81.83572,5.536779880523682
1619091067.38406,-89.89285,5.552409887313843
1619091067.39968,-95.24442,5.568029880523682
1619091067.41531,-95.72833,5.583659887313843
1619091067.43093,-90.02713,5.599279880523682
1619091067.44656,-78.27768,5.614909887313843
1619091067.46218,-62.09982,5.630529880523682
1619091067.47781,-44.11783,5.646159887313843
1619091067.49344,-27.09381,5.661789894104004
1619091067.50906,-13.00314,5.677409887313843
1619091067.52469,-2.592285,5.693039894104004
1619091067.54031,4.525787,5.708659887313843
1619091067.55594,9.460693,5.724289894104004
1619091067.57156,13.40195,5.739909887313843
1619091067.58719,17.12497,5.755539894104004
1619091067.60282,20.88205,5.771169900894165
1619091067.61844,24.50912,5.786789894104004
1619091067.63407,27.68344,5.802419900894165
1619091067.64969,30.13885,5.818039894104004
1619091067.66532,31.79088,5.833669900894165
1619091067.68094,32.68895,5.849289894104004
1619091067.69657,33.02678,5.864919900894165
1619091067.7122,32.99457,5.880549907684326
1619091067.72782,32.7681,5.896169900894165
1619091067.74345,32.452,5.911799907684326
1619091067.75907,32.14726,5.927419900894165
1619091067.7747,31.96132,5.943049907684326
1619091067.79032,32.01752,5.958669900894165
1619091067.80595,32.42523,5.974299907684326
1619091067.82158,33.18733,5.989929914474487
1619091067.8372,34.17497,6.005549907684326
1619091067.85283,35.0984,6.021179914474487
1619091067.86845,35.58078,6.036799907684326
1619091067.88408,35.29262,6.052429914474487
1619091067.8997,34.09988,6.068049907684326
1619091067.91533,32.172,6.083679914474487
1619091067.93096,29.95216,6.099309921264648
1619091067.94658,27.98625,6.114929914474487
1619091067.96221,26.6983,6.130559921264648
1619091067.97783,26.23946,6.146179914474487
1619091067.99346,26.4084,6.161809921264648
1619091068.00908,26.80321,6.177429914474487
1619091068.02471,26.99332,6.193059921264648
1619091068.04034,26.66898,6.20868992805481
1619091068.05596,25.68588,6.224309921264648
1619091068.07159,24.07507,6.23993992805481
1619091068.08721,21.96524,6.255559921264648
1619091068.10284,19.50169,6.27118992805481
1619091068.11846,16.80133,6.286809921264648
1619091068.13409,13.95427,6.30243992805481
1619091068.14972,10.95377,6.318069934844971
1619091068.16534,7.72963,6.33368992805481
1619091068.18097,4.112289,6.349319934844971
1619091068.19659,-0.07550049,6.36493992805481
1619091068.21222,-5.013443,6.380569934844971
1619091068.22784,-10.77559,6.39618992805481
1619091068.24347,-17.30197,6.411819934844971
1619091068.2591,-24.4248,6.427449941635132
1619091068.27472,-31.8356,6.443069934844971
1619091068.29035,-39.18185,6.458699941635132
1619091068.30597,-46.13052,6.474319934844971
1619091068.3216,-52.50119,6.489949941635132
1619091068.33722,-58.40723,6.505569934844971
1619091068.35285,-64.30797,6.521199941635132
1619091068.36848,-70.88838,6.536829948425293
1619091068.3841,-78.78935,6.552449941635132
1619091068.39973,-88.18364,6.568079948425293
1619091068.41535,-98.4007,6.583699941635132
1619091068.43098,-107.9166,6.599329948425293
1619091068.4466,-114.6161,6.614949941635132
1619091068.46223,-116.4672,6.630579948425293
1619091068.47786,-112.2162,6.646209955215454
1619091068.49348,-101.8616,6.661829948425293
1619091068.50911,-86.65683,6.677459955215454
1619091068.52473,-68.7625,6.693079948425293
1619091068.54036,-50.53494,6.708709955215454
1619091068.55598,-33.89455,6.724329948425293
1619091068.57161,-19.98119,6.739959955215454
1619091068.58724,-9.065842,6.755589962005615
1619091068.60286,-0.7509308,6.771209955215454
1619091068.61849,5.710724,6.786839962005615
1619091068.63411,11.11302,6.802459955215454
1619091068.64974,16.09442,6.818089962005615
1619091068.66536,21.05884,6.833709955215454
1619091068.68099,26.1324,6.849339962005615
1619091068.69662,31.245,6.864969968795776
1619091068.71224,36.19925,6.880589962005615
1619091068.72787,40.7261,6.896219968795776
1619091068.74349,44.6205,6.911839962005615
1619091068.75912,47.74927,6.927469968795776
1619091068.77474,50.16359,6.943089962005615
1619091068.79037,52.00853,6.958719968795776
1619091068.806,53.5668,6.9743499755859375
1619091068.82162,55.10985,6.989969968795776
1619091068.83725,56.84526,7.0055999755859375
1619091068.85287,58.7865,7.021219968795776
1619091068.8685,60.75479,7.0368499755859375
1619091068.88412,62.40932,7.052469968795776
1619091068.89975,63.34746,7.0680999755859375
1619091068.91538,63.21266,7.083729982376099
1619091068.931,61.79321,7.0993499755859375
1619091068.94663,59.05464,7.114979982376099
1619091068.96225,55.13921,7.1305999755859375
1619091068.97788,50.35703,7.146229982376099
1619091068.99351,45.13177,7.16185998916626
1619091069.00913,39.94955,7.177479982376099
1619091069.02476,35.15596,7.19310998916626
1619091069.04038,30.86852,7.208729982376099
1619091069.05601,26.892,7.22435998916626
1619091069.07163,22.83457,7.239979982376099
1619091069.08726,18.27592,7.25560998916626
1619091069.10289,12.99187,7.271239995956421
1619091069.11851,7.053375,7.28685998916626
1619091069.13414,0.8161011,7.302489995956421
1619091069.14976,-5.187111,7.31810998916626
1619091069.16539,-10.44798,7.333739995956421
1619091069.18101,-14.62218,7.34935998916626
1619091069.19664,-17.68482,7.364989995956421
1619091069.21227,-19.9493,7.380620002746582
1619091069.22789,-22.00892,7.396239995956421
1619091069.24352,-24.57555,7.411870002746582
1619091069.25914,-28.24977,7.427489995956421
1619091069.27477,-33.26789,7.443120002746582
1619091069.29039,-39.34701,7.458739995956421
1619091069.30602,-45.80395,7.474370002746582
1619091069.32165,-51.81621,7.490000009536743
1619091069.33727,-56.86831,7.505620002746582
1619091069.3529,-60.98022,7.521250009536743
1619091069.36852,-64.736,7.536870002746582
1619091069.38415,-69.04852,7.552500009536743
1619091069.39977,-74.74444,7.568120002746582
1619091069.4154,-82.23203,7.583750009536743
1619091069.43103,-91.20576,7.599380016326904
1619091069.44665,-100.5684,7.615000009536743
1619091069.46228,-108.5802,7.630630016326904
1619091069.4779,-113.1725,7.646250009536743
1619091069.49353,-112.4661,7.661880016326904
1619091069.50915,-105.3373,7.677500009536743
1619091069.52478,-91.86876,7.693130016326904
1619091069.54041,-73.44165,7.708760023117065
1619091069.55603,-52.44601,7.724380016326904
1619091069.57166,-31.56006,7.740010023117065
1619091069.58728,-13.04173,7.755630016326904
1619091069.60291,1.850365,7.771260023117065
1619091069.61853,12.99438,7.786880016326904
1619091069.63416,21.11179,7.802510023117065
1619091069.64979,27.25365,7.818140029907227
1619091069.66541,32.27904,7.833760023117065
1619091069.68104,36.66064,7.849390029907227
1619091069.69666,40.46726,7.865010023117065
1619091069.71229,43.54961,7.880640029907227
1619091069.72791,45.72714,7.896260023117065
1619091069.74354,46.89877,7.911890029907227
1619091069.75917,47.05582,7.927520036697388
1619091069.77479,46.27396,7.943140029907227
1619091069.79042,44.64224,7.958770036697388
1619091069.80604,42.34733,7.974390029907227
1619091069.82167,39.70088,7.990020036697388
1619091069.83729,37.11561,8.005640029907227
1619091069.85292,34.91459,8.021270036697388
1619091069.86855,33.14671,8.036900043487549
1619091069.88417,31.47412,8.052520036697388
1619091069.8998,29.32449,8.068150043487549
1619091069.91542,26.17388,8.083770036697388
1619091069.93105,21.86416,8.099400043487549
1619091069.94667,16.85992,8.115020036697388
1619091069.9623,12.0643,8.130650043487549
1619091069.97793,8.586288,8.14628005027771
1619091069.99355,7.26136,8.161900043487549
1619091070.00918,8.455635,8.17753005027771
1619091070.0248,11.95637,8.193150043487549
1619091070.04043,17.03448,8.20878005027771
1619091070.05605,22.51897,8.224400043487549
1619091070.07168,27.02537,8.24003005027771
1619091070.08731,29.22434,8.255660057067871
1619091070.10293,28.19006,8.27128005027771
1619091070.11856,23.83279,8.286910057067871
1619091070.13418,17.01604,8.30253005027771
1619091070.14981,9.448357,8.318160057067871
1619091070.16543,3.058922,8.33378005027771
1619091070.18106,-0.6625061,8.349410057067871
1619091070.19669,-1.228073,8.365040063858032
1619091070.21231,0.7701111,8.380660057067871
1619091070.22794,3.995895,8.396290063858032
1619091070.24356,6.883911,8.411910057067871
1619091070.25919,8.086945,8.427540063858032
1619091070.27481,6.699829,8.443160057067871
1619091070.29044,2.155731,8.458790063858032
1619091070.30607,-5.726921,8.474420070648193
1619091070.32169,-16.70346,8.490040063858032
1619091070.33732,-29.84177,8.505670070648193
1619091070.35294,-43.37059,8.521290063858032
1619091070.36857,-54.80702,8.536920070648193
1619091070.38419,-61.57944,8.552540063858032
1619091070.39982,-61.83313,8.568170070648193
1619091070.41545,-55.14481,8.583800077438354
1619091070.43107,-42.88101,8.599420070648193
1619091070.4467,-27.71304,8.615050077438354
1619091070.46232,-12.77994,8.630670070648193
1619091070.47795,-0.6053772,8.646300077438354
1619091070.49357,7.539444,8.661920070648193
1619091070.5092,11.75677,8.677550077438354
1619091070.52483,13.10207,8.693180084228516
1619091070.54045,12.91794,8.708800077438354
1619091070.55608,12.31039,8.724430084228516
1619091070.5717,11.87334,8.740050077438354
1619091070.58733,11.83367,8.755680084228516
1619091070.60295,12.21086,8.771300077438354
1619091070.61858,13.06866,8.786930084228516
1619091070.63421,14.49562,8.802560091018677
1619091070.64983,16.60071,8.818180084228516
1619091070.66546,19.36937,8.833810091018677
1619091070.68108,22.61942,8.849430084228516
1619091070.69671,26.04765,8.865060091018677
1619091070.71233,29.24316,8.880680084228516
1619091070.72796,31.83598,8.896310091018677
1619091070.74359,33.53767,8.911940097808838
1619091070.75921,34.2589,8.927560091018677
1619091070.77484,34.09141,8.943190097808838
1619091070.79046,33.24345,8.958810091018677
1619091070.80609,31.93018,8.974440097808838
1619091070.82171,30.23193,8.990060091018677
1619091070.83734,28.07874,9.005690097808838
1619091070.85297,25.27129,9.02131986618042
1619091070.86859,21.71058,9.036940097808838
1619091070.88422,17.41553,9.05256986618042
1619091070.89984,12.64272,9.068190097808838
1619091070.91547,7.789581,9.08381986618042
1619091070.93109,3.24913,9.099440097808838
1619091070.94672,-0.7425919,9.11506986618042
1619091070.96235,-4.142769,9.130699872970581
1619091070.97797,-7.112,9.14631986618042
1619091070.9936,-9.931793,9.161949872970581
1619091071.00922,-12.9196,9.17756986618042
1619091071.02485,-16.34677,9.193199872970581
1619091071.04047,-20.33839,9.20881986618042
1619091071.0561,-24.79343,9.224449872970581
1619091071.07173,-29.38911,9.240079879760742
1619091071.08735,-33.6759,9.255699872970581
1619091071.10298,-37.27318,9.271329879760742
1619091071.1186,-40.04925,9.286949872970581
1619091071.13423,-42.26263,9.302579879760742
1619091071.14985,-44.55634,9.318199872970581
1619091071.16548,-47.76331,9.333829879760742
1619091071.18111,-52.71661,9.349459886550903
1619091071.19673,-59.91261,9.365079879760742
1619091071.21236,-69.32188,9.380709886550903
1619091071.22798,-80.13928,9.396329879760742
1619091071.24361,-90.76245,9.411959886550903
1619091071.25923,-98.98737,9.427579879760742
1619091071.27486,-102.5469,9.443209886550903
1619091071.29049,-99.77939,9.458839893341064
1619091071.30611,-90.29355,9.474459886550903
1619091071.32174,-75.17741,9.490089893341064
1619091071.33736,-56.70326,9.505709886550903
1619091071.35299,-37.64871,9.521339893341064
1619091071.36861,-20.36752,9.536959886550903
1619091071.38424,-6.240234,9.552589893341064
1619091071.39987,4.516113,9.568219900131226
1619091071.41549,12.51791,9.583839893341064
1619091071.43112,18.81677,9.599469900131226
1619091071.44674,24.41299,9.615089893341064
1619091071.46237,29.96608,9.630719900131226
1619091071.478,35.7,9.646349906921387
1619091071.49362,41.41348,9.661969900131226
1619091071.50925,46.64714,9.677599906921387
1619091071.52487,50.85536,9.693219900131226
1619091071.5405,53.66435,9.708849906921387
1619091071.55612,55.00909,9.724469900131226
1619091071.57175,55.13219,9.740099906921387
1619091071.58738,54.47655,9.755729913711548
1619091071.603,53.46512,9.771349906921387
1619091071.61863,52.40903,9.786979913711548
1619091071.63425,51.47318,9.802599906921387
1619091071.64988,50.74077,9.818229913711548
1619091071.6655,50.30174,9.833849906921387
1619091071.68113,50.2374,9.849479913711548
1619091071.69676,50.5657,9.865109920501709
1619091071.71238,51.08234,9.880729913711548
1619091071.72801,51.37863,9.896359920501709
1619091071.74363,50.87085,9.911979913711548
1619091071.75926,49.04985,9.927609920501709
1619091071.77488,45.61763,9.943229913711548
1619091071.79051,40.68419,9.958859920501709
1619091071.80614,34.7058,9.97448992729187
1619091071.82176,28.34378,9.990109920501709
1619091071.83739,22.20598,10.00573992729187
1619091071.85301,16.53624,10.021359920501709
1619091071.86864,11.21049,10.03698992729187
1619091071.88426,5.836304,10.052609920501709
1619091071.89989,0.08970642,10.06823992729187
1619091071.91552,-6.086288,10.083869934082031
1619091071.93114,-12.3821,10.09948992729187
1619091071.94677,-18.22964,10.115119934082031
1619091071.96239,-23.14693,10.13073992729187
1619091071.97802,-26.89497,10.146369934082031
1619091071.99364,-29.59973,10.16198992729187
1619091072.00927,-31.64139,10.177619934082031
1619091072.0249,-33.54486,10.193249940872192
1619091072.04052,-35.92189,10.208869934082031
1619091072.05615,-39.3671,10.224499940872192
1619091072.07177,-44.44705,10.240119934082031
1619091072.0874,-51.39517,10.255749940872192
1619091072.10302,-59.83473,10.271369934082031
1619091072.11865,-68.49518,10.286999940872192
1619091072.13428,-75.34428,10.302629947662354
1619091072.1499,-78.10661,10.318249940872192
1619091072.16553,-75.05443,10.333879947662354
1619091072.18115,-65.6788,10.349499940872192
1619091072.19678,-50.92191,10.365129947662354
1619091072.2124,-32.90706,10.380749940872192
1619091072.22803,-14.21695,10.396379947662354
1619091072.24366,2.879089,10.412009954452515
1619091072.25928,17.00336,10.427629947662354
1619091072.27491,27.77602,10.443259954452515
1619091072.29053,35.65228,10.458879947662354
1619091072.30616,41.51981,10.474509954452515
1619091072.32178,46.31377,10.490129947662354
1619091072.33741,50.73035,10.505759954452515
1619091072.35304,55.05101,10.521389961242676
1619091072.36866,59.20683,10.537009954452515
1619091072.38429,62.90334,10.552639961242676
1619091072.39991,65.81137,10.568259954452515
1619091072.41554,67.75697,10.583889961242676
1619091072.43116,68.78523,10.599509954452515
1619091072.44679,69.12685,10.615139961242676
1619091072.46242,69.0407,10.630769968032837
1619091072.47804,68.72673,10.646389961242676
1619091072.49367,68.24922,10.662019968032837
1619091072.50929,67.57639,10.677639961242676
1619091072.52492,66.72095,10.693269968032837
1619091072.54054,65.69185,10.708889961242676
1619091072.55617,64.55251,10.724519968032837
1619091072.5718,63.25143,10.740149974822998
1619091072.58742,61.62749,10.755769968032837
1619091072.60305,59.40379,10.771399974822998
1619091072.61867,56.34399,10.787019968032837
1619091072.6343,52.3358,10.802649974822998
1619091072.64992,47.49602,10.818269968032837
1619091072.66555,42.11513,10.833899974822998
1619091072.68118,36.56737,10.84952998161316
1619091072.6968,31.19022,10.865149974822998
1619091072.71243,26.20387,10.88077998161316
1619091072.72805,21.62248,10.896399974822998
1619091072.74368,17.29146,10.91202998161316
1619091072.7593,12.9325,10.927649974822998
1619091072.77493,8.248627,10.94327998161316
1619091072.79056,3.02002,10.95890998840332
1619091072.80618,-2.792038,10.97452998161316
1619091072.82181,-9.03273,10.99015998840332
1619091072.83743,-15.3304,11.00577998161316
1619091072.85306,-21.28635,11.02140998840332
1619091072.86868,-26.60487,11.03702998161316
1619091072.88431,-31.17126,11.05265998840332
1619091072.89994,-35.15118,11.068289995193481
1619091072.91556,-38.92049,11.08390998840332
1619091072.93119,-42.99811,11.099539995193481
1619091072.94681,-47.9137,11.11515998840332
1619091072.96244,-54.13913,11.130789995193481
1619091072.97806,-61.89794,11.14640998840332
1619091072.99369,-70.9754,11.162039995193481
1619091073.00932,-80.59344,11.177670001983643
1619091073.02494,-89.31378,11.193289995193481
1619091073.04057,-95.27762,11.208920001983643
1619091073.05619,-96.64428,11.224539995193481
1619091073.07182,-92.18414,11.240170001983643
1619091073.08744,-81.81403,11.255789995193481
1619091073.10307,-66.72014,11.271420001983643
1619091073.1187,-49.02091,11.287050008773804
1619091073.13432,-31.14624,11.302670001983643
1619091073.14995,-15.13049,11.318300008773804
1619091073.16557,-2.123131,11.333920001983643
1619091073.1812,7.69799,11.349550008773804
1619091073.19682,14.88153,11.365170001983643
1619091073.21245,20.23385,11.380800008773804
1619091073.22808,24.48468,11.396430015563965
1619091073.2437,28.0621,11.412050008773804
1619091073.25933,31.10629,11.427680015563965
1619091073.27495,33.60358,11.443300008773804
1619091073.29058,35.50189,11.458930015563965
1619091073.3062,36.82088,11.474550008773804
1619091073.32183,37.61794,11.490180015563965
1619091073.33746,37.96329,11.505810022354126
1619091073.35308,37.92635,11.521430015563965
1619091073.36871,37.57982,11.537060022354126
1619091073.38433,37.02083,11.552680015563965
1619091073.39996,36.40862,11.568310022354126
1619091073.41558,35.89244,11.583930015563965
1619091073.43121,35.54569,11.599560022354126
1619091073.44684,35.29689,11.615190029144287
1619091073.46246,34.86572,11.630810022354126
1619091073.47809,33.86427,11.646440029144287
1619091073.49371,31.90835,11.662060022354126
1619091073.50934,28.79944,11.677690029144287
1619091073.52496,24.67164,11.693310022354126
1619091073.54059,19.95071,11.708940029144287
1619091073.55622,15.24784,11.724570035934448
1619091073.57184,11.16072,11.740190029144287
1619091073.58747,8.06171,11.755820035934448
1619091073.60309,5.968237,11.771440029144287
1619091073.61872,4.551926,11.787070035934448
1619091073.63434,3.300097,11.802690029144287
1619091073.64997,1.725031,11.818320035934448
1619091073.6656,-0.4394932,11.83395004272461
1619091073.68122,-3.155066,11.849570035934448
1619091073.69685,-6.1597,11.86520004272461
1619091073.71247,-9.171492,11.880820035934448
1619091073.7281,-12.08221,11.89645004272461
1619091073.74373,-15.01477,11.91208004951477
1619091073.75935,-18.24566,11.92770004272461
1619091073.77498,-22.05896,11.94333004951477
1619091073.7906,-26.5264,11.95895004272461
1619091073.80623,-31.44646,11.97458004951477
1619091073.82185,-36.46159,11.99020004272461
1619091073.83748,-41.15466,12.00583004951477
1619091073.85311,-45.27184,12.021460056304932
1619091073.86873,-48.83236,12.03708004951477
1619091073.88436,-52.18597,12.052710056304932
1619091073.89998,-55.89048,12.06833004951477
1619091073.91561,-60.60372,12.083960056304932
1619091073.93123,-66.8092,12.09958004951477
1619091073.94686,-74.52842,12.115210056304932
1619091073.96249,-83.08336,12.130840063095093
1619091073.97811,-91.02185,12.146460056304932
1619091073.99374,-96.36518,12.162090063095093
1619091074.00936,-97.11279,12.177710056304932
1619091074.02499,-91.93854,12.193340063095093
1619091074.04061,-80.70885,12.208960056304932
1619091074.05624,-64.65942,12.224590063095093
1619091074.07187,-46.04214,12.240220069885254
1619091074.08749,-27.4397,12.255840063095093
1619091074.10312,-10.98402,12.271470069885254
1619091074.11874,2.212921,12.287090063095093
1619091074.13437,12.16074,12.302720069885254
1619091074.14999,19.70952,12.318340063095093
1619091074.16562,25.99049,12.333970069885254
1619091074.18125,31.95994,12.349600076675415
1619091074.19687,38.06326,12.365220069885254
1619091074.2125,44.2101,12.380850076675415
1619091074.22812,49.95424,12.396470069885254
1619091074.24375,54.75408,12.412100076675415
1619091074.25937,58.245,12.427720069885254
1619091074.275,60.32289,12.443350076675415
1619091074.29063,61.1426,12.458980083465576
1619091074.30625,61.02798,12.474600076675415
1619091074.32188,60.31538,12.490230083465576
1619091074.3375,59.31387,12.505850076675415
1619091074.35313,58.27362,12.521480083465576
1619091074.36875,57.44124,12.537100076675415
1619091074.38438,56.99479,12.552730083465576
1619091074.40001,57.01877,12.568360090255737
1619091074.41563,57.44863,12.583980083465576
1619091074.43126,57.97482,12.599610090255737
1619091074.44688,58.12784,12.615230083465576
1619091074.46251,57.40472,12.630860090255737
1619091074.47813,55.46646,12.646480083465576
1619091074.49376,52.28083,12.662110090255737
1619091074.50939,48.20641,12.677740097045898
1619091074.52501,43.86364,12.693360090255737
1619091074.54064,39.90487,12.708990097045898
1619091074.55626,36.78492,12.724610090255737
1619091074.57189,34.59045,12.740240097045898
1619091074.58751,33.04423,12.755860090255737
1619091074.60314,31.61213,12.771490097045898
1619091074.61877,29.77679,12.78711986541748
1619091074.63439,27.1895,12.802740097045898
1619091074.65002,23.80916,12.81836986541748
1619091074.66564,19.82951,12.833990097045898
1619091074.68127,15.62017,12.84961986541748
1619091074.69689,11.5613,12.865240097045898
1619091074.71252,7.906204,12.88086986541748
1619091074.72815,4.740364,12.896499872207642
1619091074.74377,1.918556,12.91211986541748
1619091074.7594,-0.8262482,12.927749872207642
1619091074.77502,-3.839233,12.94336986541748
1619091074.79065,-7.3498,12.958999872207642
1619091074.80627,-11.40105,12.97461986541748
1619091074.8219,-15.76837,12.990249872207642
1619091074.83753,-20.0307,13.005879878997803
1619091074.85315,-23.821,13.021499872207642
1619091074.86878,-26.95974,13.037129878997803
1619091074.8844,-29.58893,13.052749872207642
1619091074.90003,-32.09297,13.068379878997803
1619091074.91565,-34.94129,13.083999872207642
1619091074.93128,-38.40509,13.099629878997803
1619091074.94691,-42.51369,13.115259885787964
1619091074.96253,-47.01837,13.130879878997803
1619091074.97816,-51.53552,13.146509885787964
1619091074.99378,-55.72891,13.162129878997803
1619091075.00941,-59.39647,13.177759885787964
1619091075.02503,-62.57874,13.193379878997803
1619091075.04066,-65.5489,13.209009885787964
1619091075.05629,-68.74139,13.224639892578125
1619091075.07191,-72.70638,13.240259885787964
1619091075.08754,-77.9086,13.255889892578125
1619091075.10316,-84.4884,13.271509885787964
1619091075.11879,-91.99162,13.287139892578125
1619091075.13441,-99.2374,13.302759885787964
1619091075.15004,-104.414,13.318389892578125
1619091075.16567,-105.5897,13.334019899368286
1619091075.18129,-101.3363,13.349639892578125
1619091075.19692,-91.27884,13.365269899368286
1619091075.21254,-76.36418,13.380889892578125
1619091075.22817,-58.61369,13.396519899368286
1619091075.24379,-40.51445,13.412139892578125
1619091075.25942,-24.20172,13.427769899368286
1619091075.27505,-10.96269,13.443399906158447
1619091075.29067,-0.9818115,13.459019899368286
1619091075.3063,6.336746,13.474649906158447
1619091075.32192,11.95947,13.490269899368286
1619091075.33755,16.76617,13.505899906158447
1619091075.35317,21.30507,13.521519899368286
1619091075.3688,25.78596,13.537149906158447
1619091075.38443,30.17259,13.552779912948608
1619091075.40005,34.32851,13.568399906158447
1619091075.41568,38.01501,13.584029912948608
1619091075.4313,40.98753,13.599649906158447
1619091075.44693,43.0027,13.615279912948608
1619091075.46255,43.91182,13.630899906158447
1619091075.47818,43.76439,13.646529912948608
1619091075.49381,42.84256,13.66215991973877
1619091075.50943,41.62646,13.677779912948608
1619091075.52506,40.60585,13.69340991973877
1619091075.54068,40.14975,13.709029912948608
1619091075.55631,40.35678,13.72465991973877
1619091075.57193,41.07503,13.740279912948608
1619091075.58756,41.96494,13.75590991973877
1619091075.60319,42.63696,13.77153992652893
1619091075.61881,42.76392,13.78715991973877
1619091075.63444,42.17693,13.80278992652893
1619091075.65006,40.90094,13.81840991973877
1619091075.66569,39.17354,13.83403992652893
1619091075.68131,37.32504,13.84965991973877
1619091075.69694,35.72223,13.86528992652893
1619091075.71257,34.62984,13.880919933319092
1619091075.72819,34.09209,13.89653992652893
1619091075.74382,33.9046,13.912169933319092
1619091075.75944,33.71198,13.92778992652893
1619091075.77507,33.17603,13.943419933319092
1619091075.79069,32.12318,13.95903992652893
1619091075.80632,30.64951,13.974669933319092
1619091075.82195,29.10829,13.990299940109253
1619091075.83757,27.96786,14.005919933319092
1619091075.8532,27.59332,14.021549940109253
1619091075.86882,28.0876,14.037169933319092
1619091075.88445,29.19263,14.052799940109253
1619091075.90007,30.40378,14.068419933319092
1619091075.9157,31.15105,14.084049940109253
1619091075.93133,31.01431,14.099679946899414
1619091075.94695,29.84033,14.115299940109253
1619091075.96258,27.78433,14.130929946899414
1619091075.9782,25.14381,14.146549940109253
1619091075.99383,22.14688,14.162179946899414
1619091076.00945,18.8515,14.177799940109253
1619091076.02508,15.09955,14.193429946899414
1619091076.04071,10.61938,14.209059953689575
1619091076.05633,5.186188,14.224679946899414
1619091076.07196,-1.172058,14.240309953689575
1619091076.08758,-8.177292,14.255929946899414
1619091076.10321,-15.30698,14.271559953689575
1619091076.11883,-22.01535,14.287179946899414
1619091076.13446,-27.88177,14.302809953689575
1619091076.15009,-32.78285,14.318439960479736
1619091076.16571,-36.85742,14.334059953689575
1619091076.18134,-40.53038,14.349689960479736
1619091076.19696,-44.30014,14.365309953689575
1619091076.21259,-48.56017,14.380939960479736
1619091076.22821,-53.42416,14.396559953689575
1619091076.24384,-58.5527,14.412189960479736
1619091076.25947,-63.0562,14.427819967269897
1619091076.27509,-65.56734,14.443439960479736
1619091076.29072,-64.49857,14.459069967269897
1619091076.30634,-58.46426,14.474689960479736
1619091076.32197,-46.91849,14.490319967269897
1619091076.3376,-30.54507,14.505949974060059
1619091076.35322,-11.33432,14.521569967269897
1619091076.36885,7.863892,14.537199974060059
1619091076.38447,24.2207,14.552819967269897
1619091076.4001,35.80881,14.568449974060059
1619091076.41572,42.12701,14.584069967269897
1619091076.43135,43.99643,14.599699974060059
1619091076.44698,43.12604,14.61532998085022
1619091076.4626,41.29498,14.630949974060059
1619091076.47823,39.88742,14.64657998085022
1619091076.49385,39.51099,14.662199974060059
1619091076.50948,40.06818,14.67782998085022
1619091076.5251,40.93982,14.693449974060059
1619091076.54073,41.26974,14.70907998085022
1619091076.55636,40.23859,14.72470998764038
1619091076.57198,37.3327,14.74032998085022
1619091076.58761,32.48123,14.75595998764038
1619091076.60323,26.02975,14.77157998085022
1619091076.61886,18.55588,14.78720998764038
1619091076.63448,10.66275,14.80282998085022
1619091076.65011,2.749115,14.81845998764038
1619091076.66574,-4.937805,14.834089994430542
1619091076.68136,-12.19409,14.84970998764038
1619091076.69699,-18.70535,14.865339994430542
1619091076.71261,-24.06125,14.88095998764038
1619091076.72824,-27.95151,14.896589994430542
1619091076.74386,-30.3616,14.91220998764038
1619091076.75949,-31.6199,14.927839994430542
1619091076.77512,-32.2005,14.943470001220703
1619091076.79074,-32.53464,14.959089994430542
1619091076.80637,-32.74597,14.974720001220703
1619091076.82199,-32.70953,14.990339994430542
1619091076.83762,-32.19418,15.005970001220703
1619091076.85324,-31.08463,15.021589994430542
1619091076.86887,-29.47699,15.037220001220703
1619091076.8845,-27.65775,15.052850008010864
1619091076.90012,-25.98291,15.068470001220703
1619091076.91575,-24.68359,15.084100008010864
1619091076.93137,-23.90189,15.099720001220703
1619091076.947,-23.65106,15.115350008010864
1619091076.96262,-23.93884,15.130970001220703
1619091076.97825,-24.76477,15.146600008010864
1619091076.99388,-26.12976,15.162230014801025
1619091077.0095,-27.97134,15.177850008010864
1619091077.02513,-30.18478,15.193480014801025
1619091077.04075,-32.65506,15.209100008010864
1619091077.05638,-35.30411,15.224730014801025
1619091077.072,-38.16977,15.240350008010864
1619091077.08763,-41.38553,15.255980014801025
1619091077.10326,-45.12494,15.271610021591187
1619091077.11888,-49.59531,15.287230014801025
1619091077.13451,-55.00409,15.302860021591187
1619091077.15013,-61.43356,15.318480014801025
1619091077.16576,-68.6976,15.334110021591187
1619091077.18138,-76.12286,15.349730014801025
1619091077.19701,-82.44608,15.365360021591187
1619091077.21264,-85.96286,15.380990028381348
1619091077.22826,-85.04385,15.396610021591187
1619091077.24389,-78.69778,15.412240028381348
1619091077.25951,-67.1207,15.427860021591187
1619091077.27514,-51.76358,15.443490028381348
1619091077.29076,-34.92578,15.459110021591187
1619091077.30639,-18.97415,15.474740028381348
1619091077.32202,-5.594635,15.490370035171509
1619091077.33764,4.633148,15.505990028381348
1619091077.35327,12.10007,15.521620035171509
1619091077.36889,17.73526,15.537240028381348
1619091077.38452,22.48041,15.552870035171509
1619091077.40014,26.87497,15.568490028381348
1619091077.41577,31.01135,15.584120035171509
1619091077.4314,34.69678,15.59975004196167
1619091077.44702,37.67584,15.615370035171509
1619091077.46265,39.77512,15.63100004196167
1619091077.47827,40.96301,15.646620035171509
1619091077.4939,41.35345,15.66225004196167
1619091077.50952,41.15591,15.677870035171509
1619091077.52515,40.64069,15.69350004196167
1619091077.54078,40.06116,15.709130048751831
1619091077.5564,39.64526,15.72475004196167
1619091077.57203,39.60764,15.740380048751831
1619091077.58765,40.07037,15.75600004196167
1619091077.60328,41.06674,15.771630048751831
1619091077.6189,42.46692,15.78725004196167
1619091077.63453,44.04041,15.802880048751831
1619091077.65016,45.38754,15.818510055541992
1619091077.66578,46.08704,15.834130048751831
1619091077.68141,45.74966,15.849760055541992
1619091077.69703,44.11874,15.865380048751831
1619091077.71266,41.21436,15.881010055541992
1619091077.72828,37.27505,15.896630048751831
1619091077.74391,32.80798,15.912260055541992
1619091077.75954,28.42487,15.927890062332153
1619091077.77516,24.66656,15.943510055541992
1619091077.79079,21.75644,15.959140062332153
1619091077.80641,19.59906,15.974760055541992
1619091077.82204,17.72479,15.990390062332153
1619091077.83766,15.53232,16.006010055541992
1619091077.85329,12.53931,16.021640062332153
1619091077.86892,8.626617,16.037270069122314
1619091077.88454,4.075623,16.052890062332153
1619091077.90017,-0.5232849,16.068520069122314
1619091077.91579,-4.632904,16.084140062332153
1619091077.93142,-7.990173,16.099770069122314
1619091077.94704,-10.7579,16.115390062332153
1619091077.96267,-13.41266,16.131020069122314
1619091077.9783,-16.55542,16.146650075912476
1619091077.99392,-20.6008,16.162270069122314
1619091078.00955,-25.66248,16.177900075912476
1619091078.02517,-31.50012,16.193520069122314
1619091078.0408,-37.72589,16.209150075912476
1619091078.05642,-43.89334,16.224770069122314
1619091078.07205,-49.70026,16.240400075912476
1619091078.08768,-55.03201,16.256030082702637
1619091078.1033,-59.98065,16.271650075912476
1619091078.11893,-64.89703,16.287280082702637
1619091078.13455,-70.30722,16.302900075912476
1619091078.15018,-76.82803,16.318530082702637
1619091078.1658,-84.92407,16.334150075912476
1619091078.18143,-94.55893,16.349780082702637
1619091078.19706,-104.9175,16.365410089492798
1619091078.21268,-114.3058,16.381030082702637
1619091078.22831,-120.4943,16.396660089492798
1619091078.24393,-121.3679,16.412280082702637
1619091078.25956,-115.704,16.427910089492798
1619091078.27518,-103.6264,16.443530082702637
1619091078.29081,-86.71429,16.459160089492798
1619091078.30644,-67.38867,16.47479009628296
1619091078.32206,-48.17139,16.490410089492798
1619091078.33769,-30.96634,16.50604009628296
1619091078.35331,-16.6644,16.521660089492798
1619091078.36894,-5.209534,16.53729009628296
1619091078.38456,4.032471,16.552910089492798
1619091078.40019,11.8638,16.56854009628296
1619091078.41582,18.94333,16.58416986465454
1619091078.43144,25.68097,16.59979009628296
1619091078.44707,32.24457,16.61541986465454
1619091078.46269,38.60757,16.63104009628296
1619091078.47832,44.57257,16.64666986465454
1619091078.49394,49.8392,16.66229009628296
1619091078.50957,54.05429,16.67791986465454
1619091078.5252,57.03369,16.693549871444702
1619091078.54082,58.76239,16.70916986465454
1619091078.55645,59.51031,16.724799871444702
1619091078.57207,59.76187,16.74041986465454
1619091078.5877,60.01131,16.756049871444702
1619091078.60333,60.57924,16.771679878234863
1619091078.61895,61.51976,16.787299871444702
1619091078.63458,62.66139,16.802929878234863
1619091078.6502,63.70998,16.818549871444702
1619091078.66583,64.37811,16.834179878234863
1619091078.68145,64.49213,16.849799871444702
1619091078.69708,63.89603,16.865429878234863
1619091078.71271,62.50378,16.881059885025024
1619091078.72833,60.28194,16.896679878234863
1619091078.74396,57.28308,16.912309885025024
1619091078.75958,53.75426,16.927929878234863
1619091078.77521,50.10152,16.943559885025024
1619091078.79083,46.75233,16.959179878234863
1619091078.80646,43.98001,16.974809885025024
1619091078.82209,41.81212,16.990439891815186
1619091078.83771,39.97652,17.006059885025024
1619091078.85334,38.03934,17.021689891815186
1619091078.86896,35.60208,17.037309885025024
1619091078.88459,32.48083,17.052939891815186
1619091078.90021,28.67365,17.068559885025024
1619091078.91584,24.33994,17.084189891815186
1619091078.93147,19.62994,17.099819898605347
1619091078.94709,14.66989,17.115439891815186
1619091078.96272,9.584381,17.131069898605347
1619091078.97834,4.548248,17.146689891815186
1619091078.99397,-0.1997681,17.162319898605347
1619091079.00959,-4.516022,17.177939891815186
1619091079.02522,-8.418869,17.193569898605347
1619091079.04085,-12.20047,17.209199905395508
1619091079.05647,-16.32405,17.224819898605347
1619091079.0721,-21.20418,17.240449905395508
1619091079.08772,-26.93608,17.256069898605347
1619091079.10335,-33.21916,17.271699905395508
1619091079.11897,-39.49757,17.287319898605347
1619091079.1346,-45.21718,17.302949905395508
1619091079.15023,-50.1026,17.31857991218567
1619091079.16585,-54.31137,17.334199905395508
1619091079.18148,-58.35822,17.34982991218567
1619091079.1971,-62.97032,17.365449905395508
1619091079.21273,-68.88406,17.38107991218567
1619091079.22835,-76.5856,17.396699905395508
1619091079.24398,-86.11436,17.41232991218567
1619091079.25961,-96.80305,17.42795991897583
1619091079.27523,-107.1402,17.44357991218567
1619091079.29086,-114.9389,17.45920991897583
1619091079.30648,-117.853,17.47482991218567
1619091079.32211,-114.1011,17.49045991897583
1619091079.33773,-103.1728,17.50607991218567
1619091079.35336,-86.15869,17.52170991897583
1619091079.36899,-65.44632,17.53733992576599
1619091079.38461,-43.91982,17.55295991897583
1619091079.40024,-24.13062,17.56858992576599
1619091079.41586,-7.586441,17.58420991897583
1619091079.43149,5.393555,17.59983992576599
1619091079.44711,15.35768,17.61545991897583
1619091079.46274,23.24687,17.63108992576599
1619091079.47837,29.89369,17.646719932556152
1619091079.49399,35.83627,17.66233992576599
1619091079.50962,41.24519,17.677969932556152
1619091079.52524,46.10544,17.69358992576599
1619091079.54087,50.32359,17.709219932556152
1619091079.55649,53.82933,17.72483992576599
1619091079.57212,56.60089,17.740469932556152
1619091079.58775,58.6748,17.756099939346313
1619091079.60337,60.1107,17.771719932556152
1619091079.619,61.0196,17.787349939346313
1619091079.63462,61.5109,17.802969932556152
1619091079.65025,61.73866,17.818599939346313
1619091079.66587,61.89993,17.834219932556152
1619091079.6815,62.14947,17.849849939346313
1619091079.69713,62.60712,17.865479946136475
1619091079.71275,63.26997,17.881099939346313
1619091079.72838,64.00445,17.896729946136475
1619091079.744,64.55608,17.912349939346313
1619091079.75963,64.64079,17.927979946136475
1619091079.77525,64.00282,17.943599939346313
1619091079.79088,62.44691,17.959229946136475
1619091079.80651,59.90331,17.974859952926636
1619091079.82213,56.45798,17.990479946136475
1619091079.83776,52.38161,18.006109952926636
1619091079.85338,48.04845,18.021729946136475
1619091079.86901,43.88855,18.037359952926636
1619091079.88463,40.2192,18.052979946136475
1619091079.90026,37.1264,18.068609952926636
1619091079.91589,34.4116,18.084239959716797
1619091079.93151,31.69318,18.099859952926636
1619091079.94714,28.59165,18.115489959716797
1619091079.96276,24.91084,18.131109952926636
1619091079.97839,20.74506,18.146739959716797
1619091079.99401,16.40282,18.162359952926636
1619091080.00964,12.25822,18.177989959716797
1619091080.02527,8.546677,18.193619966506958
1619091080.04089,5.287697,18.209239959716797
1619091080.05652,2.251534,18.224869966506958
1619091080.07214,-0.9751511,18.240489959716797
1619091080.08777,-4.833282,18.256119966506958
1619091080.10339,-9.642235,18.271739959716797
1619091080.11902,-15.43707,18.287369966506958
1619091080.13465,-21.9507,18.30299997329712
1619091080.15027,-28.62895,18.318619966506958
1619091080.1659,-34.84111,18.33424997329712
1619091080.18152,-40.09659,18.349869966506958
1619091080.19715,-44.28952,18.36549997329712
1619091080.21277,-47.78963,18.381119966506958
1619091080.2284,-51.30986,18.39674997329712
1619091080.24403,-55.72316,18.41237998008728
1619091080.25965,-61.74087,18.42799997329712
1619091080.27528,-69.62914,18.44362998008728
1619091080.2909,-79.06114,18.45924997329712
1619091080.30653,-88.94721,18.47487998008728
1619091080.32215,-97.583,18.49049997329712
1619091080.33778,-102.8813,18.50612998008728
1619091080.35341,-102.942,18.52175998687744
1619091080.36903,-96.58759,18.53737998008728
1619091080.38466,-83.89998,18.55300998687744
1619091080.40028,-66.31261,18.56862998008728
1619091080.41591,-46.24042,18.58425998687744
1619091080.43153,-26.37994,18.59987998008728
1619091080.44716,-8.926064,18.61550998687744
1619091080.46279,4.91124,18.631139993667603
1619091080.47841,15.06892,18.64675998687744
1619091080.49404,22.28265,18.662389993667603
1619091080.50966,27.6815,18.67800998687744
1619091080.52529,32.28101,18.693639993667603
1619091080.54091,36.7634,18.70925998687744
1619091080.55654,41.39635,18.724889993667603
1619091080.57217,46.045,18.740520000457764
1619091080.58779,50.35808,18.756139993667603
1619091080.60342,53.92541,18.771770000457764
1619091080.61904,56.42139,18.787389993667603
1619091080.63467,57.7257,18.803020000457764
1619091080.65029,57.96667,18.818639993667603
1619091080.66592,57.49086,18.834270000457764
1619091080.68155,56.70282,18.849900007247925
1619091080.69717,56.02091,18.865520000457764
1619091080.7128,55.66028,18.881150007247925
1619091080.72842,55.6735,18.896770000457764
1619091080.74405,55.9709,18.912400007247925
1619091080.75967,56.36475,18.928020000457764
1619091080.7753,56.59267,18.943650007247925
1619091080.79093,56.42145,18.959280014038086
1619091080.80655,55.64406,18.974900007247925
1619091080.82218,54.17117,18.990530014038086
1619091080.8378,52.03403,19.006150007247925
1619091080.85343,49.37379,19.021780014038086
1619091080.86906,46.35255,19.037410020828247
1619091080.88468,43.15365,19.053030014038086
1619091080.90031,39.91354,19.068660020828247
1619091080.91593,36.72407,19.084280014038086
1619091080.93156,33.65038,19.099910020828247
1619091080.94718,30.75076,19.115530014038086
1619091080.96281,28.04238,19.131160020828247
1619091080.97844,25.47897,19.146790027618408
1619091080.99406,22.92359,19.162410020828247
1619091081.00969,20.20608,19.178040027618408
1619091081.02531,17.16321,19.193660020828247
1619091081.04094,13.70427,19.209290027618408
1619091081.05656,9.932838,19.224910020828247
1619091081.07219,6.023811,19.240540027618408
1619091081.08782,2.140694,19.25617003440857
1619091081.10344,-1.649269,19.271790027618408
1619091081.11907,-5.439789,19.28742003440857
1619091081.13469,-9.413307,19.303040027618408
1619091081.15032,-13.76915,19.31867003440857
1619091081.16594,-18.57417,19.334290027618408
1619091081.18157,-23.79739,19.34992003440857
1619091081.1972,-29.26949,19.36555004119873
1619091081.21282,-34.79462,19.38117003440857
1619091081.22845,-40.24403,19.39680004119873
1619091081.24407,-45.55846,19.41242003440857
1619091081.2597,-50.68683,19.42805004119873
1619091081.27532,-55.61172,19.44367003440857
1619091081.29095,-60.3679,19.45930004119873
1619091081.30658,-65.16607,19.47493004798889
1619091081.3222,-70.42884,19.49055004119873
1619091081.33783,-76.68304,19.50618004798889
1619091081.35345,-84.17166,19.52180004119873
1619091081.36908,-92.47735,19.53743004798889
1619091081.3847,-100.286,19.55305004119873
1619091081.40033,-105.5493,19.56868004798889
1619091081.41596,-106.1638,19.584310054779053
1619091081.43158,-100.7647,19.59993004798889
1619091081.44721,-89.39065,19.615560054779053
1619091081.46283,-73.54737,19.63118004798889
1619091081.47846,-55.64975,19.646810054779053
1619091081.49408,-38.1895,19.66243004798889
1619091081.50971,-22.87921,19.678060054779053
1619091081.52534,-10.34814,19.693690061569214
1619091081.54096,-0.3125,19.709310054779053
1619091081.55659,7.950302,19.724940061569214
1619091081.57221,15.13565,19.740560054779053
1619091081.58784,21.69296,19.756190061569214
1619091081.60346,27.79691,19.771810054779053
1619091081.61909,33.47919,19.787440061569214
1619091081.63472,38.72339,19.803070068359375
1619091081.65034,43.43043,19.818690061569214
1619091081.66597,47.45175,19.834320068359375
1619091081.68159,50.57969,19.849940061569214
1619091081.69722,52.65045,19.865570068359375
1619091081.71284,53.65768,19.881190061569214
1619091081.72847,53.82015,19.896820068359375
1619091081.7441,53.49792,19.912450075149536
1619091081.75972,53.08078,19.928070068359375
1619091081.77535,52.86319,19.943700075149536
1619091081.79097,53.036,19.959320068359375
1619091081.8066,53.61824,19.974950075149536
1619091081.82222,54.52657,19.990570068359375
1619091081.83785,55.54922,20.006200075149536
1619091081.85348,56.3744,20.021830081939697
1619091081.8691,56.62576,20.037450075149536
1619091081.88473,55.9847,20.053080081939697
1619091081.90035,54.30631,20.068700075149536
1619091081.91598,51.65683,20.084330081939697
1619091081.9316,48.34332,20.099950075149536
1619091081.94723,44.78761,20.115580081939697
1619091081.96286,41.37009,20.13121008872986
1619091081.97848,38.33941,20.146830081939697
1619091081.99411,35.72321,20.16246008872986
1619091082.00973,33.40717,20.178080081939697
1619091082.02536,31.20304,20.19371008872986
1619091082.04098,28.91879,20.209330081939697
1619091082.05661,26.42876,20.22496008872986
1619091082.07224,23.71933,20.24059009552002
1619091082.08786,20.87404,20.25621008872986
1619091082.10349,18.05759,20.27184009552002
1619091082.11911,15.4137,20.28746008872986
1619091082.13474,13.04701,20.30309009552002
1619091082.15036,10.87512,20.31871008872986
1619091082.16599,8.705215,20.33434009552002
1619091082.18162,6.28595,20.3499698638916
1619091082.19724,3.442184,20.36559009552002
1619091082.21287,0.1502533,20.3812198638916
1619091082.22849,-3.443115,20.39684009552002
1619091082.24412,-7.070709,20.4124698638916
1619091082.25974,-10.4962,20.42809009552002
1619091082.27537,-13.66931,20.4437198638916
1619091082.291,-16.71263,20.459349870681763
1619091082.30662,-19.92509,20.4749698638916
1619091082.32225,-23.63045,20.490599870681763
1619091082.33787,-28.03214,20.5062198638916
1619091082.3535,-33.09312,20.521849870681763
1619091082.36912,-38.58662,20.5374698638916
1619091082.38475,-44.12558,20.553099870681763
1619091082.40038,-49.33118,20.568729877471924
1619091082.416,-54.00351,20.584349870681763
1619091082.43163,-58.1516,20.599979877471924
1619091082.44725,-62.02182,20.615599870681763
1619091082.46288,-66.07138,20.631229877471924
1619091082.4785,-70.89102,20.646849870681763
1619091082.49413,-77.06802,20.662479877471924
1619091082.50976,-84.92647,20.678109884262085
1619091082.52538,-94.14554,20.693729877471924
1619091082.54101,-103.5376,20.709359884262085
1619091082.55663,-111.1167,20.724979877471924
1619091082.57226,-114.5584,20.740609884262085
1619091082.58788,-111.9545,20.756229877471924
1619091082.60351,-102.6349,20.771859884262085
1619091082.61914,-87.48889,20.787489891052246
1619091082.63476,-68.74573,20.803109884262085
1619091082.65039,-49.23752,20.818739891052246
1619091082.66601,-31.41231,20.834359884262085
1619091082.68164,-16.65382,20.849989891052246
1619091082.69726,-5.149521,20.865609884262085
1619091082.71289,3.748596,20.881239891052246
1619091082.72852,10.99962,20.896869897842407
1619091082.74414,17.36006,20.912489891052246
1619091082.75977,23.27538,20.928119897842407
1619091082.77539,28.89053,20.943739891052246
1619091082.79102,34.2225,20.959369897842407
1619091082.80664,39.25813,20.974989891052246
1619091082.82227,43.90309,20.990619897842407
1619091082.8379,47.98077,21.00624990463257
1619091082.85352,51.17947,21.021869897842407
1619091082.86915,53.19473,21.03749990463257
1619091082.88477,53.86467,21.053119897842407
1619091082.9004,53.36235,21.06874990463257
1619091082.91602,52.18291,21.084369897842407
1619091082.93165,50.99161,21.09999990463257
1619091082.94728,50.40245,21.11562991142273
1619091082.9629,50.69453,21.13124990463257
1619091082.97853,51.78429,21.14687991142273
1619091082.99415,53.22597,21.16249990463257
1619091083.00978,54.46568,21.17812991142273
1619091083.0254,54.98407,21.19374990463257
1619091083.04103,54.52838,21.20937991142273
1619091083.05666,53.10091,21.22500991821289
1619091083.07228,50.88863,21.24062991142273
1619091083.08791,48.18036,21.25625991821289
1619091083.10353,45.27007,21.27187991142273
1619091083.11916,42.43486,21.28750991821289
1619091083.13478,39.92497,21.30312991142273
1619091083.15041,37.88211,21.31875991821289
1619091083.16604,36.27446,21.33438992500305
1619091083.18166,34.89691,21.35000991821289
1619091083.19729,33.43668,21.36563992500305
1619091083.21291,31.56438,21.38125991821289
1619091083.22854,29.12944,21.39688992500305
1619091083.24416,26.1597,21.41250991821289
1619091083.25979,22.86458,21.42813992500305
1619091083.27542,19.53705,21.443769931793213
1619091083.29104,16.41724,21.45938992500305
1619091083.30667,13.58485,21.475019931793213
1619091083.32229,10.96487,21.49063992500305
1619091083.33792,8.38736,21.506269931793213
1619091083.35354,5.623871,21.52188992500305
1619091083.36917,2.507248,21.537519931793213
1619091083.3848,-1.087494,21.553149938583374
1619091083.40042,-5.112732,21.568769931793213
1619091083.41605,-9.388962,21.584399938583374
1619091083.43167,-13.59032,21.600019931793213
1619091083.4473,-17.37964,21.615649938583374
1619091083.46293,-20.57567,21.631279945373535
1619091083.47855,-23.25838,21.646899938583374
1619091083.49418,-25.82474,21.662529945373535
1619091083.5098,-28.76173,21.678149938583374
1619091083.52543,-32.47966,21.693779945373535
1619091083.54105,-37.02847,21.709399938583374
1619091083.55668,-42.11674,21.725029945373535
1619091083.57231,-47.24864,21.740659952163696
1619091083.58793,-51.98853,21.756279945373535
1619091083.60356,-56.16832,21.771909952163696
1619091083.61918,-59.9588,21.787529945373535
1619091083.63481,-63.83272,21.803159952163696
1619091083.65043,-68.33669,21.818779945373535
1619091083.66606,-74.03203,21.834409952163696
1619091083.68169,-81.23642,21.850039958953857
1619091083.69731,-89.88824,21.865659952163696
1619091083.71294,-99.31874,21.881289958953857
1619091083.72856,-108.1369,21.896909952163696
1619091083.74419,-114.3489,21.912539958953857
1619091083.75981,-115.8611,21.928159952163696
1619091083.77544,-111.1932,21.943789958953857
1619091083.79107,-100.0857,21.95941996574402
1619091083.80669,-83.7565,21.975039958953857
1619091083.82232,-64.54289,21.99066996574402
1619091083.83794,-45.18671,22.006289958953857
1619091083.85357,-27.9505,22.02191996574402
1619091083.86919,-14.04854,22.037539958953857
1619091083.88482,-3.598297,22.05316996574402
1619091083.90045,4.125458,22.06879997253418
1619091083.91607,10.17082,22.08441996574402
1619091083.9317,15.49805,22.10004997253418
1619091083.94732,20.72704,22.11566996574402
1619091083.96295,26.14148,22.13129997253418
1619091083.97857,31.72333,22.14691996574402
1619091083.9942,37.26105,22.16254997253418
1619091084.00983,42.45854,22.17817997932434
1619091084.02545,46.95192,22.19379997253418
1619091084.04108,50.42915,22.20942997932434
1619091084.0567,52.70045,22.22504997253418
1619091084.07233,53.77985,22.24067997932434
1619091084.08795,53.90797,22.25629997253418
1619091084.10358,53.46802,22.27192997932434
1619091084.11921,52.87851,22.287559986114502
1619091084.13483,52.4843,22.30317997932434
1619091084.15046,52.46461,22.318809986114502
1619091084.16608,52.77643,22.33442997932434
1619091084.18171,53.22444,22.350059986114502
1619091084.19733,53.4866,22.36567997932434
1619091084.21296,53.26144,22.381309986114502
1619091084.22859,52.3342,22.396939992904663
1619091084.24421,50.61772,22.412559986114502
1619091084.25984,48.19969,22.428189992904663
1619091084.27546,45.3149,22.443809986114502
1619091084.29109,42.27089,22.459439992904663
1619091084.30671,39.37218,22.475059986114502
1619091084.32234,36.8383,22.490689992904663
1619091084.33797,34.67496,22.506319999694824
1619091084.35359,32.69797,22.521939992904663
1619091084.36922,30.62338,22.537569999694824
1619091084.38484,28.20093,22.553189992904663
1619091084.40047,25.35127,22.568819999694824
1619091084.41609,22.26907,22.584439992904663
1619091084.43172,19.34154,22.600069999694824
1619091084.44735,16.92522,22.615700006484985
1619091084.46297,15.17709,22.631319999694824
1619091084.4786,13.86316,22.646950006484985
1619091084.49422,12.45706,22.662569999694824
1619091084.50985,10.41113,22.678200006484985
1619091084.52547,7.427643,22.693819999694824
1619091084.5411,3.637726,22.709450006484985
1619091084.55673,-0.4659271,22.725080013275146
1619091084.57235,-4.360352,22.740700006484985
1619091084.58798,-7.794022,22.756330013275146
1619091084.6036,-10.98318,22.771950006484985
1619091084.61923,-14.47607,22.787580013275146
1619091084.63485,-18.85197,22.803200006484985
1619091084.65048,-24.32887,22.818830013275146
1619091084.66611,-30.63159,22.834460020065308
1619091084.68173,-37.08183,22.850080013275146
1619091084.69736,-42.95309,22.865710020065308
1619091084.71298,-47.8446,22.881330013275146
1619091084.72861,-51.79993,22.896960020065308
1619091084.74423,-55.28609,22.912580013275146
1619091084.75986,-58.99295,22.928210020065308
1619091084.77549,-63.56326,22.94384002685547
1619091084.79111,-69.43919,22.959460020065308
1619091084.80674,-76.7648,22.97509002685547
1619091084.82236,-85.16016,22.990710020065308
1619091084.83799,-93.62509,23.00634002685547
1619091084.85361,-100.5256,23.021960020065308
1619091084.86924,-103.8189,23.03759002685547
1619091084.88487,-101.6904,23.05322003364563
1619091084.90049,-93.19803,23.06884002685547
1619091084.91612,-78.83664,23.08447003364563
1619091084.93174,-60.51353,23.10009002685547
1619091084.94737,-41.00235,23.11572003364563
1619091084.96299,-22.95657,23.13134002685547
1619091084.97862,-8.13736,23.14697003364563
1619091084.99425,3.023193,23.16260004043579
1619091085.00987,11.18443,23.17822003364563
1619091085.0255,17.46234,23.19385004043579
1619091085.04112,22.90053,23.20947003364563
1619091085.05675,28.0354,23.22510004043579
1619091085.07237,32.92751,23.24072003364563
1619091085.088,37.37981,23.25635004043579
1619091085.10363,41.19247,23.271980047225952
1619091085.11925,44.31824,23.28760004043579
1619091085.13488,46.90123,23.303230047225952
1619091085.1505,49.11399,23.31885004043579
1619091085.16613,51.00305,23.334480047225952
1619091085.18175,52.51974,23.35010004043579
1619091085.19738,53.45734,23.365730047225952
1619091085.21301,53.70956,23.381360054016113
1619091085.22863,53.30675,23.396980047225952
1619091085.24426,52.568,23.412610054016113
1619091085.25988,51.90636,23.428230047225952
1619091085.27551,51.65193,23.443860054016113
1619091085.29113,51.85065,23.459480047225952
1619091085.30676,52.2015,23.475110054016113
1619091085.32239,52.20214,23.490740060806274
1619091085.33801,51.37904,23.506360054016113
1619091085.35364,49.49945,23.521990060806274
1619091085.36926,46.66958,23.537610054016113
1619091085.38489,43.20943,23.553240060806274
1619091085.40051,39.51256,23.568860054016113
1619091085.41614,35.91326,23.584490060806274
1619091085.43177,32.60895,23.600120067596436
1619091085.44739,29.64885,23.615740060806274
1619091085.46302,26.98158,23.631370067596436
1619091085.47864,24.43227,23.646990060806274
1619091085.49427,21.73196,23.662620067596436
1619091085.50989,18.65762,23.678240060806274
1619091085.52552,15.08524,23.693870067596436
1619091085.54115,11.1435,23.709500074386597
1619091085.55677,7.156311,23.725120067596436
1619091085.5724,3.446609,23.740750074386597
1619091085.58802,0.1812363,23.756370067596436
1619091085.60365,-2.779121,23.772000074386597
1619091085.61927,-5.853111,23.787620067596436
1619091085.6349,-9.54409,23.803250074386597
1619091085.65053,-14.17356,23.818880081176758
1619091085.66615,-19.77742,23.834500074386597
1619091085.68178,-26.03188,23.850130081176758
1619091085.6974,-32.43369,23.865750074386597
1619091085.71303,-38.48075,23.881380081176758
1619091085.72866,-43.85101,23.89701008796692
1619091085.74428,-48.49937,23.912630081176758
1619091085.75991,-52.61723,23.92826008796692
1619091085.77553,-56.6198,23.943880081176758
1619091085.79116,-61.0811,23.95951008796692
1619091085.80678,-66.62951,23.975130081176758
1619091085.82241,-73.79967,23.99076008796692
1619091085.83804,-82.78909,24.00639009475708
1619091085.85366,-93.1581,24.02201008796692
1619091085.86929,-103.6251,24.03764009475708
1619091085.88491,-112.1773,24.05326008796692
1619091085.90054,-116.493,24.06889009475708
1619091085.91616,-114.6989,24.08451008796692
1619091085.93179,-106.0078,24.10014009475708
1619091085.94742,-91.16347,24.115769863128662
1619091085.96304,-72.22428,24.13139009475708
1619091085.97867,-51.91294,24.147019863128662
1619091085.99429,-32.73173,24.16264009475708
1619091086.00992,-16.31361,24.178269863128662
1619091086.02554,-3.181175,24.19389009475708
1619091086.04117,7.063366,24.209519863128662
1619091086.0568,15.26425,24.225149869918823
1619091086.07242,22.28226,24.240769863128662
1619091086.08805,28.68754,24.256399869918823
1619091086.10367,34.76225,24.272019863128662
1619091086.1193,40.50587,24.287649869918823
1619091086.13492,45.74342,24.303269863128662
1619091086.15055,50.23309,24.318899869918823
1619091086.16618,53.71834,24.334529876708984
1619091086.1818,56.01057,24.350149869918823
1619091086.19743,57.06425,24.365779876708984
1619091086.21305,57.04071,24.381399869918823
1619091086.22868,56.3094,24.397029876708984
1619091086.2443,55.41315,24.412649869918823
1619091086.25993,54.92755,24.428279876708984
1619091086.27556,55.35302,24.443909883499146
1619091086.29118,56.90806,24.459529876708984
1619091086.30681,59.46563,24.475159883499146
1619091086.32243,62.51158,24.490779876708984
1619091086.33806,65.28847,24.506409883499146
1619091086.35368,67.03251,24.522029876708984
1619091086.36931,67.22023,24.537659883499146
1619091086.38494,65.72438,24.553289890289307
1619091086.40056,62.84438,24.568909883499146
1619091086.41619,59.15483,24.584539890289307
1619091086.43181,55.25851,24.600159883499146
1619091086.44744,51.62583,24.615789890289307
1619091086.46306,48.44182,24.631409883499146
1619091086.47869,45.69643,24.647039890289307
1619091086.49432,43.32409,24.662669897079468
1619091086.50994,41.23164,24.678289890289307
1619091086.52557,39.34733,24.693919897079468
1619091086.54119,37.58923,24.709539890289307
1619091086.55682,35.80556,24.725169897079468
1619091086.57244,33.86196,24.740789890289307
1619091086.58807,31.6911,24.756419897079468
1619091086.6037,29.35421,24.77204990386963
1619091086.61932,27.03634,24.787669897079468
1619091086.63495,24.92045,24.80329990386963
1619091086.65057,23.05334,24.818919897079468
1619091086.6662,21.2645,24.83454990386963
1619091086.68182,19.22812,24.850169897079468
1619091086.69745,16.58791,24.86579990386963
1619091086.71308,13.1429,24.88142991065979
1619091086.7287,8.905346,24.89704990386963
1619091086.74433,4.117577,24.91267991065979
1619091086.75995,-0.8503456,24.92829990386963
1619091086.77558,-5.618637,24.94392991065979
1619091086.7912,-9.937973,24.95954990386963
1619091086.80683,-13.69879,24.97517991065979
1619091086.82246,-17.03287,24.99080991744995
1619091086.83808,-20.25986,25.00642991065979
1619091086.85371,-23.84097,25.02205991744995
1619091086.86933,-28.19814,25.03767991065979
1619091086.88496,-33.56189,25.05330991744995
1619091086.90058,-39.86533,25.06892991065979
1619091086.91621,-46.73104,25.08455991744995
1619091086.93184,-53.60906,25.100189924240112
1619091086.94746,-59.92871,25.11580991744995
1619091086.96309,-65.36465,25.131439924240112
1619091086.97871,-69.90901,25.14705991744995
1619091086.99434,-73.94835,25.162689924240112
1619091087.00996,-78.23213,25.17830991744995
1619091087.02559,-83.64265,25.193939924240112
1619091087.04122,-90.90054,25.209569931030273
1619091087.05684,-100.1601,25.225189924240112
1619091087.07247,-110.6876,25.240819931030273
1619091087.08809,-120.7062,25.256439924240112
1619091087.10372,-127.7367,25.272069931030273
1619091087.11934,-129.2839,25.287689924240112
1619091087.13497,-123.6962,25.303319931030273
1619091087.1506,-110.8285,25.318949937820435
1619091087.16622,-92.1943,25.334569931030273
1619091087.18185,-70.51357,25.350199937820435
1619091087.19747,-48.80649,25.365819931030273
1619091087.2131,-29.5051,25.381449937820435
1619091087.22872,-13.87801,25.397069931030273
1619091087.24435,-1.984562,25.412699937820435
1619091087.25998,6.982409,25.428329944610596
1619091087.2756,14.14572,25.443949937820435
1619091087.29123,20.49697,25.459579944610596
1619091087.30685,26.70959,25.475199937820435
1619091087.32248,33.04828,25.490829944610596
1619091087.3381,39.45789,25.506449937820435
1619091087.35373,45.64748,25.522079944610596
1619091087.36936,51.22182,25.537709951400757
1619091087.38498,55.80181,25.553329944610596
1619091087.40061,59.14792,25.568959951400757
1619091087.41623,61.20803,25.584579944610596
1619091087.43186,62.12313,25.600209951400757
1619091087.44748,62.20872,25.615829944610596
1619091087.46311,61.83395,25.631459951400757
1619091087.47874,61.43418,25.647089958190918
1619091087.49436,61.38769,25.662709951400757
1619091087.50999,61.93832,25.678339958190918
1619091087.52561,63.10357,25.693959951400757
1619091087.54124,64.62857,25.709589958190918
1619091087.55686,66.05988,25.725209951400757
1619091087.57249,66.81866,25.740839958190918
1619091087.58812,66.44825,25.75646996498108
1619091087.60374,64.74162,25.772089958190918
1619091087.61937,61.85097,25.78771996498108
1619091087.63499,58.2086,25.803339958190918
1619091087.65062,54.37281,25.81896996498108
1619091087.66624,50.86682,25.834589958190918
1619091087.68187,48.01254,25.85021996498108
1619091087.6975,45.85165,25.86584997177124
1619091087.71312,44.19527,25.88146996498108
1619091087.72875,42.66448,25.89709997177124
1619091087.74437,40.85086,25.91271996498108
1619091087.76,38.51435,25.92834997177124
1619091087.77562,35.65985,25.94396996498108
1619091087.79125,32.51337,25.95959997177124
1619091087.80688,29.3835,25.9752299785614
1619091087.8225,26.42292,25.99084997177124
1619091087.83813,23.50712,26.0064799785614
1619091087.85375,20.30832,26.02209997177124
1619091087.86938,16.47004,26.0377299785614
1619091087.88501,11.85116,26.053359985351562
1619091087.90063,6.624154,26.0689799785614
1619091087.91626,1.206182,26.084609985351562
1619091087.93188,-3.948919,26.1002299785614
1619091087.94751,-8.532507,26.115859985351562
1619091087.96313,-12.5122,26.1314799785614
1619091087.97876,-16.07718,26.147109985351562
1619091087.99439,-19.56714,26.162739992141724
1619091088.01001,-23.31289,26.178359985351562
1619091088.02564,-27.59917,26.193989992141724
1619091088.04126,-32.57698,26.209609985351562
1619091088.05689,-38.20119,26.225239992141724
1619091088.07251,-44.21859,26.240859985351562
1619091088.08814,-50.21992,26.256489992141724
1619091088.10377,-55.77875,26.272119998931885
1619091088.11939,-60.67225,26.287739992141724
1619091088.13502,-64.98776,26.303369998931885
1619091088.15064,-69.22831,26.318989992141724
1619091088.16627,-74.15838,26.334619998931885
1619091088.18189,-80.52615,26.350239992141724
1619091088.19752,-88.69798,26.365869998931885
1619091088.21315,-98.24432,26.381500005722046
1619091088.22877,-107.8132,26.397119998931885
1619091088.2444,-115.2497,26.412750005722046
1619091088.26002,-118.159,26.428369998931885
1619091088.27565,-114.688,26.444000005722046
1619091088.29127,-104.2732,26.459619998931885
1619091088.3069,-87.93063,26.475250005722046
1619091088.32253,-67.98576,26.490880012512207
1619091088.33815,-47.31392,26.506500005722046
1619091088.35378,-28.409,26.522130012512207
1619091088.3694,-12.75397,26.537750005722046
1619091088.38503,-0.7063975,26.553380012512207
1619091088.40065,8.258299,26.569000005722046
1619091088.41628,15.03805,26.584630012512207
1619091088.43191,20.54282,26.600260019302368
1619091088.44753,25.49453,26.615880012512207
1619091088.46316,30.42822,26.631510019302368
1619091088.47878,35.63923,26.647130012512207
1619091088.49441,41.18643,26.662760019302368
1619091088.51003,46.81745,26.678380012512207
1619091088.52566,52.0394,26.694010019302368
1619091088.54129,56.26809,26.70964002609253
1619091088.55691,59.08675,26.725260019302368
1619091088.57254,60.37553,26.74089002609253
1619091088.58816,60.45143,26.756510019302368
1619091088.60379,59.87478,26.77214002609253
1619091088.61941,59.25301,26.787760019302368
1619091088.63504,59.03888,26.80339002609253
1619091088.65067,59.38407,26.81902003288269
1619091088.66629,60.13186,26.83464002609253
1619091088.68192,60.91803,26.85027003288269
1619091088.69754,61.30929,26.86589002609253
1619091088.71317,60.93188,26.88152003288269
1619091088.72879,59.59105,26.89714002609253
1619091088.74442,57.2907,26.91277003288269
1619091088.76005,54.2717,26.92840003967285
1619091088.77567,50.89894,26.94402003288269
1619091088.7913,47.54371,26.95965003967285
1619091088.80692,44.43826,26.97527003288269
1619091088.82255,41.62849,26.99090003967285
1619091088.83817,38.96689,27.00652003288269
1619091088.8538,36.20343,27.02215003967285
1619091088.86943,33.16874,27.037780046463013
1619091088.88505,29.82249,27.05340003967285
1619091088.90068,26.29864,27.069030046463013
1619091088.9163,22.78863,27.08465003967285
1619091088.93193,19.42819,27.100280046463013
1619091088.94755,16.16723,27.11590003967285
1619091088.96318,12.81423,27.131530046463013
1619091088.97881,9.089483,27.147160053253174
1619091088.99443,4.781332,27.162780046463013
1619091089.01006,-0.08922195,27.178410053253174
1619091089.02568,-5.303471,27.194030046463013
1619091089.04131,-10.52031,27.209660053253174
1619091089.05693,-15.44764,27.225280046463013
1619091089.07256,-20.03097,27.240910053253174
1619091089.08819,-24.43521,27.256540060043335
1619091089.10381,-28.92763,27.272160053253174
1619091089.11944,-33.68008,27.287790060043335
1619091089.13506,-38.67031,27.303410053253174
1619091089.15069,-43.61441,27.319040060043335
1619091089.16631,-48.1687,27.334660053253174
1619091089.18194,-52.16045,27.350290060043335
1619091089.19757,-55.7092,27.365920066833496
1619091089.21319,-59.29369,27.381540060043335
1619091089.22882,-63.58329,27.397170066833496
1619091089.24444,-69.3196,27.412790060043335
1619091089.26007,-77.11818,27.428420066833496
1619091089.27569,-87.31233,27.444040060043335
1619091089.29132,-99.70007,27.459670066833496
1619091089.30695,-113.2761,27.475300073623657
1619091089.32257,-126.2574,27.490920066833496
1619091089.3382,-136.2418,27.506550073623657
1619091089.35382,-140.8223,27.522170066833496
1619091089.36945,-138.3539,27.537800073623657
1619091089.38507,-128.5779,27.553420066833496
1619091089.4007,-112.7652,27.569050073623657
1619091089.41633,-93.32222,27.58468008041382
1619091089.43195,-73.04515,27.600300073623657
1619091089.44758,-54.22744,27.61593008041382
1619091089.4632,-38.15258,27.631550073623657
1619091089.47883,-24.99544,27.64718008041382
1619091089.49445,-14.07659,27.662800073623657
1619091089.51008,-4.343391,27.67843008041382
1619091089.52571,5.18409,27.69406008720398
1619091089.54133,15.11678,27.70968008041382
1619091089.55696,25.53894,27.72531008720398
1619091089.57258,36.00156,27.74093008041382
1619091089.58821,45.65761,27.75656008720398
1619091089.60383,53.50303,27.77218008041382
1619091089.61946,58.72008,27.78781008720398
1619091089.63509,60.94096,27.80344009399414
1619091089.65071,60.42706,27.81906008720398
1619091089.66634,58.06452,27.83469009399414
1619091089.68196,55.15562,27.85031008720398
1619091089.69759,53.11983,27.86594009399414
1619091089.71321,53.01711,27.88156008720398
1619091089.72884,55.35313,27.89719009399414
1619091089.74447,59.8873,27.912819862365723
1619091089.76009,65.76997,27.92844009399414
1619091089.77572,71.8646,27.944069862365723
1619091089.79134,77.16428,27.95969009399414
1619091089.80697,81.11676,27.975319862365723
1619091089.82259,83.74336,27.99094009399414
1619091089.83822,85.44687,28.006569862365723
1619091089.85385,86.75601,28.022199869155884
1619091089.86947,88.07432,28.037819862365723
1619091089.8851,89.53629,28.053449869155884
1619091089.90072,91.04718,28.069069862365723
1619091089.91635,92.34644,28.084699869155884
1619091089.93197,93.10698,28.100319862365723
1619091089.9476,92.92644,28.115949869155884
1619091089.96323,91.39445,28.131579875946045
1619091089.97885,88.16393,28.147199869155884
1619091089.99448,83.01791,28.162829875946045
1619091090.0101,75.95731,28.178449869155884
1619091090.02573,67.23783,28.194079875946045
1619091090.04135,57.33044,28.209699869155884
1619091090.05698,46.78738,28.225329875946045
1619091090.07261,36.17361,28.240959882736206
1619091090.08823,25.9285,28.256579875946045
1619091090.10386,16.36887,28.272209882736206
1619091090.11948,7.636375,28.287829875946045
1619091090.13511,-0.2840424,28.303459882736206
1619091090.15073,-7.591072,28.319079875946045
1619091090.16636,-14.57304,28.334709882736206
1619091090.18199,-21.53059,28.350339889526367
1619091090.19761,-28.57487,28.365959882736206
1619091090.21324,-35.60339,28.381589889526367
1619091090.22886,-42.33702,28.397209882736206
1619091090.24449,-48.4056,28.412839889526367
1619091090.26011,-53.54279,28.428459882736206
1619091090.27574,-57.70284,28.444089889526367
1619091090.29137,-61.13729,28.45971989631653
1619091090.30699,-64.37368,28.475339889526367
1619091090.32262,-68.21658,28.49096989631653
1619091090.33824,-73.56116,28.506589889526367
1619091090.35387,-81.1223,28.52221989631653
1619091090.36949,-91.03371,28.537839889526367
1619091090.38512,-102.4634,28.55346989631653
1619091090.40075,-113.5191,28.56909990310669
1619091090.41637,-121.5599,28.58471989631653
1619091090.432,-123.979,28.60034990310669
1619091090.44762,-119.0956,28.61596989631653
1619091090.46325,-106.8802,28.63159990310669
1619091090.47887,-88.9377,28.64721989631653
1619091090.4945,-67.98972,28.66284990310669
1619091090.51013,-46.90652,28.67847990989685
1619091090.52575,-27.92389,28.69409990310669
1619091090.54138,-12.16117,28.70972990989685
1619091090.557,0.2821579,28.72534990310669
1619091090.57263,9.947723,28.74097990989685
1619091090.58826,17.63661,28.75660991668701
1619091090.60388,24.03606,28.77222990989685
1619091090.61951,29.65326,28.78785991668701
1619091090.63513,34.77316,28.80347990989685
1619091090.65076,39.49391,28.81910991668701
1619091090.66638,43.71475,28.83472990989685
1619091090.68201,47.19147,28.85035991668701
1619091090.69764,49.64545,28.865989923477173
1619091090.71326,50.9452,28.88160991668701
1619091090.72889,51.18549,28.897239923477173
1619091090.74451,50.7168,28.91285991668701
1619091090.76014,50.02871,28.928489923477173
1619091090.77576,49.61798,28.94410991668701
1619091090.79139,49.78085,28.959739923477173
1619091090.80702,50.58992,28.975369930267334
1619091090.82264,51.85557,28.990989923477173
1619091090.83827,53.2682,29.006619930267334
1619091090.85389,54.46806,29.022239923477173
1619091090.86952,55.11165,29.037869930267334
1619091090.88514,54.96159,29.053489923477173
1619091090.90077,53.85482,29.069119930267334
1619091090.9164,51.77165,29.084749937057495
1619091090.93202,48.85319,29.100369930267334
1619091090.94765,45.37345,29.115999937057495
1619091090.96327,41.67078,29.131619930267334
1619091090.9789,38.06873,29.147249937057495
1619091090.99452,34.74975,29.162869930267334
1619091091.01015,31.73538,29.178499937057495
1619091091.02578,28.9332,29.194129943847656
1619091091.0414,26.18181,29.209749937057495
1619091091.05703,23.33476,29.225379943847656
1619091091.07265,20.23941,29.240999937057495
1619091091.08828,16.82071,29.256629943847656
1619091091.1039,13.10245,29.272249937057495
1619091091.11953,9.246132,29.287879943847656
1619091091.13516,5.484756,29.303509950637817
1619091091.15078,2.070221,29.319129943847656
1619091091.16641,-0.8890762,29.334759950637817
1619091091.18203,-3.485985,29.350379943847656
1619091091.19766,-6.065964,29.366009950637817
1619091091.21328,-9.113052,29.381629943847656
1619091091.22891,-13.01925,29.397259950637817
1619091091.24454,-17.93259,29.41288995742798
1619091091.26016,-23.69452,29.428509950637817
1619091091.27579,-29.85542,29.44413995742798
1619091091.29141,-35.83399,29.459759950637817
1619091091.30704,-41.1246,29.47538995742798
1619091091.32266,-45.50194,29.491009950637817
1619091091.33829,-49.15998,29.50663995742798
1619091091.35392,-52.7383,29.52226996421814
1619091091.36954,-57.17249,29.53788995742798
1619091091.38517,-63.33154,29.55351996421814
1619091091.40079,-71.65507,29.56913995742798
1619091091.41642,-81.73306,29.58476996421814
1619091091.43204,-92.1422,29.60038995742798
1619091091.44767,-100.6799,29.61601996421814
1619091091.4633,-104.9345,29.6316499710083
1619091091.47892,-102.99,29.64726996421814
1619091091.49455,-94.13815,29.6628999710083
1619091091.51017,-79.13448,29.67851996421814
1619091091.5258,-60.03246,29.6941499710083
1619091091.54142,-39.57136,29.70976996421814
1619091091.55705,-20.42358,29.7253999710083
1619091091.57268,-4.443993,29.741029977798462
1619091091.5883,7.624405,29.7566499710083
1619091091.60393,16.1082,29.772279977798462
1619091091.61955,22.03584,29.7878999710083
1619091091.63518,26.5406,29.803529977798462
1619091091.6508,30.49156,29.8191499710083
1619091091.66643,34.20467,29.834779977798462
1619091091.68206,37.58435,29.850409984588623
1619091091.69768,40.33649,29.866029977798462
1619091091.71331,42.19941,29.881659984588623
1619091091.72893,43.15008,29.897279977798462
1619091091.74456,43.36765,29.912909984588623
1619091091.76018,43.15821,29.928529977798462
1619091091.77581,42.71923,29.944159984588623
1619091091.79144,42.18801,29.959789991378784
1619091091.80706,41.54746,29.975409984588623
1619091091.82269,40.82822,29.991039991378784
1619091091.83831,40.16126,30.006659984588623
1619091091.85394,39.72678,30.022289991378784
1619091091.86956,39.68998,30.037909984588623
1619091091.88519,39.97843,30.053539991378784
1619091091.90082,40.28031,30.069169998168945
1619091091.91644,40.0985,30.084789991378784
1619091091.93207,39.06361,30.100419998168945
1619091091.94769,37.06953,30.116039991378784
1619091091.96332,34.39558,30.131669998168945
1619091091.97894,31.54718,30.147289991378784
1619091091.99457,29.02014,30.162919998168945
1619091092.0102,27.07182,30.178550004959106
1619091092.02582,25.6134,30.194169998168945
1619091092.04145,24.26207,30.209800004959106
1619091092.05707,22.52331,30.225419998168945
1619091092.0727,20.0213,30.241050004959106
1619091092.08832,16.50258,30.256669998168945
1619091092.10395,11.87669,30.272300004959106
1619091092.11958,6.238747,30.287930011749268
1619091092.1352,-0.2349548,30.303550004959106
1619091092.15083,-7.249451,30.319180011749268
1619091092.16645,-14.42517,30.334800004959106
1619091092.18208,-21.34505,30.350430011749268
1619091092.1977,-27.61687,30.366050004959106
1619091092.21333,-32.95129,30.381680011749268
1619091092.22896,-37.17892,30.39731001853943
1619091092.24458,-40.2712,30.412930011749268
1619091092.26021,-42.26433,30.42856001853943
1619091092.27583,-43.38811,30.444180011749268
1619091092.29146,-44.05925,30.45981001853943
1619091092.30708,-44.94272,30.475430011749268
1619091092.32271,-46.83389,30.49106001853943
1619091092.33834,-50.40251,30.50669002532959
1619091092.35396,-55.79025,30.52231001853943
1619091092.36959,-62.23159,30.53794002532959
1619091092.38521,-67.99371,30.55356001853943
1619091092.40084,-70.66719,30.56919002532959
1619091092.41646,-67.90924,30.58481001853943
1619091092.43209,-58.29789,30.60044002532959
1619091092.44772,-41.91528,30.61607003211975
1619091092.46334,-20.38657,30.63169002532959
1619091092.47897,3.562996,30.64732003211975
1619091092.49459,26.99567,30.66294002532959
1619091092.51022,47.53539,30.67857003211975
1619091092.52584,63.86676,30.69419002532959
1619091092.54147,75.6823,30.70982003211975
1619091092.5571,83.40505,30.725450038909912
1619091092.57272,87.81062,30.74107003211975
1619091092.58835,89.75166,30.756700038909912
1619091092.60397,89.98897,30.77232003211975
1619091092.6196,89.13416,30.787950038909912
1619091092.63522,87.60339,30.80357003211975
1619091092.65085,85.47673,30.819200038909912
1619091092.66648,82.53806,30.834830045700073
1619091092.6821,78.3523,30.850450038909912
1619091092.69773,72.46999,30.866080045700073
1619091092.71335,64.70957,30.881700038909912
1619091092.72898,55.36961,30.897330045700073
1619091092.74461,45.21322,30.912960052490234
1619091092.76023,35.40059,30.928580045700073
1619091092.77586,27.26391,30.944210052490234
1619091092.79148,21.99893,30.959830045700073
1619091092.80711,20.43549,30.975460052490234
1619091092.82273,22.85215,30.991080045700073
1619091092.83836,28.84747,31.006710052490234
1619091092.85399,37.43861,31.022340059280396
1619091092.86961,47.25513,31.037960052490234
1619091092.88524,56.87239,31.053590059280396
1619091092.90086,65.20861,31.069210052490234
1619091092.91649,71.81463,31.084840059280396
1619091092.93211,76.90677,31.100460052490234
1619091092.94774,81.21523,31.116090059280396
1619091092.96337,85.6448,31.131720066070557
1619091092.97899,90.87122,31.147340059280396
1619091092.99462,97.15023,31.162970066070557
1619091093.01024,104.2957,31.178590059280396
1619091093.02587,111.828,31.194220066070557
1619091093.04149,119.2513,31.209840059280396
1619091093.05712,126.1886,31.225470066070557
1619091093.07275,132.5233,31.241100072860718
1619091093.08837,138.3988,31.256720066070557
1619091093.104,144.2523,31.272350072860718
1619091093.11962,150.8326,31.287970066070557
1619091093.13525,159.0943,31.303600072860718
1619091093.15087,169.8962,31.319220066070557
1619091093.1665,183.5888,31.334850072860718
1619091093.18213,199.6076,31.35048007965088
1619091093.19775,216.2859,31.366100072860718
1619091093.21338,231.1115,31.38173007965088
1619091093.229,241.41,31.397350072860718
1619091093.24463,245.1671,31.41298007965088
1619091093.26025,241.6897,31.428600072860718
1619091093.27588,231.8212,31.44423007965088
1619091093.29151,217.5397,31.45986008644104
1619091093.30713,201.2138,31.47548007965088
1619091093.32276,184.9159,31.49111008644104
1619091093.33838,169.9575,31.50673007965088
1619091093.35401,156.9047,31.52236008644104
1619091093.36963,145.8632,31.53798007965088
1619091093.38526,136.8411,31.55361008644104
1619091093.40089,129.8919,31.5692400932312
1619091093.41651,125.0969,31.58486008644104
1619091093.43214,122.288,31.6004900932312
1619091093.44776,120.8786,31.61611008644104
1619091093.46339,119.9078,31.6317400932312
1619091093.47901,118.2913,31.64736008644104
1619091093.49464,115.1936,31.6629900932312
1619091093.51027,110.3381,31.678620100021362
1619091093.52589,104.074,31.6942400932312
1619091093.54152,97.19666,31.709870100021362
1619091093.55714,90.51276,31.7254900932312
1619091093.57277,84.40906,31.741120100021362
1619091093.58839,78.60522,31.7567400932312
1619091093.60402,72.15521,31.772370100021362
1619091093.61965,63.87244,31.787999868392944
1619091093.63527,52.7771,31.803620100021362
1619091093.6509,38.49756,31.819249868392944
1619091093.66652,21.44116,31.834870100021362
1619091093.68215,2.457886,31.850499868392944
1619091093.69777,-17.58582,31.866120100021362
1619091093.7134,-38.26392,31.881749868392944
1619091093.72903,-59.9054,31.897379875183105
1619091093.74465,-83.48242,31.912999868392944
1619091093.76028,-110.3301,31.928629875183105
1619091093.7759,-141.8793,31.944249868392944
1619091093.79153,-179.429,31.959879875183105
1619091093.80715,-223.9351,31.975499868392944
1619091093.82278,-275.4716,31.991129875183105
1619091093.83841,-332.5802,32.00675988197327
1619091093.85403,-391.8125,32.022379875183105
1619091093.86966,-447.9854,32.03800988197327
1619091093.88528,-495.3456,32.053629875183105
1619091093.90091,-529.3201,32.06925988197327
1619091093.91653,-547.9425,32.084879875183105
1619091093.93216,-552.3207,32.10050988197327
1619091093.94779,-545.7512,32.11613988876343
1619091093.96341,-532.0696,32.13175988197327
1619091093.97904,-514.1079,32.14738988876343
1619091093.99466,-493.0159,32.16300988197327
1619091094.01029,-468.7291,32.17863988876343
1619091094.02591,-440.9783,32.19425988197327
1619091094.04154,-410.168,32.20988988876343
1619091094.05717,-377.5269,32.22551989555359
1619091094.07279,-344.582,32.24113988876343
1619091094.08842,-312.4955,32.25676989555359
1619091094.10404,-281.7136,32.27238988876343
1619091094.11967,-252.1195,32.28801989555359
1619091094.13529,-223.5133,32.30363988876343
1619091094.15092,-196.0846,32.31926989555359
1619091094.16655,-170.4473,32.33489990234375
1619091094.18217,-147.5094,32.35051989555359
1619091094.1978,-127.9738,32.36614990234375
1619091094.21342,-111.9539,32.38176989555359
1619091094.22905,-98.88403,32.39739990234375
1619091094.24467,-87.70569,32.41301989555359
1619091094.2603,-77.30408,32.42864990234375
1619091094.27593,-67.00195,32.44427990913391
1619091094.29155,-56.86487,32.45989990234375
1619091094.30718,-47.65967,32.47552990913391
1619091094.3228,-40.51563,32.49114990234375
1619091094.33843,-36.39294,32.50677990913391
1619091094.35405,-35.65393,32.52239990234375
1619091094.36968,-37.89001,32.53802990913391
1619091094.38531,-42.08057,32.55365991592407
1619091094.40093,-46.96521,32.56927990913391
1619091094.41656,-51.50952,32.58490991592407
1619091094.43218,-55.24622,32.60052990913391
1619091094.44781,-58.37366,32.61615991592407
1619091094.46343,-61.66431,32.63177990913391
1619091094.47906,-66.21375,32.64740991592407
1619091094.49469,-73.07898,32.66303992271423
1619091094.51031,-82.83813,32.67865991592407
1619091094.52594,-95.14685,32.69428992271423
1619091094.54156,-108.499,32.70990991592407
1619091094.55719,-120.2987,32.72553992271423
1619091094.57281,-127.4094,32.74115991592407
1619091094.58844,-127.1238,32.75678992271423
1619091094.60407,-118.0648,32.772419929504395
1619091094.61969,-100.7853,32.78803992271423
1619091094.63532,-77.58887,32.803669929504395
1619091094.65094,-51.77795,32.81928992271423
1619091094.66657,-26.61023,32.834919929504395
1619091094.68219,-4.44519,32.85053992271423
1619091094.69782,13.6427,32.866169929504395
1619091094.71345,27.80225,32.881799936294556
1619091094.72907,38.92114,32.897419929504395
1619091094.7447,48.19958,32.913049936294556
1619091094.76032,56.69629,32.928669929504395
1619091094.77595,65.19666,32.944299936294556
1619091094.79157,74.00842,32.959919929504395
1619091094.8072,82.98328,32.975549936294556
1619091094.82283,91.62732,32.99117994308472
1619091094.83845,99.30566,33.006799936294556
1619091094.85408,105.5695,33.02242994308472
1619091094.8697,110.2729,33.038049936294556
1619091094.88533,113.6304,33.05367994308472
1619091094.90095,116.0743,33.069299936294556
1619091094.91658,118.0488,33.08492994308472
1619091094.93221,119.853,33.10055994987488
1619091094.94783,121.6074,33.11617994308472
1619091094.96346,123.2238,33.13180994987488
1619091094.97908,124.5457,33.14742994308472
1619091094.99471,125.3541,33.16305994987488
1619091095.01033,125.4332,33.17867994308472
1619091095.02596,124.5831,33.19430994987488
1619091095.04159,122.6251,33.20993995666504
1619091095.05721,119.4918,33.22555994987488
1619091095.07284,115.2652,33.24118995666504
1619091095.08846,110.2483,33.25680994987488
1619091095.10409,104.9206,33.27243995666504
1619091095.11971,99.81036,33.28805994987488
1619091095.13534,95.29535,33.30368995666504
1619091095.15097,91.41986,33.3193199634552
1619091095.16659,87.85999,33.33493995666504
1619091095.18222,84.07227,33.3505699634552
1619091095.19784,79.5379,33.36618995666504
1619091095.21347,74.10364,33.3818199634552
1619091095.22909,68.02948,33.39743995666504
1619091095.24472,61.90692,33.4130699634552
1619091095.26035,56.31531,33.42869997024536
1619091095.27597,51.53662,33.4443199634552
1619091095.2916,47.39087,33.45994997024536
1619091095.30722,43.38116,33.4755699634552
1619091095.32285,39.00562,33.49119997024536
1619091095.33847,33.99451,33.5068199634552
1619091095.3541,28.46368,33.52244997024536
1619091095.36973,22.7926,33.53807997703552
1619091095.38535,17.38837,33.55369997024536
1619091095.40098,12.46539,33.56932997703552
1619091095.4166,7.914978,33.58494997024536
1619091095.43223,3.348694,33.60057997703552
1619091095.44786,-1.751526,33.616209983825684
1619091095.46348,-7.831177,33.63182997703552
1619091095.47911,-15.13507,33.647459983825684
1619091095.49473,-23.52972,33.66307997703552
1619091095.51036,-32.55688,33.678709983825684
1619091095.52598,-41.49774,33.69432997703552
1619091095.54161,-49.59808,33.709959983825684
1619091095.55724,-56.37213,33.725589990615845
1619091095.57286,-61.81836,33.741209983825684
1619091095.58849,-66.49683,33.756839990615845
1619091095.60411,-71.37921,33.772459983825684
1619091095.61974,-77.53271,33.788089990615845
1619091095.63536,-85.66388,33.803709983825684
1619091095.65099,-95.73236,33.819339990615845
1619091095.66662,-106.6972,33.834969997406006
1619091095.68224,-116.5378,33.850589990615845
1619091095.69787,-122.6468,33.866219997406006
1619091095.71349,-122.5212,33.881839990615845
1619091095.72912,-114.5815,33.897469997406006
1619091095.74474,-98.81995,33.913089990615845
1619091095.76037,-77.05347,33.928719997406006
1619091095.776,-52.41345,33.94435000419617
1619091095.79162,-28.45367,33.959969997406006
1619091095.80725,-8.110291,33.97560000419617
1619091095.82287,7.109497,33.991219997406006
1619091095.8385,17.29346,34.00685000419617
1619091095.85412,23.67865,34.022469997406006
1619091095.86975,27.96649,34.03810000419617
1619091095.88538,31.64117,34.05373001098633
1619091095.901,35.52484,34.06935000419617
1619091095.91663,39.83154,34.08498001098633
1619091095.93225,44.31775,34.10060000419617
1619091095.94788,48.61682,34.11623001098633
1619091095.9635,52.38773,34.13185000419617
1619091095.97913,55.44742,34.14748001098633
1619091095.99476,57.71191,34.16311001777649
1619091096.01038,59.17404,34.17873001098633
1619091096.02601,59.87326,34.19436001777649
1619091096.04163,59.99478,34.20998001098633
1619091096.05726,59.81726,34.22561001777649
1619091096.07288,59.76682,34.24123001098633
1619091096.08851,60.2244,34.25686001777649
1619091096.10414,61.41901,34.27249002456665
1619091096.11976,63.27734,34.28811001777649
1619091096.13539,65.33939,34.30374002456665
1619091096.15101,66.92361,34.31936001777649
1619091096.16664,67.32257,34.33499002456665
1619091096.18226,66.05905,34.35061001777649
1619091096.19789,63.08206,34.36624002456665
1619091096.21352,58.78793,34.38187003135681
1619091096.22914,53.845,34.39749002456665
1619091096.24477,49.0401,34.41312003135681
1619091096.26039,45.02945,34.42874002456665
1619091096.27602,42.09967,34.44437003135681
1619091096.29164,40.15692,34.45999002456665
1619091096.30727,38.70114,34.47562003135681
1619091096.3229,37.01495,34.49125003814697
1619091096.33852,34.46719,34.50687003135681
1619091096.35415,30.70496,34.52250003814697
1619091096.36977,25.80893,34.53812003135681
1619091096.3854,20.27289,34.55375003814697
1619091096.40102,14.73523,34.56937003135681
1619091096.41665,9.735107,34.58500003814697
1619091096.43228,5.37262,34.600630044937134
1619091096.4479,1.299103,34.61625003814697
1619091096.46353,-3.210052,34.631880044937134
1619091096.47915,-8.888214,34.64750003814697
1619091096.49478,-16.15173,34.663130044937134
1619091096.5104,-24.88803,34.67875003814697
1619091096.52603,-34.4939,34.694380044937134
1619091096.54166,-44.10992,34.710010051727295
1619091096.55728,-52.97827,34.725630044937134
1619091096.57291,-60.71808,34.741260051727295
1619091096.58853,-67.47357,34.756880044937134
1619091096.60416,-73.90802,34.772510051727295
1619091096.61978,-81.00256,34.788130044937134
1619091096.63541,-89.83606,34.803760051727295
1619091096.65104,-101.1592,34.819390058517456
1619091096.66666,-114.8966,34.835010051727295
1619091096.68229,-129.8253,34.850640058517456
1619091096.69791,-143.5046,34.866260051727295
1619091096.71354,-152.6694,34.881890058517456
1619091096.72916,-154.1662,34.897510051727295
1619091096.74479,-146.0572,34.913140058517456
1619091096.76042,-128.3807,34.92877006530762
1619091096.77604,-103.2771,34.944390058517456
1619091096.79167,-74.3252,34.96002006530762
1619091096.80729,-45.3992,34.975640058517456
1619091096.82292,-19.56799,34.99127006530762
1619091096.83854,1.603989,35.006890058517456
1619091096.85417,18.09363,35.02252006530762
1619091096.8698,30.94151,35.03815007209778
1619091096.88542,41.576,35.05377006530762
1619091096.90105,51.23547,35.06940007209778
1619091096.91667,60.67101,35.08502006530762
1619091096.9323,69.98143,35.10065007209778
1619091096.94792,78.88641,35.11627006530762
1619091096.96355,86.83628,35.13190007209778
1619091096.97918,93.28647,35.14753007888794
1619091096.9948,97.93733,35.16315007209778
1619091097.01043,100.7642,35.17878007888794
1619091097.02605,102.0072,35.19440007209778
1619091097.04168,102.1207,35.21003007888794
1619091097.0573,101.6571,35.22565007209778
1619091097.07293,101.1111,35.24128007888794
1619091097.08856,100.9,35.2569100856781
1619091097.10418,101.2328,35.27253007888794
1619091097.11981,102.1138,35.2881600856781
1619091097.13543,103.2593,35.30378007888794
1619091097.15106,104.1759,35.3194100856781
1619091097.16668,104.3141,35.33503007888794
1619091097.18231,103.233,35.3506600856781
1619091097.19794,100.7153,35.36629009246826
1619091097.21356,96.79282,35.3819100856781
1619091097.22919,91.70419,35.39754009246826
1619091097.24481,85.80801,35.4131600856781
1619091097.26044,79.50838,35.42879009246826
1619091097.27606,73.23857,35.4444100856781
1619091097.29169,67.36565,35.46004009246826
1619091097.30732,62.14895,35.47567009925842
1619091097.32294,57.65807,35.49129009246826
1619091097.33857,53.70952,35.50692009925842
1619091097.35419,49.95013,35.52254009246826
1619091097.36982,46.02476,35.53817009925842
1619091097.38544,41.62281,35.55379009246826
1619091097.40107,36.63356,35.56942009925842
1619091097.4167,31.1678,35.585049867630005
1619091097.43232,25.41713,35.60067009925842
1619091097.44795,19.65129,35.616299867630005
1619091097.46357,14.05719,35.63192009925842
1619091097.4792,8.64959,35.647549867630005
1619091097.49482,3.225563,35.66317009925842
1619091097.51045,-2.57642,35.678799867630005
1619091097.52608,-9.242443,35.694429874420166
1619091097.5417,-17.16444,35.710049867630005
1619091097.55733,-26.40727,35.725679874420166
1619091097.57295,-36.63352,35.741299867630005
1619091097.58858,-47.14562,35.756929874420166
1619091097.60421,-57.1213,35.77255988121033
1619091097.61983,-65.91826,35.788179874420166
1619091097.63546,-73.34981,35.80380988121033
1619091097.65108,-79.76664,35.819429874420166
1619091097.66671,-86.04596,35.83505988121033
1619091097.68233,-93.33211,35.850679874420166
1619091097.69796,-102.752,35.86630988121033
1619091097.71359,-114.9796,35.88193988800049
1619091097.72921,-129.7816,35.89755988121033
1619091097.74484,-145.6013,35.91318988800049
1619091097.76046,-159.5294,35.92880988121033
1619091097.77609,-167.8642,35.94443988800049
1619091097.79171,-167.1395,35.96005988121033
1619091097.80734,-155.4359,35.97568988800049
1619091097.82297,-133.2665,35.99131989479065
1619091097.83859,-103.6106,36.00693988800049
1619091097.85422,-71.06096,36.02256989479065
1619091097.86984,-40.24666,36.03818988800049
1619091097.88547,-14.46396,36.05381989479065
1619091097.90109,5.107773,36.06943988800049
1619091097.91672,19.26254,36.08506989479065
1619091097.93235,29.89392,36.10069990158081
1619091097.94797,39.07173,36.11631989479065
1619091097.9636,48.24319,36.13194990158081
1619091097.97922,58.05708,36.14756989479065
1619091097.99485,68.38811,36.16319990158081
1619091098.01047,78.66573,36.17881989479065
1619091098.0261,88.11984,36.19444990158081
1619091098.04173,96.00835,36.21007990837097
1619091098.05735,101.7789,36.22569990158081
1619091098.07298,105.2059,36.24132990837097
1619091098.0886,106.405,36.25694990158081
1619091098.10423,105.7876,36.27257990837097
1619091098.11985,103.9865,36.28819990158081
1619091098.13548,101.6377,36.30382990837097
1619091098.15111,99.39186,36.31945991516113
1619091098.16673,97.74493,36.33507990837097
1619091098.18236,97.01491,36.35070991516113
1619091098.19798,97.20143,36.36632990837097
1619091098.21361,97.96614,36.38195991516113
1619091098.22923,98.6552,36.39757990837097
1619091098.24486,98.4431,36.41320991516113
1619091098.26049,96.73647,36.428839921951294
1619091098.27611,93.31386,36.44445991516113
1619091098.29174,88.50476,36.460089921951294
1619091098.30736,83.00606,36.47570991516113
1619091098.32299,77.62743,36.491339921951294
1619091098.33861,72.92346,36.50695991516113
1619091098.35424,68.99522,36.522589921951294
1619091098.36987,65.51413,36.538219928741455
1619091098.38549,61.87738,36.553839921951294
1619091098.40112,57.62231,36.569469928741455
1619091098.41674,52.57639,36.585089921951294
1619091098.43237,46.97469,36.600719928741455
1619091098.44799,41.37865,36.616339921951294
1619091098.46362,36.35503,36.631969928741455
1619091098.47925,32.2343,36.647599935531616
1619091098.49487,28.96086,36.663219928741455
1619091098.5105,26.06116,36.678849935531616
1619091098.52612,22.89201,36.694469928741455
1619091098.54175,18.90451,36.710099935531616
1619091098.55737,13.86258,36.725719928741455
1619091098.573,7.92453,36.741349935531616
1619091098.58863,1.568848,36.75697994232178
1619091098.60425,-4.678604,36.772599935531616
1619091098.61988,-10.39894,36.78822994232178
1619091098.6355,-15.53885,36.803849935531616
1619091098.65113,-20.36789,36.81947994232178
1619091098.66675,-25.43506,36.835099935531616
1619091098.68238,-31.24622,36.85072994232178
1619091098.69801,-38.08481,36.86635994911194
1619091098.71363,-45.7951,36.88197994232178
1619091098.72926,-53.82494,36.89760994911194
1619091098.74488,-61.49478,36.91322994232178
1619091098.76051,-68.25253,36.92885994911194
1619091098.77613,-74.00331,36.94447994232178
1619091098.79176,-79.17897,36.96010994911194
1619091098.80739,-84.6534,36.9757399559021
1619091098.82301,-91.41785,36.99135994911194
1619091098.83864,-100.3264,37.0069899559021
1619091098.85426,-111.7116,37.02260994911194
1619091098.86989,-125.1237,37.0382399559021
1619091098.88551,-139.1468,37.05385994911194
1619091098.90114,-151.3414,37.0694899559021
1619091098.91677,-158.6479,37.08511996269226
1619091098.93239,-158.16,37.1007399559021
1619091098.94802,-148.1049,37.11636996269226
1619091098.96364,-128.6409,37.1319899559021
1619091098.97927,-102.1046,37.14761996269226
1619091098.99489,-72.34593,37.1632399559021
1619091099.01052,-43.56975,37.17886996269226
1619091099.02615,-19.03577,37.19449996948242
1619091099.04177,-0.1801147,37.21011996269226
1619091099.0574,13.39203,37.22574996948242
1619091099.07302,23.33276,37.24136996269226
1619091099.08865,31.59836,37.25699996948242
1619091099.10427,39.66995,37.27261996269226
1619091099.1199,48.14,37.28824996948242
1619091099.13553,56.83118,37.30387997627258
1619091099.15115,65.10458,37.31949996948242
1619091099.16678,72.25992,37.33512997627258
1619091099.1824,77.84959,37.35074996948242
1619091099.19803,81.72334,37.36637997627258
1619091099.21365,83.99887,37.38199996948242
1619091099.22928,84.95068,37.39762997627258
1619091099.24491,84.88332,37.413259983062744
1619091099.26053,84.12825,37.42887997627258
1619091099.27616,83.05626,37.444509983062744
1619091099.29178,82.12477,37.46012997627258
1619091099.30741,81.76588,37.475759983062744
1619091099.32303,82.27325,37.49137997627258
1619091099.33866,83.59843,37.507009983062744
1619091099.35429,85.29526,37.522639989852905
1619091099.36991,86.58289,37.538259983062744
1619091099.38554,86.60802,37.553889989852905
1619091099.40116,84.83797,37.569509983062744
1619091099.41679,81.23515,37.585139989852905
1619091099.43241,76.29169,37.600759983062744
1619091099.44804,70.78209,37.616389989852905
1619091099.46367,65.49222,37.632019996643066
1619091099.47929,60.87941,37.647639989852905
1619091099.49492,57.00542,37.663269996643066
1619091099.51054,53.62434,37.678889989852905
1619091099.52617,50.40492,37.694519996643066
1619091099.54179,47.07857,37.710139989852905
1619091099.55742,43.54189,37.725769996643066
1619091099.57305,39.82256,37.74140000343323
1619091099.58867,35.99925,37.757019996643066
1619091099.6043,32.18065,37.77265000343323
1619091099.61992,28.45317,37.788269996643066
1619091099.63555,24.86243,37.80390000343323
1619091099.65117,21.37779,37.819519996643066
1619091099.6668,17.90921,37.83515000343323
1619091099.68243,14.26318,37.85078001022339
1619091099.69805,10.2749,37.86640000343323
1619091099.71368,5.871185,37.88203001022339
1619091099.7293,1.147163,37.89765000343323
1619091099.74493,-3.652283,37.91328001022339
1619091099.76055,-8.236504,37.92890000343323
1619091099.77618,-12.44712,37.94453001022339
1619091099.79181,-16.38577,37.96016001701355
1619091099.80743,-20.40532,37.97578001022339
1619091099.82306,-24.98997,37.99141001701355
1619091099.83868,-30.56654,38.00703001022339
1619091099.85431,-37.28759,38.02266001701355
1619091099.86994,-44.93872,38.03829002380371
1619091099.88556,-53.0388,38.05391001701355
1619091099.90119,-60.9297,38.06954002380371
1619091099.91681,-68.01124,38.08516001701355
1619091099.93244,-73.99033,38.10079002380371
1619091099.94806,-79.03107,38.11641001701355
1619091099.96369,-83.76355,38.13204002380371
1619091099.97932,-89.14775,38.14767003059387
1619091099.99494,-96.18333,38.16329002380371
1619091100.01057,-105.49,38.17892003059387
1619091100.02619,-116.8588,38.19454002380371
1619091100.04182,-128.9216,38.21017003059387
1619091100.05744,-139.2919,38.22579002380371
1619091100.07307,-144.9873,38.24142003059387
1619091100.0887,-143.3797,38.25705003738403
1619091100.10432,-133.0916,38.27267003059387
1619091100.11995,-114.5962,38.28830003738403
1619091100.13557,-90.18598,38.30392003059387
1619091100.1512,-63.35138,38.31955003738403
1619091100.16682,-37.66409,38.33517003059387
1619091100.18245,-15.81,38.35080003738403
1619091100.19808,1.028378,38.366430044174194
1619091100.2137,13.16393,38.38205003738403
1619091100.22933,21.87206,38.397680044174194
1619091100.24495,28.69525,38.41330003738403
1619091100.26058,34.88052,38.428930044174194
1619091100.2762,41.03976,38.44455003738403
1619091100.29183,47.18953,38.460180044174194
1619091100.30746,52.95285,38.475810050964355
1619091100.32308,57.83997,38.491430044174194
1619091100.33871,61.47763,38.507060050964355
1619091100.35433,63.7126,38.522680044174194
1619091100.36996,64.63567,38.538310050964355
1619091100.38558,64.52774,38.553930044174194
1619091100.40121,63.75854,38.569560050964355
1619091100.41684,62.75237,38.58519005775452
1619091100.43246,61.88095,38.600810050964355
1619091100.44809,61.45543,38.61644005775452
1619091100.46371,61.61441,38.632060050964355
1619091100.47934,62.34515,38.64769005775452
1619091100.49496,63.40536,38.663310050964355
1619091100.51059,64.38565,38.67894005775452
1619091100.52622,64.79954,38.69457006454468
1619091100.54184,64.22009,38.71019005775452
1619091100.55747,62.41338,38.72582006454468
1619091100.57309,59.43781,38.74144005775452
1619091100.58872,55.58941,38.75707006454468
1619091100.60434,51.28133,38.77269005775452
1619091100.61997,46.9205,38.78832006454468
1619091100.6356,42.81509,38.80395007133484
1619091100.65122,39.06953,38.81957006454468
1619091100.66685,35.65563,38.83520007133484
1619091100.68247,32.40007,38.85082006454468
1619091100.6981,29.06408,38.86645007133484
1619091100.71372,25.3946,38.88207006454468
1619091100.72935,21.16451,38.89770007133484
1619091100.74498,16.25392,38.913330078125
1619091100.7606,10.75792,38.92895007133484
1619091100.77623,5.01899,38.944580078125
1619091100.79185,-0.4878701,38.96020007133484
1619091100.80748,-5.364639,38.975830078125
1619091100.8231,-9.551968,38.99145007133484
1619091100.83873,-13.38168,39.007080078125
1619091100.85436,-17.4739,39.02271008491516
1619091100.86998,-22.438,39.038330078125
1619091100.88561,-28.592,39.05396008491516
1619091100.90123,-35.79509,39.069580078125
1619091100.91686,-43.5066,39.08521008491516
1619091100.93248,-51.04449,39.100830078125
1619091100.94811,-57.84806,39.11646008491516
1619091100.96374,-63.7042,39.13209009170532
1619091100.97936,-68.8,39.14771008491516
1619091100.99499,-73.65998,39.16334009170532
1619091101.01061,-79.01286,39.17896008491516
1619091101.02624,-85.61622,39.19459009170532
1619091101.04186,-94.05843,39.21021008491516
1619091101.05749,-104.4094,39.22584009170532
1619091101.07312,-115.8993,39.24147009849548
1619091101.08874,-126.7802,39.25709009170532
1619091101.10437,-134.4713,39.27272009849548
1619091101.11999,-136.272,39.28834009170532
1619091101.13562,-130.1899,39.30397009849548
1619091101.15124,-115.7918,39.31959009170532
1619091101.16687,-94.50481,39.33522009849548
1619091101.1825,-69.27342,39.350849866867065
1619091101.19812,-43.69686,39.36647009849548
1619091101.21375,-20.91733,39.382099866867065
1619091101.22937,-2.813557,39.39772009849548
1619091101.245,10.28841,39.413349866867065
1619091101.26062,19.35452,39.42897009849548
1619091101.27625,25.94964,39.444599866867065
1619091101.29188,31.59258,39.46022987365723
1619091101.3075,37.25506,39.475849866867065
1619091101.32313,43.2272,39.49147987365723
1619091101.33875,49.28844,39.507099866867065
1619091101.35438,54.91282,39.52272987365723
1619091101.37,59.57359,39.538349866867065
1619091101.38563,62.92258,39.55397987365723
1619091101.40126,64.88168,39.56960988044739
1619091101.41688,65.60181,39.58522987365723
1619091101.43251,65.46707,39.60085988044739
1619091101.44813,64.91572,39.61647987365723
1619091101.46376,64.40249,39.63210988044739
1619091101.47938,64.26875,39.64772987365723
1619091101.49501,64.6995,39.66335988044739
1619091101.51064,65.69295,39.67898988723755
1619091101.52626,67.06673,39.69460988044739
1619091101.54189,68.43973,39.71023988723755
1619091101.55751,69.31847,39.72585988044739
1619091101.57314,69.23435,39.74148988723755
1619091101.58876,67.8139,39.75710988044739
1619091101.60439,65.00117,39.77273988723755
1619091101.62002,61.0355,39.78836989402771
1619091101.63564,56.46418,39.80398988723755
1619091101.65127,51.915,39.81961989402771
1619091101.66689,47.85293,39.83523988723755
1619091101.68252,44.44669,39.85086989402771
1619091101.69814,41.49773,39.86648988723755
1619091101.71377,38.62048,39.88211989402771
1619091101.7294,35.44814,39.89774990081787
1619091101.74502,31.78102,39.91336989402771
1619091101.76065,27.66372,39.92899990081787
1619091101.77627,23.25905,39.94461989402771
1619091101.7919,18.72219,39.96024990081787
1619091101.80752,14.10187,39.97586989402771
1619091101.82315,9.312286,39.99149990081787
1619091101.83878,4.234497,40.00712990760803
1619091101.8544,-1.195541,40.02274990081787
1619091101.87003,-6.849846,40.03837990760803
1619091101.88565,-12.47572,40.05399990081787
1619091101.90128,-17.79501,40.06962990760803
1619091101.9169,-22.66058,40.08524990081787
1619091101.93253,-27.20038,40.10087990760803
1619091101.94816,-31.79692,40.11650991439819
1619091101.96378,-36.93317,40.13212990760803
1619091101.97941,-42.98115,40.14775991439819
1619091101.99503,-49.98751,40.16337990760803
1619091102.01066,-57.62769,40.17900991439819
1619091102.02628,-65.30199,40.19462990760803
1619091102.04191,-72.4324,40.21025991439819
1619091102.05754,-78.74454,40.225889921188354
1619091102.07316,-84.34055,40.24150991439819
1619091102.08879,-89.78305,40.257139921188354
1619091102.10441,-95.89037,40.27275991439819
1619091102.12004,-103.5712,40.288389921188354
1619091102.13566,-113.4581,40.30400991439819
1619091102.15129,-125.512,40.319639921188354
1619091102.16692,-138.7287,40.335269927978516
1619091102.18254,-151.0085,40.350889921188354
1619091102.19817,-159.4729,40.366519927978516
1619091102.21379,-161.2617,40.382139921188354
1619091102.22942,-154.459,40.397769927978516
1619091102.24504,-138.9046,40.413389921188354
1619091102.26067,-116.4148,40.429019927978516
1619091102.2763,-90.23719,40.44464993476868
1619091102.29192,-64.01176,40.460269927978516
1619091102.30755,-40.63911,40.47589993476868
1619091102.32317,-21.60486,40.491519927978516
1619091102.3388,-6.868896,40.50714993476868
1619091102.35442,4.598999,40.522769927978516
1619091102.37005,14.18965,40.53839993476868
1619091102.38568,23.02985,40.55402994155884
1619091102.4013,31.74313,40.56964993476868
1619091102.41693,40.42243,40.58527994155884
1619091102.43255,48.82346,40.60089993476868
1619091102.44818,56.54374,40.61652994155884
1619091102.46381,63.17102,40.632159948349
1619091102.47943,68.40276,40.64777994155884
1619091102.49506,72.0563,40.663409948349
1619091102.51068,74.1553,40.67902994155884
1619091102.52631,74.94861,40.694659948349
1619091102.54193,74.92416,40.71027994155884
1619091102.55756,74.65956,40.725909948349
1619091102.57319,74.69801,40.74153995513916
1619091102.58881,75.40711,40.757159948349
1619091102.60444,76.83646,40.77278995513916
1619091102.62006,78.7094,40.788409948349
1619091102.63569,80.53786,40.80403995513916
1619091102.65131,81.77091,40.819659948349
1619091102.66694,81.92766,40.83528995513916
1619091102.68257,80.7356,40.85091996192932
1619091102.69819,78.1442,40.86653995513916
1619091102.71382,74.31343,40.88216996192932
1619091102.72944,69.61929,40.89778995513916
1619091102.74507,64.55626,40.91341996192932
1619091102.76069,59.67824,40.92903995513916
1619091102.77632,55.42345,40.94466996192932
1619091102.79195,52.01155,40.96029996871948
1619091102.80757,49.37341,40.97591996192932
1619091102.8232,47.16525,40.99154996871948
1619091102.83882,44.9096,41.00716996192932
1619091102.85445,42.20609,41.02279996871948
1619091102.87007,38.85322,41.03841996192932
1619091102.8857,34.90308,41.05404996871948
1619091102.90133,30.65179,41.069679975509644
1619091102.91695,26.4745,41.08529996871948
1619091102.93258,22.68045,41.100929975509644
1619091102.9482,19.40609,41.11654996871948
1619091102.96383,16.48692,41.132179975509644
1619091102.97945,13.53897,41.14779996871948
1619091102.99508,10.05423,41.163429975509644
1619091103.01071,5.609482,41.179059982299805
1619091103.02633,0.09436035,41.194679975509644
1619091103.04196,-6.194809,41.210309982299805
1619091103.05758,-12.69084,41.225929975509644
1619091103.07321,-18.8148,41.241559982299805
1619091103.08883,-24.18887,41.257179975509644
1619091103.10446,-28.88622,41.272809982299805
1619091103.12009,-33.37658,41.288439989089966
1619091103.13571,-38.36165,41.304059982299805
1619091103.15134,-44.43552,41.319689989089966
1619091103.16696,-51.78136,41.335309982299805
1619091103.18259,-60.10773,41.350939989089966
1619091103.19821,-68.73579,41.366559982299805
1619091103.21384,-76.90831,41.382189989089966
1619091103.22947,-84.1194,41.39781999588013
1619091103.24509,-90.32047,41.413439989089966
1619091103.26072,-95.90615,41.42906999588013
1619091103.27634,-101.5982,41.444689989089966
1619091103.29197,-108.2661,41.46031999588013
1619091103.30759,-116.6891,41.475939989089966
1619091103.32322,-127.3081,41.49156999588013
1619091103.33885,-139.9484,41.50720000267029
1619091103.35447,-153.4395,41.52281999588013
1619091103.3701,-165.5166,41.53845000267029
1619091103.38572,-173.1472,41.55406999588013
1619091103.40135,-173.259,41.56970000267029
1619091103.41697,-163.8444,41.58531999588013
1619091103.4326,-144.8825,41.60095000267029
1619091103.44823,-118.5533,41.61658000946045
1619091103.46385,-88.63511,41.63220000267029
1619091103.47948,-59.31365,41.64783000946045
1619091103.4951,-33.80229,41.66345000267029
1619091103.51073,-13.58037,41.67908000946045
1619091103.52635,1.611763,41.69470000267029
1619091103.54198,13.23524,41.71033000946045
1619091103.55761,23.02656,41.72596001625061
1619091103.57323,32.35009,41.74158000946045
1619091103.58886,41.86625,41.75721001625061
1619091103.60448,51.6221,41.77283000946045
1619091103.62011,61.26278,41.78846001625061
1619091103.63573,70.29367,41.80408000946045
1619091103.65136,78.19883,41.81971001625061
1619091103.66699,84.59662,41.83534002304077
1619091103.68261,89.29921,41.85096001625061
1619091103.69824,92.33627,41.86659002304077
1619091103.71386,94.05664,41.88221001625061
1619091103.72949,95.02242,41.89784002304077
1619091103.74511,95.94604,41.91346001625061
1619091103.76074,97.43418,41.92909002304077
1619091103.77637,99.85789,41.94472002983093
1619091103.79199,103.1811,41.96034002304077
1619091103.80762,106.9722,41.97597002983093
1619091103.82324,110.6217,41.99159002304077
1619091103.83887,113.5052,42.00722002983093
1619091103.85449,115.2615,42.02284002304077
1619091103.87012,115.8507,42.03847002983093
1619091103.88575,115.5363,42.054100036621094
1619091103.90137,114.7468,42.06972002983093
1619091103.917,113.9165,42.085350036621094
1619091103.93262,113.3638,42.10097002983093
1619091103.94825,113.235,42.116600036621094
1619091103.96387,113.6057,42.13222002983093
1619091103.9795,114.4179,42.147850036621094
1619091103.99513,115.6009,42.163480043411255
1619091104.01075,117.1256,42.179100036621094
1619091104.02638,119.0028,42.194730043411255
1619091104.042,121.3861,42.210350036621094
1619091104.05763,124.4204,42.225980043411255
1619091104.07325,128.1818,42.241600036621094
1619091104.08888,132.5311,42.257230043411255
1619091104.10451,137.2058,42.272860050201416
1619091104.12013,141.9274,42.288480043411255
1619091104.13576,146.7775,42.304110050201416
1619091104.15138,152.3066,42.319730043411255
1619091104.16701,159.4568,42.335360050201416
1619091104.18263,169.1933,42.350980043411255
1619091104.19826,181.8847,42.366610050201416
1619091104.21389,196.9938,42.38224005699158
1619091104.22951,212.8867,42.397860050201416
1619091104.24514,227.2661,42.41349005699158
1619091104.26076,237.7484,42.429110050201416
1619091104.27639,242.5728,42.44474005699158
1619091104.29201,240.985,42.460360050201416
1619091104.30764,233.3977,42.47599005699158
1619091104.32327,221.1497,42.49162006378174
1619091104.33889,206.0677,42.50724005699158
1619091104.35452,190.0228,42.52287006378174
1619091104.37014,174.5095,42.53849005699158
1619091104.38577,160.3741,42.55412006378174
1619091104.40139,147.8112,42.56974005699158
1619091104.41702,136.5764,42.58537006378174
1619091104.43265,126.2457,42.6010000705719
1619091104.44827,116.5083,42.61662006378174
1619091104.4639,107.2481,42.6322500705719
1619091104.47952,98.42923,42.64787006378174
1619091104.49515,89.8616,42.6635000705719
1619091104.51077,81.08832,42.67912006378174
1619091104.5264,71.34021,42.6947500705719
1619091104.54203,59.82715,42.71038007736206
1619091104.55765,46.04382,42.7260000705719
1619091104.57328,29.88141,42.74163007736206
1619091104.5889,11.6651,42.7572500705719
1619091104.60453,-8.087585,42.77288007736206
1619091104.62015,-29.02838,42.7885000705719
1619091104.63578,-51.17468,42.80413007736206
1619091104.65141,-75.00403,42.81976008415222
1619091104.66703,-101.3402,42.83538007736206
1619091104.68266,-131.2528,42.85101008415222
1619091104.69828,-165.891,42.86663007736206
1619091104.71391,-206.1534,42.88226008415222
1619091104.72954,-252.271,42.89789009094238
1619091104.74516,-303.2794,42.91351008415222
1619091104.76079,-356.7308,42.92914009094238
1619091104.77641,-408.6672,42.94476008415222
1619091104.79204,-454.3238,42.96039009094238
1619091104.80766,-489.2015,42.97601008415222
1619091104.82329,-510.2557,42.99164009094238
1619091104.83892,-516.7065,43.007270097732544
1619091104.85454,-510.09,43.02289009094238
1619091104.87017,-493.482,43.038520097732544
1619091104.88579,-470.3992,43.05414009094238
1619091104.90142,-443.7825,43.069770097732544
1619091104.91704,-415.4647,43.08539009094238
1619091104.93267,-386.2589,43.101020097732544
1619091104.9483,-356.4506,43.116649866104126
1619091104.96392,-326.2859,43.132270097732544
1619091104.97955,-296.1565,43.147899866104126
1619091104.99517,-266.572,43.163520097732544
1619091105.0108,-237.892,43.179149866104126
1619091105.02642,-210.2245,43.194770097732544
1619091105.04205,-183.5177,43.210399866104126
1619091105.05768,-157.792,43.22602987289429
1619091105.0733,-133.4216,43.241649866104126
1619091105.08893,-111.1328,43.25727987289429
1619091105.10455,-91.74451,43.272899866104126
1619091105.12018,-75.67834,43.28852987289429
1619091105.1358,-62.71875,43.304149866104126
1619091105.15143,-52.00427,43.31977987289429
1619091105.16706,-42.35193,43.33540987968445
1619091105.18268,-32.82996,43.35102987289429
1619091105.19831,-23.17126,43.36665987968445
1619091105.21393,-13.80139,43.38227987289429
1619091105.22956,-5.65979,43.39790987968445
1619091105.24518,0.4165649,43.41352987289429
1619091105.26081,4.039551,43.42915987968445
1619091105.27644,5.449646,43.44478988647461
1619091105.29206,5.389221,43.46040987968445
1619091105.30769,4.701355,43.47603988647461
1619091105.32331,3.959045,43.49165987968445
1619091105.33894,3.199768,43.50728988647461
1619091105.35456,2.000244,43.52290987968445
1619091105.37019,-0.3383179,43.53853988647461
1619091105.38582,-4.342651,43.55416989326477
1619091105.40144,-10.1521,43.56978988647461
1619091105.41707,-17.39343,43.58541989326477
1619091105.43269,-25.33569,43.60103988647461
1619091105.44832,-33.16901,43.61666989326477
1619091105.46394,-40.38074,43.63228988647461
1619091105.47957,-46.92896,43.64791989326477
1619091105.4952,-53.33484,43.66354990005493
1619091105.51082,-60.57324,43.67916989326477
1619091105.52645,-69.70233,43.69479990005493
1619091105.54207,-81.5318,43.71041989326477
1619091105.5577,-96.14154,43.72604990005493
1619091105.57332,-112.4818,43.74166989326477
1619091105.58895,-128.2213,43.75729990005493
1619091105.60458,-140.0603,43.77292990684509
1619091105.6202,-144.501,43.78854990005493
1619091105.63583,-138.9454,43.80417990684509
1619091105.65145,-122.7697,43.81979990005493
1619091105.66708,-97.67432,43.83542990684509
1619091105.6827,-67.37378,43.85104990005493
1619091105.69833,-36.40991,43.86667990684509
1619091105.71396,-8.689209,43.882309913635254
1619091105.72958,13.58344,43.89792990684509
1619091105.74521,30.20935,43.913559913635254
1619091105.76083,42.52652,43.92917990684509
1619091105.77646,52.44962,43.944809913635254
1619091105.79208,61.5705,43.96042990684509
1619091105.80771,70.62759,43.976059913635254
1619091105.82334,79.59424,43.991689920425415
1619091105.83896,87.98145,44.007309913635254
1619091105.85459,95.29257,44.022939920425415
1619091105.87021,101.2336,44.038559913635254
1619091105.88584,105.8076,44.054189920425415
1619091105.90146,109.2066,44.069809913635254
1619091105.91709,111.6952,44.085439920425415
1619091105.93272,113.5627,44.101069927215576
1619091105.94834,115.0745,44.116689920425415
1619091105.96397,116.4747,44.132319927215576
1619091105.97959,117.989,44.147939920425415
1619091105.99522,119.8094,44.163569927215576
1619091106.01084,121.9558,44.179189920425415
1619091106.02647,124.267,44.194819927215576
1619091106.0421,126.3295,44.21044993400574
1619091106.05772,127.5106,44.226069927215576
1619091106.07335,127.149,44.24169993400574
1619091106.08897,124.7747,44.257319927215576
1619091106.1046,120.3381,44.27294993400574
1619091106.12022,114.2552,44.288569927215576
1619091106.13585,107.2994,44.30419993400574
1619091106.15148,100.2864,44.3198299407959
1619091106.1671,93.85136,44.33544993400574
1619091106.18273,88.21661,44.3510799407959
1619091106.19835,83.23094,44.36669993400574
1619091106.21398,78.46298,44.3823299407959
1619091106.2296,73.40803,44.39794993400574
1619091106.24523,67.67471,44.4135799407959
1619091106.26086,61.06372,44.42920994758606
1619091106.27648,53.62185,44.4448299407959
1619091106.29211,45.66852,44.46045994758606
1619091106.30773,37.68591,44.4760799407959
1619091106.32336,30.17809,44.49170994758606
1619091106.33898,23.4758,44.5073299407959
1619091106.35461,17.56184,44.52295994758606
1619091106.37024,11.94895,44.53858995437622
1619091106.38586,5.863853,44.55420994758606
1619091106.40149,-1.479227,44.56983995437622
1619091106.41711,-10.51296,44.58545994758606
1619091106.43274,-21.10093,44.60108995437622
1619091106.44836,-32.55383,44.61670994758606
1619091106.46399,-43.9133,44.63233995437622
1619091106.47962,-54.36108,44.64796996116638
1619091106.49524,-63.53823,44.66358995437622
1619091106.51087,-71.74933,44.67921996116638
1619091106.52649,-79.82976,44.69483995437622
1619091106.54212,-88.92059,44.71046996116638
1619091106.55774,-100.1048,44.72608995437622
1619091106.57337,-113.9679,44.74171996116638
1619091106.589,-130.2419,44.75734996795654
1619091106.60462,-147.4716,44.77296996116638
1619091106.62025,-162.9926,44.78859996795654
1619091106.63587,-173.3585,44.80421996116638
1619091106.6515,-175.2744,44.81984996795654
1619091106.66712,-166.6634,44.83546996116638
1619091106.68275,-147.5161,44.85109996795654
1619091106.69838,-120.1168,44.866729974746704
1619091106.714,-88.39938,44.88234996795654
1619091106.72963,-56.67418,44.897979974746704
1619091106.74525,-28.37396,44.91359996795654
1619091106.76088,-5.178009,44.929229974746704
1619091106.7765,13.06059,44.94484996795654
1619091106.79213,27.70767,44.960479974746704
1619091106.80776,40.44832,44.976109981536865
1619091106.82338,52.53944,44.991729974746704
1619091106.83901,64.4863,45.007359981536865
1619091106.85463,76.1514,45.022979974746704
1619091106.87026,87.05377,45.038609981536865
1619091106.88589,96.7081,45.054239988327026
1619091106.90151,104.7685,45.069859981536865
1619091106.91714,111.0482,45.085489988327026
1619091106.93276,115.4558,45.101109981536865
1619091106.94839,117.9756,45.116739988327026
1619091106.96401,118.744,45.132359981536865
1619091106.97964,118.1137,45.147989988327026
1619091106.99527,116.7117,45.16361999511719
1619091107.01089,115.3185,45.179239988327026
1619091107.02652,114.6038,45.19486999511719
1619091107.04214,114.8902,45.210489988327026
1619091107.05777,115.9804,45.22611999511719
1619091107.07339,117.2927,45.241739988327026
1619091107.08902,118.0327,45.25736999511719
1619091107.10465,117.5378,45.27300000190735
1619091107.12027,115.4499,45.28861999511719
1619091107.1359,111.8332,45.30425000190735
1619091107.15152,107.1033,45.31986999511719
1619091107.16715,101.8603,45.33550000190735
1619091107.18277,96.75247,45.35111999511719
1619091107.1984,92.22614,45.36675000190735
1619091107.21403,88.42142,45.38238000869751
1619091107.22965,85.12857,45.39800000190735
1619091107.24528,81.87369,45.41363000869751
1619091107.2609,78.14767,45.42925000190735
1619091107.27653,73.65305,45.44488000869751
1619091107.29215,68.4856,45.46050000190735
1619091107.30778,63.04599,45.47613000869751
1619091107.32341,57.87033,45.49176001548767
1619091107.33903,53.2709,45.50738000869751
1619091107.35466,49.14658,45.52301001548767
1619091107.37028,45.02316,45.53863000869751
1619091107.38591,40.2478,45.55426001548767
1619091107.40153,34.35095,45.56988000869751
1619091107.41716,27.27118,45.58551001548767
1619091107.43279,19.43466,45.60114002227783
1619091107.44841,11.49356,45.61676001548767
1619091107.46404,4.075806,45.63239002227783
1619091107.47966,-2.607147,45.64801001548767
1619091107.49529,-8.809753,45.66364002227783
1619091107.51091,-15.18594,45.67926001548767
1619091107.52654,-22.4035,45.69489002227783
1619091107.54217,-30.86951,45.71052002906799
1619091107.55779,-40.53064,45.72614002227783
1619091107.57342,-50.85754,45.74177002906799
1619091107.58904,-61.11658,45.75739002227783
1619091107.60467,-70.64197,45.77302002906799
1619091107.62029,-79.1221,45.78864002227783
1619091107.63592,-86.70169,45.80427002906799
1619091107.65155,-94.02081,45.819900035858154
1619091107.66717,-102.0573,45.83552002906799
