,index,PPG_Raw,PPG_Clean,PPG_Rate,PPG_Peaks,EDA_Raw,EDA_Clean,EDA_Tonic,EDA_Phasic,SCR_Onsets,SCR_Peaks,SCR_Height,SCR_Amplitude,SCR_RiseTime,SCR_Recovery,SCR_RecoveryTime,Index,Label,Condition,id
0,0.0,-27.22131,0.0,74.75268780595113,0,0.12961715607912905,0.12964114940848276,0.16108409081643446,-0.03144294133127658,0,0,0,0,0,0,0,352,2,nuda,1
1,0.015873015873015872,-23.77175,0.0,74.81937983824332,0,0.13067031196736248,0.1307208315438066,0.16113292496746176,-0.030412093346136256,0,0,0,0,0,0,0,353,2,nuda,1
2,0.031746031746031744,-19.92222,0.0,74.88288831820401,0,0.13181882427031708,0.13188754999960897,0.16118176158554642,-0.029294211507570726,0,0,0,0,0,0,0,354,2,nuda,1
3,0.047619047619047616,-16.01108,0.0,74.94293209716248,0,0.13304953199684388,0.13312989387748292,0.16123060045890888,-0.028100706502207435,0,0,0,0,0,0,0,355,2,nuda,1
4,0.06349206349206349,-12.11528,0.0,74.9992292176994,0,0.13434846949752893,0.1344358442379359,0.16127944135878308,-0.026843597040772833,0,0,0,0,0,0,0,356,2,nuda,1
5,0.07936507936507936,-8.017365,0.0,75.05149717750116,0,0.1357016711229582,0.13579270330862328,0.16132828404010585,-0.02553558065054835,0,0,0,0,0,0,0,357,2,nuda,1
6,0.09523809523809523,-3.294968,1.0347395529629155,75.09945321483053,0,0.13709517122371762,0.13718707789294166,0.16137712824224323,-0.024190050267503472,0,0,0,0,0,0,0,358,2,nuda,1
7,0.1111111111111111,2.456886,6.855834991692852,75.14281461545758,0,0.13851500415039314,0.1386049283120118,0.16142597368974587,-0.022821045295068107,0,0,0,0,0,0,0,359,2,nuda,1
8,0.12698412698412698,9.301552,13.528736825985627,75.18129904080274,0,0.1399472042535708,0.14003168918643183,0.1614748200931264,-0.0214431308231567,0,0,0,0,0,0,0,360,2,nuda,1
9,0.14285714285714285,16.8831,20.70906643865109,75.21462487694451,0,0.1413778058838365,0.14145246308276277,0.16152366714964983,-0.02007120398247328,0,0,0,0,0,0,0,361,2,nuda,1
10,0.15873015873015872,24.44475,27.77786915792006,75.24251160403915,0,0.1427928433917763,0.14285228271753717,0.16157251454412944,-0.01872023174129858,0,0,0,0,0,0,0,362,2,nuda,1
11,0.1746031746031746,31.04478,34.00445030432426,75.2646801855893,0,0.1441783511279761,0.1442164322300231,0.1616213619497189,-0.017404929633518175,0,0,0,0,0,0,0,363,2,nuda,1
12,0.19047619047619047,35.93157,38.75531042195119,75.280853476882,0,0.1455203634430219,0.14553081322986777,0.16167020902869247,-0.016139395711759062,0,0,0,0,0,0,0,364,2,nuda,1
13,0.20634920634920634,38.76036,41.662687701676255,75.29075665179663,0,0.14680491468749962,0.1467823371633127,0.16171905543320456,-0.014936718181934167,0,0,0,0,0,0,0,365,2,nuda,1
14,0.2222222222222222,39.64307,42.689886012625614,75.29411764705883,1,0.1480180392119953,0.14795932232929287,0.16176790080602071,-0.013808578387873985,0,0,0,0,0,0,0,366,2,nuda,1
15,0.23809523809523808,39.00088,42.082323937930376,75.27600423711368,0,0.1491457713670949,0.14905187194524214,0.16181674478121252,-0.012764872746216245,0,0,0,0,0,0,0,367,2,nuda,1
16,0.25396825396825395,37.33028,40.24429143751196,75.22238291794963,0,0.15017414550338434,0.15005220932756927,0.16186558698480968,-0.011813377566581877,0,0,0,0,0,0,0,368,2,nuda,1
17,0.2698412698412698,35.05833,37.60559301812233,75.1344029518901,0,0.15108919711531943,0.15095494775335502,0.1619144270354039,-0.01095947919048179,0,0,0,0,0,0,0,369,2,nuda,1
18,0.2857142857142857,32.38231,34.530695519064196,75.01329984690777,0,0.1518819796284796,0.1517572759896245,0.16196326454469964,-0.010205988462595463,0,0,0,0,0,0,0,370,2,nuda,1
19,0.30158730158730157,29.45303,31.287556091914364,74.86038483840768,0,0.15256007398388566,0.15245904564703922,0.16201209911800923,-0.009553053377573641,0,0,0,0,0,0,0,371,2,nuda,1
20,0.31746031746031744,26.38596,28.057911788474886,74.67703429111583,0,0.15313445894085392,0.15306275296054087,0.16206093035469019,-0.008998177299832162,0,0,0,0,0,0,0,372,2,nuda,1
21,0.3333333333333333,23.31227,24.956002149678618,74.46467915104525,0,0.15361611325870064,0.1535734145791898,0.16210975784852505,-0.00853634317409325,0,0,0,0,0,0,0,373,2,nuda,1
22,0.3492063492063492,20.43795,22.03353733519845,74.22479456730206,0,0.15401601569674211,0.15399834362711817,0.16215858118804505,-0.008160237464755922,0,0,0,0,0,0,0,374,2,nuda,1
23,0.36507936507936506,17.86685,19.273519485160662,73.95888979178137,0,0.1543451450142946,0.15434683797828602,0.16220739995680036,-0.00786056188141027,0,0,0,0,0,0,0,375,2,nuda,1
24,0.38095238095238093,15.55877,16.594385294803967,73.66849845201621,0,0.15461447997067443,0.15462979695904272,0.1622562137335811,-0.007626416676497064,0,0,0,0,0,0,0,376,2,nuda,1
25,0.3968253968253968,13.30367,13.883993540432936,73.35516927899393,0,0.15483499932519781,0.15485928544925728,0.16230502209259445,-0.007445736544354436,0,0,0,0,0,0,0,377,2,nuda,1
26,0.4126984126984127,10.88805,11.060920292089829,73.02045735803081,0,0.1550176818371811,0.1550480657171543,0.1623538246036042,-0.007305758786521571,0,0,0,0,0,0,0,378,2,nuda,1
27,0.42857142857142855,8.200546,8.134439433519269,72.66591595714661,0,0.15517350626594043,0.1552091175398021,0.1624026208320392,-0.00719350319135909,0,0,0,0,0,0,0,379,2,nuda,1
28,0.4444444444444444,5.34214,5.224563151741606,72.2930889741161,0,0.15531345137079225,0.1553551665057344,0.16245141033907856,-0.007096243731512283,0,0,0,0,0,0,0,380,2,nuda,1
29,0.4603174603174603,2.615685,2.5198001696080192,71.90350403074942,0,0.1554484959110527,0.15549823910619667,0.16250019268172036,-0.007001953472733738,0,0,0,0,0,0,0,381,2,nuda,1
30,0.47619047619047616,0.3778076,0.18581494995775305,71.49866623117897,0,0.15558961864603815,0.15564926145606967,0.16254896741284164,-0.0068997058530198,0,0,0,0,0,0,0,382,2,nuda,1
31,0.49206349206349204,-1.215958,0.0,71.08005259016457,0,0.1557477983350648,0.15581771631151786,0.16259773408125633,-0.006780017665019876,0,0,0,0,0,0,0,383,2,nuda,1
32,0.5079365079365079,-2.266685,0.0,70.64910712778216,0,0.15593401373744903,0.15601137045722926,0.1626464922317773,-0.00663512166885877,0,0,0,0,0,0,0,384,2,nuda,1
33,0.5238095238095237,-3.157433,0.0,70.20723661839958,0,0.15615924357202793,0.15623608147100862,0.16269524140528813,-0.006459159827615373,0,0,0,0,0,0,0,385,2,nuda,1
34,0.5396825396825397,-4.305023,0.0,69.75580697459411,0,0.15643146770491473,0.15649568930949545,0.16274398113882893,-0.0062482917216902835,0,0,0,0,0,0,0,386,2,nuda,1
35,0.5555555555555556,-5.886688,0.0,69.29614024061932,0,0.1567475164018616,0.15679199416491488,0.16279271096569964,-0.006000716692158344,0,0,0,0,0,0,0,387,2,nuda,1
36,0.5714285714285714,-7.754318,0.0,68.82951216515008,0,0.1571016292670158,0.157124817842141,0.16284143041558302,-0.0057166124638281125,0,0,0,0,0,0,0,388,2,nuda,1
37,0.5873015873015872,-9.538239,0.0,68.35715031925929,0,0.15748804590452453,0.15749214186729799,0.16289013901468827,-0.005397997036784689,0,0,0,0,0,0,0,389,2,nuda,1
38,0.6031746031746031,-10.80718,0.0,67.88023272283509,0,0.15790100591853518,0.1578903120826586,0.1629388362859154,-0.005048524091655291,0,0,0,0,0,0,0,390,2,nuda,1
39,0.6190476190476191,-11.28477,0.0,67.39988694083642,0,0.15833474891319493,0.15831429693755622,0.1629875217490393,-0.004673224698881479,0,0,0,0,0,0,0,391,2,nuda,1
40,0.6349206349206349,-11.06525,0.0,66.91718960981505,0,0.15878351449265113,0.15875798519770348,0.163036194920911,-0.004278209609601589,0,0,0,0,0,0,0,392,2,nuda,1
41,0.6507936507936507,-10.51639,0.0,66.4331663548968,0,0.15924154226105094,0.15921450832216072,0.16308485531567404,-0.0038703468788988294,0,0,0,0,0,0,0,393,2,nuda,1
42,0.6666666666666666,-10.23619,0.0,65.94879205781251,0,0.15970307182254176,0.15967657312117994,0.1631335024449916,-0.00345692920818439,0,0,0,0,0,0,0,394,2,nuda,1
43,0.6825396825396826,-10.8753,0.0,65.46499143750107,0,0.16016234278127073,0.16013679127155492,0.16318213581828137,-0.003045344430082142,0,0,0,0,0,0,0,395,2,nuda,1
44,0.6984126984126984,-12.90737,0.0,64.98263990617393,0,0.1606135947413852,0.16058799359325743,0.16323075494295333,-0.002642761232030301,0,0,0,0,0,0,0,396,2,nuda,1
45,0.7142857142857142,-16.54315,0.0,64.50256466544708,0,0.16105106730703245,0.1610235184931913,0.16327935932464677,-0.0022558407127643496,0,0,0,0,0,0,0,397,2,nuda,1
46,0.7301587301587301,-21.53602,0.0,64.02554600912826,0,0.1614690000823597,0.1614374655424853,0.16332794846746207,-0.001890482805255853,0,0,0,0,0,0,0,398,2,nuda,1
47,0.746031746031746,-27.10582,0.0,63.55231880142134,0,0.1618616326715143,0.16182490673557776,0.1633765218741836,-0.0015516150178509036,0,0,0,0,0,0,0,399,2,nuda,1
48,0.7619047619047619,-32.14187,0.0,63.08357410161165,0,0.1622232046786434,0.16218204961255805,0.16342507904649048,-0.0012430293121391302,0,0,0,0,0,0,0,400,2,nuda,1
49,0.7777777777777777,-35.56316,0.0,62.619960908669086,0,0.1625479557078944,0.16250634817998874,0.16347361948515216,-0.0009672711823275077,0,0,0,0,0,0,0,401,2,nuda,1
50,0.7936507936507936,-36.78734,0.0,62.16208800160092,0,0.16283177242225746,0.16279655950514843,0.16352214269020693,-0.0007255830611756029,0,0,0,0,0,0,0,402,2,nuda,1
51,0.8095238095238095,-36.05373,0.0,61.71052585376521,0,0.16307745911680202,0.1630527459951672,0.16357064816112157,-0.0005179020410202035,0,0,0,0,0,0,0,403,2,nuda,1
52,0.8253968253968254,-34.35223,0.0,61.26580860168387,0,0.16328963591969425,0.16327622562133293,0.16361913539693176,-0.0003429096496091726,0,0,0,0,0,0,0,404,2,nuda,1
53,0.8412698412698412,-32.84388,0.0,60.82843605114731,0,0.16347292296653812,0.16346947452883684,0.1636676038963631,-0.00019812924047676699,0,0,0,0,0,0,0,405,2,nuda,1
54,0.8571428571428571,-32.39993,0.0,60.398875705559774,0,0.1636319403929376,0.163635988360516,0.16371605315793333,-8.006466930375166e-05,0,0,0,0,0,0,0,406,2,nuda,1
55,0.873015873015873,-33.07264,0.0,59.977564803521794,0,0.16377130833449668,0.16378011003877904,0.1637644826800375,1.5627487923567697e-05,0,0,0,0,0,0,0,407,2,nuda,1
56,0.8888888888888888,-34.13998,0.0,59.56491235457375,0,0.16389564692681935,0.1639068326127104,0.16381289196101753,9.394078194766703e-05,0,0,0,0,0,0,0,408,2,nuda,1
57,0.9047619047619047,-34.63659,0.0,59.161301163827815,0,0.1640095763055095,0.16402158611325865,0.1638612804992195,0.00016030574537096495,0,0,0,0,0,0,0,409,2,nuda,1
58,0.9206349206349206,-33.88212,0.0,58.767089837891255,0,0.16411771660617114,0.16413001726651552,0.16390964779304049,0.000220369605888158,0,0,0,0,0,0,0,410,2,nuda,1
59,0.9365079365079365,-31.84207,0.0,58.382614766033605,0,0.16422468796440826,0.16423777051931537,0.16395799334096892,0.00027977731184516963,0,0,0,0,0,0,0,411,2,nuda,1
60,0.9523809523809523,-29.20693,0.0,58.00819207197772,0,0.16433511051582483,0.1643502782488721,0.16400631664162096,0.00034396174183975396,0,0,0,0,0,0,0,412,2,nuda,1
61,0.9682539682539681,-27.05788,0.0,57.644119533003334,0,0.1644536043960248,0.16447256733949894,0.1640546171937766,0.0004179502814051529,0,0,0,0,0,0,0,413,2,nuda,1
62,0.9841269841269841,-26.35763,0.0,57.29067846425075,0,0.16458478974061216,0.164609088546558,0.1641028944964183,0.0005061941869210374,0,0,0,0,0,0,0,414,2,nuda,1
63,1.0,-27.62417,0.0,56.94813556720667,0,0.16473328668519088,0.16476357421355445,0.1641511480487753,0.0006124263026632635,0,0,0,0,0,0,0,415,2,nuda,1
0,0.0,-40.50547,0.0,76.92759693040314,0,0.2072607349785619,0.20730032910066937,0.2160252747935948,-0.008724951917156996,0,0,0,0,0,0,0,1419,4,nuda,3
1,0.015873015873015872,-44.71964,0.0,77.05777403589975,0,0.20688030643125052,0.20692459921973363,0.21609051421894568,-0.009165921259042462,0,0,0,0,0,0,0,1420,4,nuda,3
2,0.031746031746031744,-48.83025,0.0,77.18483181878523,0,0.20647226092668358,0.20651810111535412,0.21615579818262715,-0.009637703362798941,0,0,0,0,0,0,0,1421,4,nuda,3
3,0.047619047619047616,-52.52088,0.0,77.3082609600368,0,0.20604261114090341,0.20608763553424794,0.21622112683774503,-0.010133497634814978,0,0,0,0,0,0,0,1422,4,nuda,3
4,0.06349206349206349,-55.21112,0.0,77.42754688142966,0,0.205597369749952,0.2056399414013692,0.2162865003318025,-0.01064656529763941,0,0,0,0,0,0,0,1423,4,nuda,3
5,0.07936507936507936,-56.11584,0.0,77.54217022979849,0,0.20514254942987148,0.20518155838922725,0.21635191880641402,-0.011170366820377238,0,0,0,0,0,0,0,1424,4,nuda,3
6,0.09523809523809523,-54.47088,0.0,77.65160743404405,0,0.20468416285670385,0.20471872594760082,0.21641738239700953,-0.011698662888679347,0,0,0,0,0,0,0,1425,4,nuda,3
7,0.1111111111111111,-49.76981,0.0,77.75533133591821,0,0.2042282227064914,0.20425731966587785,0.21648289123253198,-0.01222557804210064,0,0,0,0,0,0,0,1426,4,nuda,3
8,0.12698412698412698,-42.106,0.0,77.85281189529168,0,0.2037807416552762,0.2038028233588151,0.21654844543513244,-0.012745628588035173,0,0,0,0,0,0,0,1427,4,nuda,3
9,0.14285714285714285,-32.17727,0.0,77.9435169702361,0,0.20334770372580818,0.20336033298669276,0.21661404511986568,-0.013253718681257354,0,0,0,0,0,0,0,1428,4,nuda,3
10,0.15873015873015872,-21.11864,0.0,78.02691317183404,0,0.20293385165382657,0.2029345865163115,0.21667969039438972,-0.013745110462624204,0,0,0,0,0,0,0,1429,4,nuda,3
11,0.1746031746031746,-10.13977,0.0,78.10246679316889,0,0.20254223786873105,0.20253001218045186,0.21674538135867222,-0.014215375799322685,0,0,0,0,0,0,0,1430,4,nuda,3
12,0.19047619047619047,-0.123745,2.985809552856762,78.16964481144261,0,0.20217579365039165,0.20215078639733444,0.2168111181047064,-0.01466033836512515,0,0,0,0,0,0,0,1431,4,nuda,3
13,0.20634920634920634,8.523495,11.66198964794415,78.22791596162544,0,0.20183745027867853,0.20180089197565484,0.2168769007162393,-0.015076015435082801,0,0,0,0,0,0,0,1432,4,nuda,3
14,0.2222222222222222,15.74579,18.761674805305358,78.27675187945954,0,0.20153013903346192,0.20148416724927964,0.21694272926851454,-0.015458568750572508,0,0,0,0,0,0,0,1433,4,nuda,3
15,0.23809523809523808,21.54554,24.150900249830293,78.31562831102407,0,0.20125679119461196,0.20120433751224692,0.21700860382803205,-0.01580427308405582,0,0,0,0,0,0,0,1434,4,nuda,3
16,0.25396825396825395,25.87589,27.810160666192495,78.3440263854247,0,0.20102033804199898,0.20096502155480778,0.2170745244523271,-0.01610950970281675,0,0,0,0,0,0,0,1435,4,nuda,3
17,0.2698412698412698,28.6133,29.798406898175312,78.3614339465028,0,0.20082371085549305,0.20076970816941625,0.21714049118977066,-0.016370789862771944,0,0,0,0,0,0,0,1436,4,nuda,3
18,0.2857142857142857,29.71719,30.26881456464925,78.36734693877551,1,0.20066984091496443,0.20062170008085778,0.2172065040793931,-0.016584810878166073,0,0,0,0,0,0,0,1437,4,nuda,3
19,0.30158730158730157,29.36397,29.50061927068097,78.35204577103283,0,0.20056165950028326,0.20052402568823996,0.21727256315073354,-0.016748544379430394,0,0,0,0,0,0,0,1438,4,nuda,3
20,0.31746031746031744,27.99337,27.896385218547202,78.30685347438036,0,0.20050209789131984,0.2004793220796996,0.21733866842371638,-0.0168593532983523,0,0,0,0,0,0,0,1439,4,nuda,3
21,0.3333333333333333,26.22188,25.915992708434793,78.23288456299757,0,0.20049408736794413,0.2004896957546549,0.21740481990855706,-0.016915131145728693,0,0,0,0,0,0,0,1440,4,nuda,3
22,0.3492063492063492,24.62379,23.961645672072226,78.13131063677132,0,0.20054055921002661,0.2005565701074263,0.2174710176056983,-0.01691445452768165,0,0,0,0,0,0,0,1441,4,nuda,3
23,0.36507936507936506,23.52122,22.264390817753647,78.00335225558618,0,0.20064444469743725,0.20068053073528921,0.21753726150577812,-0.01685673783757342,0,0,0,0,0,0,0,1442,4,nuda,3
24,0.38095238095238093,22.86933,20.829132354946786,77.85027091514684,0,0.20080867511004635,0.2008611808045399,0.2176035515896303,-0.01674237788994135,0,0,0,0,0,0,0,1443,4,nuda,3
25,0.3968253968253968,22.34633,19.46744869003074,77.67336120200605,0,0.20103610631088628,0.2010970188693721,0.21766988782831792,-0.016572876101654532,0,0,0,0,0,0,0,1444,4,nuda,3
26,0.4126984126984127,21.47294,17.90171480765819,77.47394319719652,0,0.20132532313486298,0.20138535061802842,0.2177362701831993,-0.016350926745828383,0,0,0,0,0,0,0,1445,4,nuda,3
27,0.42857142857142855,19.94086,15.886901970980968,77.25335518910832,0,0.20166843237436388,0.20172224408454548,0.21780269860602558,-0.0160804617401772,0,0,0,0,0,0,0,1446,4,nuda,3
28,0.4444444444444444,17.63348,13.289811099096868,77.01294674724981,0,0.20205699984888287,0.20210253513250012,0.21786917303906847,-0.01576664516339553,0,0,0,0,0,0,0,1447,4,nuda,3
29,0.4603174603174603,14.72336,10.093347430902515,76.75407219949626,0,0.2024825913779141,0.20251988682730895,0.2179356934152758,-0.01541581388301428,0,0,0,0,0,0,0,1448,4,nuda,3
30,0.47619047619047616,11.43776,6.339026124569819,76.47808454655907,0,0.20293677278095185,0.20296690303079068,0.21800225965845185,-0.015035363961018748,0,0,0,0,0,0,0,1449,4,nuda,3
31,0.49206349206349204,7.878693,2.0562900416186767,76.18632983886582,0,0.20341110987749025,0.2034352934693515,0.21806887168345893,-0.014633585585864754,0,0,0,0,0,0,0,1450,4,nuda,3
32,0.5079365079365079,3.947266,0.0,75.88014203296721,0,0.20389716848702327,0.20391608481597345,0.21813552939643585,-0.014219451990708794,0,0,0,0,0,0,0,1451,4,nuda,3
33,0.5238095238095237,-0.5942688,0.0,75.56083833708895,0,0.20438651442904504,0.20439987004360644,0.21820223269502864,-0.013802370100246646,0,0,0,0,0,0,0,1452,4,nuda,3
34,0.5396825396825397,-5.920624,0.0,75.22971504860935,0,0.2048707135230499,0.20487708644160071,0.21826898146862828,-0.013391902514518697,0,0,0,0,0,0,0,1453,4,nuda,3
35,0.5555555555555556,-11.98418,0.0,74.88804388012133,0,0.2053413315885318,0.20533831120448126,0.21833577559861006,-0.012997471920374894,0,0,0,0,0,0,0,1454,4,nuda,3
36,0.5714285714285714,-18.45317,0.0,74.53706876536363,0,0.20578993444498506,0.2057745623882729,0.21840261495856916,-0.01262806013538531,0,0,0,0,0,0,0,1455,4,nuda,3
37,0.5873015873015872,-24.92509,0.0,74.17800313168897,0,0.20620808791190354,0.20617759231029895,0.21846949941454713,-0.012291914708267848,0,0,0,0,0,0,0,1456,4,nuda,3
38,0.6031746031746031,-31.1289,0.0,73.81202762187037,0,0.2065873578087815,0.20654016022071137,0.2185364288252439,-0.011996276247570133,0,0,0,0,0,0,0,1457,4,nuda,3
39,0.6190476190476191,-37.0829,0.0,73.44028824490505,0,0.20691930995511312,0.2068562714163408,0.21860340304221093,-0.011747139308012695,0,0,0,0,0,0,0,1458,4,nuda,3
40,0.6349206349206349,-43.09492,0.0,73.06389493302292,0,0.2071955101703926,0.20712137103370915,0.2186704219100211,-0.011549058597646142,0,0,0,0,0,0,0,1459,4,nuda,3
41,0.6507936507936507,-49.51286,0.0,72.68392048029708,0,0.20740759255209967,0.2073324826549064,0.21873748526641196,-0.011405010372117746,0,0,0,0,0,0,0,1460,4,nuda,3
42,0.6666666666666666,-56.41446,0.0,72.30139983703283,0,0.20755243931116737,0.2074882846098435,0.21880459294240012,-0.01131631613253278,0,0,0,0,0,0,0,1461,4,nuda,3
43,0.6825396825396826,-63.42985,0.0,71.91732973342533,0,0.20763580908649804,0.207589120339452,0.2188717447623643,-0.011282632262338013,0,0,0,0,0,0,0,1462,4,nuda,3
44,0.6984126984126984,-69.85196,0.0,71.53266860575862,0,0.20766431789212605,0.20763694309998207,0.21893894054409688,-0.011302005323075359,0,0,0,0,0,0,0,1463,4,nuda,3
45,0.7142857142857142,-74.79903,0.0,71.14833679861681,0,0.20764458174208564,0.20763519920573392,0.21900618009882417,-0.01137098881167056,0,0,0,0,0,0,0,1464,4,nuda,3
46,0.7301587301587301,-77.63396,0.0,70.7652170171273,0,0.20758321665041135,0.2075886574709503,0.21907346323119609,-0.011484813718530407,0,0,0,0,0,0,0,1465,4,nuda,3
47,0.746031746031746,-78.08236,0.0,70.38415500410261,0,0.20748683863113734,0.2075031951735146,0.21914078973924747,-0.011637602563805988,0,0,0,0,0,0,0,1466,4,nuda,3
48,0.7619047619047619,-76.27471,0.0,70.00596041803726,0,0.20736206369829804,0.20738555255573377,0.21920815941433378,-0.011822614896545416,0,0,0,0,0,0,0,1467,4,nuda,3
49,0.7777777777777777,-72.55254,0.0,69.63140788920036,0,0.20721550786592782,0.20724306860585068,0.21927557204104423,-0.012032511513094622,0,0,0,0,0,0,0,1468,4,nuda,3
50,0.7936507936507936,-67.26635,0.0,69.26123823249863,0,0.20705378714806105,0.20708341075257794,0.2193430273970965,-0.012259624762458298,0,0,0,0,0,0,0,1469,4,nuda,3
51,0.8095238095238095,-60.64055,0.0,68.89615979732868,0,0.20688351755873205,0.20691431033699925,0.21941052525321705,-0.012496223074278888,0,0,0,0,0,0,0,1470,4,nuda,3
52,0.8253968253968254,-52.80695,0.0,68.53684993625637,0,0.2067113151119751,0.20674331449289632,0.2194780653730116,-0.012734759078379967,0,0,0,0,0,0,0,1471,4,nuda,3
53,0.8412698412698412,-43.8802,0.0,68.18395657602586,0,0.20654379582182467,0.20657756353173976,0.2195456475128299,-0.012968092219640293,0,0,0,0,0,0,0,1472,4,nuda,3
54,0.8571428571428571,-34.01492,0.0,67.83809987608517,0,0.2063875757023151,0.20642360120859715,0.2196132714216293,-0.01318967849194916,0,0,0,0,0,0,0,1473,4,nuda,3
55,0.873015873015873,-23.3539,0.0,67.49987396149889,0,0.2062492707674807,0.20628722340417033,0.21968093684084114,-0.013393721756035745,0,0,0,0,0,0,0,1474,4,nuda,3
56,0.8888888888888888,-11.94169,0.0,67.16984871878556,0,0.2061354970313558,0.20617336881751458,0.21974864350424378,-0.013575283046622658,0,0,0,0,0,0,0,1475,4,nuda,3
57,0.9047619047619047,0.2665825,0.0,66.84857164485351,0,0.20605284732486423,0.20608605322494095,0.2198163911378456,-0.013730346313406822,0,0,0,0,0,0,0,1476,4,nuda,3
58,0.9206349206349206,13.31793,0.0,66.53656974080795,0,0.2060053725981604,0.20602834673707585,0.21988417945978064,-0.013855841163895552,0,0,0,0,0,0,0,1477,4,nuda,3
59,0.9365079365079365,27.0918,10.405317944434215,66.2343514439557,0,0.20599232271561285,0.20600239134102377,0.2199520081802197,-0.013949625321154544,0,0,0,0,0,0,0,1478,4,nuda,3
60,0.9523809523809523,41.09887,24.217758106689253,65.94240859284076,0,0.20601241439584475,0.20600945398281922,0.22001987700129783,-0.01401043154128402,0,0,0,0,0,0,0,1479,4,nuda,3
61,0.9682539682539681,54.42557,37.104465623459916,65.66121842160474,0,0.20606436435747924,0.20605000872003787,0.22008778561706038,-0.014037785460753177,0,0,0,0,0,0,0,1480,4,nuda,3
62,0.9841269841269841,66.01213,48.26203629499931,65.39124558138133,0,0.2061468893191396,0.2061238402529776,0.22015573371342786,-0.01403190206518426,0,0,0,0,0,0,0,1481,4,nuda,3
63,1.0,75.03949,57.203274501731116,65.13294418780974,0,0.20625870599944895,0.20623016056116675,0.22022372096817996,-0.013993569052828139,0,0,0,0,0,0,0,1482,4,nuda,3
0,0.0,27.61534,22.01522157476904,62.957296683179784,0,0.2987564101371886,0.29882791011075044,0.32576460977477284,-0.030541388473505286,0,0,0,0,0,0,0,5192,6,nuda,5
1,0.015873015873015872,30.54728,24.303288825029888,62.95448295002029,0,0.29636868221410084,0.29650268387589435,0.3257854142742133,-0.03290047760039366,0,0,0,0,0,0,0,5193,6,nuda,5
2,0.031746031746031744,32.23972,25.731464993817365,62.95245668605947,0,0.29419869141208466,0.294406508215194,0.3258061215929659,-0.035030422463587015,0,0,0,0,0,0,0,5194,6,nuda,5
3,0.047619047619047616,32.80418,26.411756013746945,62.951231153308804,0,0.29229114081267354,0.29257525797903494,0.3258267322828987,-0.03689534847305676,0,0,0,0,0,0,0,5195,6,nuda,5
4,0.06349206349206349,32.68561,26.49717206834795,62.950819672131146,1,0.29069073349740704,0.2910379427268987,0.32584724687772576,-0.03846624630941615,0,0,0,0,0,0,0,5196,6,nuda,5
5,0.07936507936507936,32.36474,26.08549768984937,62.95572860114655,0,0.28944217254782373,0.2898159152678934,0.32586766589193994,-0.03972176338231504,0,0,0,0,0,0,0,5197,6,nuda,5
6,0.09523809523809523,32.04548,25.137701024759284,62.97034432668035,0,0.28858304252766476,0.2889223858315022,0.32588798981991485,-0.040648689658785805,0,0,0,0,0,0,0,5198,6,nuda,5
7,0.1111111111111111,31.38932,23.49297483251692,62.994506756400945,0,0.2881029944620835,0.28836226201931076,0.3259082191351873,-0.04124211771079077,0,0,0,0,0,0,0,5199,6,nuda,5
8,0.12698412698412698,29.86399,21.003457627777607,63.0280640681481,0,0.2879718980686422,0.2881323159725635,0.3259283542899281,-0.041505275547128725,0,0,0,0,0,0,0,5200,6,nuda,5
9,0.14285714285714285,27.08546,17.723888741711097,63.070872236227856,0,0.28815956094268796,0.28822166074258904,0.3259483957146042,-0.041449050242664535,0,0,0,0,0,0,0,5201,6,nuda,5
10,0.15873015873015872,23.31411,14.035382656243776,63.12279458201005,0,0.28863579067956774,0.2886124999493026,0.32596834381783024,-0.041091238279670796,0,0,0,0,0,0,0,5202,6,nuda,5
11,0.1746031746031746,19.48307,10.602361372240745,63.18370134679117,0,0.28937039487462746,0.289281100484786,0.3259881989864038,-0.0404555728442749,0,0,0,0,0,0,0,5203,6,nuda,5
12,0.19047619047619047,16.79418,8.152500914318198,63.25346928503462,0,0.2903331811232151,0.29019892851045886,0.32600796158551376,-0.03957058782948916,0,0,0,0,0,0,0,5204,6,nuda,5
13,0.20634920634920634,16.11893,7.177246455166135,63.33198127623635,0,0.29149395702067676,0.29133388462705245,0.326027631959109,-0.03846838266559762,0,0,0,0,0,0,0,5205,6,nuda,5
14,0.2222222222222222,17.46822,7.70635310385556,63.4191259537865,0,0.2928225301623579,0.2926515744385197,0.32604721043041024,-0.03718335175675066,0,0,0,0,0,0,0,5206,6,nuda,5
15,0.23809523809523808,20.08411,9.276899072794405,63.51479734930959,0,0.2942887081436075,0.2941165549066299,0.3260666973025477,-0.03575093812700031,0,0,0,0,0,0,0,5207,6,nuda,5
16,0.25396825396825395,22.75085,11.114691286044781,63.618894551067164,0,0.29586229855976975,0.29569350385255083,0.3260860928593048,-0.034206463919453936,0,0,0,0,0,0,0,5208,6,nuda,5
17,0.2698412698412698,24.43354,12.43602888473946,63.731321375099085,0,0.2975131090061942,0.2973482686949812,0.3261053973659468,-0.03258408165896322,0,0,0,0,0,0,0,5209,6,nuda,5
18,0.2857142857142857,24.67271,12.72394182338413,63.8519860478636,0,0.29921094707822443,0.29904876018968174,0.3261246110701157,-0.03091588051348002,0,0,0,0,0,0,0,5210,6,nuda,5
19,0.30158730158730157,23.63633,11.860962732806911,63.98080089921289,0,0.3009256203712103,0.30076566696675333,0.3261437342027702,-0.029231171757710776,0,0,0,0,0,0,0,5211,6,nuda,5
20,0.31746031746031744,21.89053,10.08566246133721,64.11768206460991,0,0.30262693648049543,0.30247297670959683,0.3261627669791534,-0.02755596759511689,0,0,0,0,0,0,0,5212,6,nuda,5
21,0.3333333333333333,19.96677,7.827870854039479,64.2625491955568,0,0.3042847030014296,0.30414829972757546,0.32618170959977116,-0.025912657586222927,0,0,0,0,0,0,0,5213,6,nuda,5
22,0.3492063492063492,18.21997,5.5197493870760335,64.41532517726215,0,0.30587117738902075,0.30577300035925464,0.3262005622513655,-0.0243198772463429,0,0,0,0,0,0,0,5214,6,nuda,5
23,0.36507936507936506,16.71833,3.4634490921872723,64.57593585262796,0,0.30737739975385964,0.30733215094649435,0.32621932510787127,-0.02279255407243665,0,0,0,0,0,0,0,5215,6,nuda,5
24,0.38095238095238093,15.41557,1.7843282496013873,64.74430975168579,0,0.3088031009160155,0.3088143316759409,0.32623799833134404,-0.021342107702538637,0,0,0,0,0,0,0,5216,6,nuda,5
25,0.3968253968253968,14.26614,0.4501173734162997,64.92037782565568,0,0.31014805887426067,0.31021130678612663,0.32625658207285113,-0.01997677370954126,0,0,0,0,0,0,0,5217,6,nuda,5
26,0.4126984126984127,13.25428,0.0,65.10407318484279,0,0.31141205162737284,0.31151761276526213,0.326275076473319,-0.01870201540424284,0,0,0,0,0,0,0,5218,6,nuda,5
27,0.42857142857142855,12.30744,0.0,65.29533083962428,0,0.3125948571741247,0.31273009662530393,0.3262934816643318,-0.01752098556207083,0,0,0,0,0,0,0,5219,6,nuda,5
28,0.4444444444444444,11.19383,0.0,65.49408744381384,0,0.31369625351329367,0.3138474418716959,0.32631179776887825,-0.016435000454079737,0,0,0,0,0,0,0,5220,6,nuda,5
29,0.4603174603174603,9.70565,0.0,65.70028103972378,0,0.3147160186436535,0.31486971652315837,0.32633002490204455,-0.015443991827847073,0,0,0,0,0,0,0,5221,6,nuda,5
30,0.47619047619047616,7.651459,0.0,65.91385080427507,0,0.3156539305639785,0.31579797191813186,0.3263481631716525,-0.014546908101660497,0,0,0,0,0,0,0,5222,6,nuda,5
31,0.49206349206349204,5.001801,0.0,66.13473679553361,0,0.3165097672730456,0.316633913721515,0.3263662126788426,-0.013742043358355358,0,0,0,0,0,0,0,5223,6,nuda,5
32,0.5079365079365079,1.83847,0.0,66.3628796990785,0,0.3172833067696283,0.3173796582568395,0.326384173518603,-0.013027281013661105,0,0,0,0,0,0,0,5224,6,nuda,5
33,0.5238095238095237,-1.57148,0.0,66.59822057363311,0,0.3179743270525029,0.31803757878088185,0.3264020457802453,-0.012400247542057527,0,0,0,0,0,0,0,5225,6,nuda,5
34,0.5396825396825397,-4.907806,0.0,66.84070059541476,0,0.3185826061204434,0.3186102382788298,0.3264198295478273,-0.011858379682023744,0,0,0,0,0,0,0,5226,6,nuda,5
35,0.5555555555555556,-7.782104,0.0,67.0902608006822,0,0.3191079219722259,0.3191003983762551,0.3264375249005256,-0.011398915524430859,0,0,0,0,0,0,0,5227,6,nuda,5
36,0.5714285714285714,-9.931198,0.0,67.3468418259836,0,0.3195500526066247,0.31951108849602217,0.3264551319129586,-0.011018825355947994,0,0,0,0,0,0,0,5228,6,nuda,5
37,0.5873015873015872,-11.32982,0.0,67.61038364563098,0,0.3199087760224155,0.31984571573914056,0.32647265065546194,-0.010714701778457927,0,0,0,0,0,0,0,5229,6,nuda,5
38,0.6031746031746031,-12.11841,0.0,67.88082530594944,0,0.32018449609048855,0.32010819427654275,0.32649008119431716,-0.010482630317500975,0,0,0,0,0,0,0,5230,6,nuda,5
39,0.6190476190476191,-12.67636,0.0,68.15810465587396,0,0.32038310118305285,0.32030307326177637,0.3265074235919373,-0.010318061509760217,0,0,0,0,0,0,0,5231,6,nuda,5
40,0.6349206349206349,-13.24924,0.0,68.44215807348893,0,0.32051331940886396,0.32043564418700843,0.3265246779070105,-0.010215703547193507,0,0,0,0,0,0,0,5232,6,nuda,5
41,0.6507936507936507,-13.80327,0.0,68.73292018813153,0,0.3205839028212555,0.32051201182305156,0.32654184419460464,-0.01016945133710429,0,0,0,0,0,0,0,5233,6,nuda,5
42,0.6666666666666666,-13.76935,0.0,69.03032359770481,0,0.32060360347356137,0.3205391169375367,0.3265589225062359,-0.010172363784030082,0,0,0,0,0,0,0,5234,6,nuda,5
43,0.6825396825396826,-12.31082,0.0,69.3342985808732,0,0.3205811734191155,0.32052470341446937,0.3265759128899053,-0.010216696670215367,0,0,0,0,0,0,0,5235,6,nuda,5
44,0.6984126984126984,-8.727509,0.0,69.64477280384212,0,0.32052536471125187,0.32047722683578284,0.3265928153901066,-0.010293994074058335,0,0,0,0,0,0,0,5236,6,nuda,5
45,0.7142857142857142,-2.911148,0.0,69.9616710214529,0,0.3204449294033043,0.3204057057844903,0.3266096300478108,-0.010395237066936068,0,0,0,0,0,0,0,5237,6,nuda,5
46,0.7301587301587301,4.405212,0.0,70.28491477235663,0,0.3203486195486067,0.3203195209462408,0.326626356900431,-0.010511044611605947,0,0,0,0,0,0,0,5238,6,nuda,5
47,0.746031746031746,11.98715,0.0,70.614422068065,0,0.3202451872004929,0.32022817044334867,0.3266429959817741,-0.010631918228120363,0,0,0,0,0,0,0,5239,6,nuda,5
48,0.7619047619047619,18.61337,2.2048635441641995,70.9501070757138,0,0.32014338441229706,0.3201409926811243,0.3266595473219838,-0.010748519147431407,0,0,0,0,0,0,0,5240,6,nuda,5
49,0.7777777777777777,23.73077,7.911676301454413,71.29187979441362,0,0.3200519632373527,0.3200668702649062,0.3266760109474805,-0.010851964394291206,0,0,0,0,0,0,0,5241,6,nuda,5
50,0.7936507936507936,27.65332,12.96578646617382,71.6396457251065,0,0.31997967572899405,0.3200139301785931,0.3266923868809036,-0.010934126608654915,0,0,0,0,0,0,0,5242,6,nuda,5
51,0.8095238095238095,31.35342,17.783162461021337,71.9933055338935,0,0.31993527394055477,0.31998925629428127,0.3267086751410612,-0.010987921535985488,0,0,0,0,0,0,0,5243,6,nuda,5
52,0.8253968253968254,35.69363,22.730115405450476,72.35275470884766,0,0.31992750992536895,0.31999863028264974,0.32672487574289244,-0.01100756711682283,0,0,0,0,0,0,0,5244,6,nuda,5
53,0.8412698412698412,40.84561,27.803799057577276,72.71788321038231,0,0.3199651357367703,0.3200463159996154,0.3267409886974445,-0.010988799100099053,0,0,0,0,0,0,0,5245,6,nuda,5
54,0.8571428571428571,46.07527,32.511795285483494,73.08857511530219,0,0.320055981725969,0.32013490037532055,0.3267570140118706,-0.010929030154141187,0,0,0,0,0,0,0,5246,6,nuda,5
55,0.873015873015873,50.03633,36.02139246033304,73.46470825472811,0,0.32019860249461046,0.32026520077671283,0.32677295168944864,-0.010827442504102306,0,0,0,0,0,0,0,5247,6,nuda,5
56,0.8888888888888888,51.44699,37.50211765838987,73.84615384615384,1,0.3203861875435974,0.3204362449669145,0.326788801729624,-0.010685007972627492,0,0,0,0,0,0,0,5248,6,nuda,5
57,0.9047619047619047,49.68895,36.483838013936605,74.27547007950677,0,0.3206118610697493,0.32064532552212555,0.32680456412807524,-0.010504433563009324,0,0,0,0,0,0,0,5249,6,nuda,5
58,0.9206349206349206,45.10652,33.05214961310246,74.79350386302119,0,0.32086874726988623,0.32088812636009867,0.3268202388768036,-0.010290034930795168,0,0,0,0,0,0,0,5250,6,nuda,5
59,0.9365079365079365,38.71158,27.797692589733444,75.39782355762352,0,0.3211499703408276,0.32115891531147134,0.32683582596424393,-0.01004754381255822,0,0,0,0,0,0,0,5251,6,nuda,5
60,0.9523809523809523,31.72682,21.56762460064426,76.08628980268423,0,0.3214486544793935,0.3214507936990131,0.32685132537539496,-0.009783858446773203,0,0,0,0,0,0,0,5252,6,nuda,5
61,0.9682539682539681,25.04976,15.160972063426396,76.85697564068714,0,0.3217579238824035,0.3217559917628566,0.3268667370919655,-0.00950674814872429,0,0,0,0,0,0,0,5253,6,nuda,5
62,0.9841269841269841,19.02666,9.118303520573543,77.70808901257186,0,0.3220709027466775,0.32206619741384707,0.3268820610925327,-0.009224524557306279,0,0,0,0,0,0,0,5254,6,nuda,5
63,1.0,13.55669,3.6850419303059905,78.63789569214569,0,0.3223807152690352,0.32237290506211375,0.3268972973527078,-0.00894569280661174,0,0,0,0,0,0,0,5255,6,nuda,5
