,index,PPG_Raw,PPG_Clean,PPG_Rate,PPG_Peaks,EDA_Raw,EDA_Clean,EDA_Tonic,EDA_Phasic,SCR_Onsets,SCR_Peaks,SCR_Height,SCR_Amplitude,SCR_RiseTime,SCR_Recovery,SCR_RecoveryTime,Index,Label,Condition,id
0,0.0,-12.86195,0.0,69.12394993999658,0,0.1395139,0.1394644732300649,0.14298111615005935,-0.0035166429583105042,0,0,0,0,0,0,1,0,1,neutral,0
1,0.015873015873015872,-8.576324,0.0,69.12394993999658,0,0.13969140279544912,0.14037370826202641,0.1430349096903924,-0.002661201466681768,0,0,0,0,0,0,1,1,1,neutral,0
2,0.031746031746031744,-4.412735,0.0,69.12394993999658,0,0.14019787208089296,0.14130522297711087,0.14308874012096817,-0.0017835171821718853,0,0,0,0,0,0,1,2,1,neutral,0
3,0.047619047619047616,-0.2846222,0.0,69.12394993999658,0,0.14099424920497622,0.14228471037162596,0.14314260643593169,-0.0008578961026181556,0,0,0,0,0,0,0,3,1,neutral,0
4,0.06349206349206349,4.211548,0.0,69.12394993999658,0,0.1420414755163438,0.14333373328809815,0.14319650762840613,0.00013722562138261674,0,0,0,0,0,0,0,4,1,neutral,0
5,0.07936507936507936,9.612976,0.0,69.12394993999658,0,0.14330049236364042,0.14446760223243066,0.14325044269103662,0.0012171595030886096,0,0,0,0,0,0,0,5,1,neutral,0
6,0.09523809523809523,16.30917,0.0,69.12394993999658,0,0.1447322410955109,0.14569382712213377,0.1433044106165723,0.0023894164672609765,0,0,0,0,0,0,0,6,1,neutral,0
7,0.1111111111111111,24.31274,0.0,69.12394993999658,0,0.14629766306059994,0.14701125107385787,0.14335841039849542,0.0036528406370678838,0,0,0,0,0,0,0,7,1,neutral,0
8,0.12698412698412698,33.22809,0.0,69.12394993999658,0,0.14795769960755237,0.14840990458284936,0.14341244103170175,0.004997463512859941,0,0,0,0,0,0,0,8,1,neutral,0
9,0.14285714285714285,42.35487,4.378484966064801,69.12394993999658,0,0.14967329208501298,0.149871553426109,0.1434665015132312,0.006405051874597998,0,0,0,0,0,0,0,9,1,neutral,0
10,0.15873015873015872,50.93626,12.836512095878348,69.12394993999658,0,0.1514053818416265,0.15137085866230574,0.14352059084304322,0.007850267780991571,0,0,0,0,0,0,0,10,1,neutral,0
11,0.1746031746031746,58.26411,20.12757985148786,69.12394993999658,0,0.15311491022603776,0.15287702526712127,0.14357470802482689,0.009302317204033312,0,0,0,0,0,0,0,11,1,neutral,0
12,0.19047619047619047,63.95862,25.847124086195304,69.12394993999658,0,0.1547628185868915,0.1543557885182207,0.14362885206683096,0.010726936413139541,0,0,0,0,0,0,0,12,1,neutral,0
13,0.20634920634920634,68.03297,29.9552879419369,69.12394993999658,0,0.15631004827283254,0.15577157419848528,0.14368302198269728,0.012088552177549653,0,0,0,0,0,0,0,13,1,neutral,0
14,0.2222222222222222,70.76675,32.68670692924173,69.12394993999658,0,0.1577175406325056,0.15708966906964,0.14373721679227752,0.01335245223913703,0,0,0,0,0,0,0,14,1,neutral,0
15,0.23809523809523808,72.60168,34.410134033144104,69.12394993999658,0,0.1589462370145555,0.1582782503196468,0.14379143552241386,0.014486814759021437,0,0,0,0,0,0,0,15,1,neutral,0
16,0.25396825396825395,73.89011,35.49787274105875,69.12394993999658,0,0.159957078767627,0.15931014483123063,0.14384567720766353,0.015464467585370623,0,0,0,0,0,0,0,16,1,neutral,0
17,0.2698412698412698,74.8586,36.24546711845474,69.12394993999658,0,0.16072003367007293,0.16016421884681653,0.14389994089094962,0.016264277917686476,0,0,0,0,0,0,0,17,1,neutral,0
18,0.2857142857142857,75.57286,36.8499155267123,69.12394993999658,0,0.16124586285543865,0.1608263332570773,0.14395422562412272,0.016872107594791224,0,0,0,0,0,0,0,18,1,neutral,0
19,0.30158730158730157,76.06647,37.42469977424661,69.12394993999658,0,0.16155684596810824,0.16128983628580257,0.14400853046842108,0.017281305779236228,0,0,0,0,0,0,0,19,1,neutral,0
20,0.31746031746031744,76.39954,38.01714591829772,69.12394993999658,0,0.16167526333918616,0.16155560053218745,0.14406285449482165,0.017492745999239733,0,0,0,0,0,0,0,20,1,neutral,0
21,0.3333333333333333,76.59229,38.604186545866376,69.12394993999658,0,0.16162339529977696,0.16163164211394018,0.1441171967842779,0.01751444529155643,0,1,0,-2147483648,-2147483648,0,0,21,1,neutral,0
22,0.3492063492063492,76.71387,39.06929917668466,69.12394993999658,0,0.1614235221809851,0.16153238372991216,0.1441715564278449,0.017360827263982703,0,0,0,0,0,0,0,22,1,neutral,0
23,0.36507936507936506,76.63933,39.189123968074526,69.12394993999658,1,0.16109792431391504,0.16127763963749042,0.14422593252669602,0.01705170707273222,0,0,0,0,0,0,0,23,1,neutral,0
24,0.38095238095238093,76.08493,38.66491244510696,69.12420413884912,0,0.1606688820296714,0.16089140874403984,0.14428032419203946,0.016611084513961587,0,0,0,0,0,0,0,24,1,neutral,0
25,0.3968253968253968,74.64354,37.213337040790194,69.12496474791583,0,0.16015867565935857,0.16040056303411948,0.14433473054494567,0.01606583245115944,0,0,0,0,0,0,0,25,1,neutral,0
26,0.4126984126984127,71.96037,34.69230013828164,69.12622880245826,0,0.15958958553408104,0.15983351371372245,0.14438915071609942,0.015444362959634132,0,0,0,0,0,0,0,26,1,neutral,0
27,0.42857142857142855,67.99162,31.20357597377905,69.12799335938841,0,0.15898389198494345,0.15921892828656736,0.14444358384549127,0.014775344403113722,0,0,0,0,0,0,0,27,1,neutral,0
28,0.4444444444444444,63.09531,27.109849013523213,69.13025549683933,0,0.15836387534305013,0.15858455979640915,0.1444980290820651,0.014086530676409362,0,0,0,0,0,0,0,28,1,neutral,0
29,0.4603174603174603,58.00154,22.93829666075306,69.13301231374028,0,0.15775181593950566,0.15795623598721023,0.14455248558333764,0.013403750365966723,0,0,0,0,0,0,0,29,1,neutral,0
30,0.47619047619047616,53.46712,19.201545420533716,69.13626092939695,0,0.15716999410541457,0.15735704217130297,0.14460695251500594,0.012750089618421095,0,0,0,0,0,0,0,30,1,neutral,0
31,0.49206349206349204,49.97198,16.216703550679252,69.13999848307593,0,0.15664069017188129,0.1568067178617646,0.1446614290505578,0.01214528877336183,0,0,0,0,0,0,0,31,1,neutral,0
32,0.5079365079365079,47.50317,14.012588495718783,69.14422213359387,0,0.1561861844700104,0.15632127415798394,0.14471591437089784,0.011605359749273176,0,0,0,0,0,0,0,32,1,neutral,0
33,0.5238095238095237,45.6577,12.374596145719805,69.14892905891116,0,0.1558251793869267,0.15591282674656784,0.1447704076640011,0.011142419044787024,0,0,0,0,0,0,0,33,1,neutral,0
34,0.5396825396825397,43.87445,11.005848951436542,69.15411645572966,0,0.1555580953443173,0.15558962844295432,0.14482490812460294,0.01076472028060604,0,0,0,0,0,0,0,34,1,neutral,0
35,0.5555555555555556,41.81728,9.720807769297236,69.1597815390949,0,0.15537952886125217,0.15535627580659692,0.1448794149539327,0.01047686081495443,0,0,0,0,0,0,0,35,1,neutral,0
36,0.5714285714285714,39.53793,8.568244567961683,69.16592154200244,0,0.15528407397710675,0.15521405700631122,0.14493392735949567,0.010280129609142426,0,0,0,0,0,0,0,36,1,neutral,0
37,0.5873015873015872,37.46284,7.815717181602835,69.17253371500817,0,0.15526632473125632,0.15516140330710085,0.1449884445549066,0.010172958714558925,0,0,0,0,0,0,0,37,1,neutral,0
38,0.6031746031746031,36.15718,7.799464191229092,69.17961532584276,0,0.15532087516307624,0.15519440463118386,0.1450429657597748,0.010151438833812674,1,0,0,0,0,0,0,38,1,neutral,0
39,0.6190476190476191,36.01483,8.714948278056337,69.18716365902992,0,0.15544231931194188,0.15530735062259407,0.14509749019964088,0.010209860385396898,0,0,0,0,0,0,0,39,1,neutral,0
40,0.6349206349206349,37.0457,10.457456809106015,69.19517601550861,0,0.15562525121722864,0.15549326218726334,0.1451520171059627,0.010341245043785635,0,0,0,0,0,0,0,40,1,neutral,0
41,0.6507936507936507,38.66893,12.60064358707975,69.20364971225887,0,0.15586426491831173,0.15574438401577156,0.1452065457161471,0.0105378382621519,0,0,0,0,0,0,0,41,1,neutral,0
42,0.6666666666666666,40.03687,14.532515965784789,69.2125820819315,0,0.15615395445456662,0.15605261543077742,0.14526107527362409,0.010791540119724396,0,0,0,0,0,0,0,42,1,neutral,0
43,0.6825396825396826,40.28726,15.686913951409574,69.22197047248132,0,0.15648891386536862,0.15640986432933113,0.14531560502795865,0.011094259263988358,0,0,0,0,0,0,0,43,1,neutral,0
44,0.6984126984126984,38.9821,15.757160171024116,69.23181224680383,0,0.15686373719009317,0.15680831637099735,0.14537013423499567,0.011438182098663667,0,0,0,0,0,0,0,44,1,neutral,0
45,0.7142857142857142,36.32504,14.786788996342713,69.2421047823756,0,0.1572730184681155,0.15724061837062325,0.14542466215703334,0.011815956176299233,0,0,0,0,0,0,0,45,1,neutral,0
46,0.7301587301587301,32.95152,13.097681283570152,69.2528454708979,0,0.15771135173881096,0.15769998070496435,0.14547918806302082,0.012220792604701419,0,0,0,0,0,0,0,46,1,neutral,0
47,0.746031746031746,29.56485,11.102693108456368,69.26403171794364,0,0.158173331041555,0.1581802081955771,0.14553371122877562,0.012646496929609183,0,0,0,0,0,0,0,47,1,neutral,0
48,0.7619047619047619,26.54169,9.108282925126728,69.27566094260776,0,0.1586535504157229,0.15867567228017462,0.1455882309372168,0.013087441305816572,0,0,0,0,0,0,0,48,1,neutral,0
49,0.7777777777777777,23.85028,7.2096748453647805,69.28773057716067,0,0.15914671989082882,0.15918123933530592,0.1456427464786105,0.0135384928196064,0,0,0,0,0,0,0,49,1,neutral,0
50,0.7936507936507936,21.05235,5.320789574014483,69.30023806670495,0,0.1596482205093833,0.15969217085035037,0.14569725715082454,0.013994913662490265,0,0,0,0,0,0,0,50,1,neutral,0
51,0.8095238095238095,17.76914,3.301495450014653,69.31318086883506,0,0.16015367405508946,0.16020401091318062,0.14575176225958886,0.014452248616610923,0,0,0,0,0,0,0,51,1,neutral,0
52,0.8253968253968254,13.92551,1.0939250373032765,69.32655645330011,0,0.16065870262240933,0.16071247531437197,0.14580626111875916,0.01490621415868788,0,0,0,0,0,0,0,52,1,neutral,0
53,0.8412698412698412,9.791214,0.0,69.34036230166963,0,0.16115892830580486,0.161213354682905,0.14586075305058133,0.015352601595455921,0,0,0,0,0,0,0,53,1,neutral,0
54,0.8571428571428571,5.899849,0.0,69.35459590700215,0,0.161649973199738,0.1617024416085303,0.14591523738595372,0.01578720418576724,0,0,0,0,0,0,0,54,1,neutral,0
55,0.873015873015873,2.619217,0.0,69.36925477351684,0,0.16212745939867082,0.16217548886067804,0.1459697134646851,0.01620577535924331,0,0,0,0,0,0,0,55,1,neutral,0
56,0.8888888888888888,0.04072571,0.0,69.38433641626763,0,0.16258700899706535,0.1626282027537744,0.14602418063574574,0.01660402208134004,0,0,0,0,0,0,0,56,1,neutral,0
57,0.9047619047619047,-2.046135,0.0,69.39983836082044,0,0.16302424408938349,0.1630562726002711,0.14607863825750925,0.016977634306135532,0,0,0,0,0,0,0,57,1,neutral,0
58,0.9206349206349206,-3.873741,0.0,69.41575814293276,0,0.16343478677008727,0.1634554341939388,0.1461330856979825,0.017322348459393594,0,0,0,0,0,0,0,58,1,neutral,0
59,0.9365079365079365,-5.518372,0.0,69.43209330823618,0,0.16381425913363862,0.16382156252788457,0.14618752233502133,0.017634040156365518,0,0,0,0,0,0,0,59,1,neutral,0
60,0.9523809523809523,-6.889755,0.0,69.44884141192122,0,0.16415828327449966,0.16415078661841812,0.14624194755652947,0.01790883902545721,0,0,0,0,0,0,0,60,1,neutral,0
61,0.9682539682539681,-7.811638,0.0,69.46600001842494,0,0.16446248128713228,0.16443961751366531,0.14629636076063843,0.018143256716663014,0,0,0,0,0,0,0,61,1,neutral,0
62,0.9841269841269841,-8.251041,0.0,69.48356670112088,0,0.16472247526599856,0.16468507943883634,0.14635076135586603,0.018334318046675308,0,0,0,0,0,0,0,62,1,neutral,0
63,1.0,-8.3857,0.0,69.50153904201154,0,0.1649338873055604,0.16488483367055493,0.14640514876125166,0.018479684873078456,0,0,0,0,0,0,0,63,1,neutral,0
0,0.0,-43.05603,0.0,70.53048061274767,0,0.18238273835532437,0.18235577129780484,0.1929308450412818,-0.01057507319859243,0,0,0,0,0,0,0,1056,3,neutral,2
1,0.015873015873015872,-47.90283,0.0,70.56617091000756,0,0.18264402321346332,0.1826124186258214,0.1929926614303182,-0.010380242264788429,0,0,0,0,0,0,0,1057,3,neutral,2
2,0.031746031746031744,-52.84863,0.0,70.60160057540382,0,0.1828834957845451,0.18284915528148088,0.19305454726137325,-0.010205391445409242,0,0,0,0,0,0,0,1058,3,neutral,2
3,0.047619047619047616,-58.14294,0.0,70.63666974760308,0,0.1830963247194658,0.18306376943030842,0.19311650192900706,-0.010052731969490114,0,0,0,0,0,0,0,1059,3,neutral,2
4,0.06349206349206349,-64.00684,0.0,70.67127818030345,0,0.18328037661097968,0.18325493208989976,0.19317852482184805,-0.00992359220806381,0,0,0,0,0,0,0,1060,3,neutral,2
5,0.07936507936507936,-70.58252,0.0,70.7053252533719,0,0.18343788592091992,0.18342218667847332,0.19324061532268114,-0.009818428125697146,0,0,0,0,0,0,0,1061,3,neutral,2
6,0.09523809523809523,-77.83984,0.0,70.73870998687384,0,0.1835714854620286,0.18356590493287042,0.19330277280852257,-0.00973686736256517,0,0,0,0,0,0,0,1062,3,neutral,2
7,0.1111111111111111,-85.30823,0.0,70.77133105802048,0,0.18368380804704731,0.18368721331104368,0.1933649966506811,-0.009677782832024305,0,0,0,0,0,0,0,1063,3,neutral,2
8,0.12698412698412698,-91.99573,0.0,70.80308682105768,0,0.18377748648871806,0.18378789536379145,0.19342728621480568,-0.009639390348925383,0,0,0,0,0,0,0,1064,3,neutral,2
9,0.14285714285714285,-96.54211,0.0,70.83387533011822,0,0.18385515359978255,0.18387027646542384,0.19348964086092027,-0.009619363898982495,0,0,0,0,0,0,0,1065,3,neutral,2
10,0.15873015873015872,-97.54932,0.0,70.86359436505626,0,0.18391944219298273,0.18393709768128297,0.19355205994344685,-0.00961496177127566,0,0,0,0,0,0,0,1066,3,neutral,2
11,0.1746031746031746,-94.04041,0.0,70.89214146028054,0,0.18397298508106028,0.18399138545249072,0.19361454281121773,-0.009623156873515571,0,0,0,0,0,0,0,1067,3,neutral,2
12,0.19047619047619047,-85.88342,0.0,70.91941393659894,0,0.18401841507675715,0.18403632328173547,0.1936770888074791,-0.009640765046260238,0,0,0,0,0,0,0,1068,3,neutral,2
13,0.20634920634920634,-73.79138,0.0,70.94530893608395,0,0.18405836499281517,0.1840751308208805,0.19373969726988716,-0.009664565975302786,0,0,0,0,0,0,0,1069,3,neutral,2
14,0.2222222222222222,-59.14355,0.0,70.96972345996407,0,0.18409546764197612,0.18411095480541753,0.19380236753049873,-0.00969141225720853,0,0,0,0,0,0,0,1070,3,neutral,2
15,0.23809523809523808,-43.5022,0.0,70.99255440954224,0,0.18413235583698184,0.18414677524998607,0.19386509891575845,-0.009718323203782823,0,0,0,0,0,0,0,1071,3,neutral,2
16,0.25396825396825395,-28.12671,0.0,71.01369863013699,0,0.18417166239057414,0.18418532928513937,0.19392789074648398,-0.009742561005290334,0,0,0,0,0,0,0,1072,3,neutral,2
17,0.2698412698412698,-13.6991,0.0,71.03305295803769,0,0.18421602011549493,0.18422905402131007,0.19399074233785124,-0.009761687866474541,0,0,0,0,0,0,0,1073,3,neutral,2
18,0.2857142857142857,-0.4365234,0.0,71.05051427045883,0,0.18426806182448593,0.18428004888930738,0.19405365299938102,-0.00977360366604725,0,0,0,0,0,0,0,1074,3,neutral,2
19,0.30158730158730157,11.7489,8.737008186260644,71.06597953847326,0,0.18433041078666587,0.1843400570291504,0.19411662203492844,-0.009776564567844738,0,0,0,0,0,0,0,1075,3,neutral,2
20,0.31746031746031744,22.89185,19.244720966584644,71.07934588289729,0,0.1844047887753719,0.18441046447903026,0.19417964874267657,-0.009769183831859167,0,0,0,0,0,0,0,1076,3,neutral,2
21,0.3333333333333333,32.79297,28.31625242029273,71.09051063309475,0,0.18449128869590894,0.18449231516376155,0.19424273241513515,-0.009750416825785913,0,0,0,0,0,0,0,1077,3,neutral,2
22,0.3492063492063492,41.12561,35.779793008503816,71.09937138865959,0,0.18458983227613232,0.18458633902894403,0.19430587233914515,-0.009719532890866434,0,0,0,0,0,0,0,1078,3,neutral,2
23,0.36507936507936506,47.53113,41.426159298668395,71.1058260839297,0,0.18470034124389756,0.1846929901638987,0.1943690677958899,-0.00967607721896321,0,0,0,0,0,0,0,1079,3,neutral,2
24,0.38095238095238093,51.80957,45.11218978429401,71.10977305527697,0,0.18482273732705992,0.18481249145600678,0.19443231806091305,-0.009619826198238899,0,0,0,0,0,0,0,1080,3,neutral,2
25,0.3968253968253968,53.98914,46.850725734039905,71.11111111111111,1,0.184956942253475,0.1849448822550302,0.19449562240414406,-0.009550739748861278,0,0,0,0,0,0,0,1081,3,neutral,2
26,0.4126984126984127,54.33716,46.83727335867095,71.10646788531098,0,0.18510287775099804,0.1850900657010499,0.19455898008993075,-0.009468913995097385,0,0,0,0,0,0,0,1082,3,neutral,2
27,0.42857142857142855,53.26453,45.401438659394096,71.0927577113378,0,0.18526046554748457,0.18524785275712513,0.1946223903770793,-0.009374537232694389,0,0,0,0,0,0,0,1083,3,neutral,2
28,0.4444444444444444,51.24084,42.9109208464223,71.0703146698721,0,0.18542962737078997,0.18541800054084429,0.1946858525189018,-0.009267851597376291,0,0,0,0,0,0,0,1084,3,neutral,2
29,0.4603174603174603,48.64355,39.679404663965215,71.0394786146758,0,0.18561028494876966,0.18560024321100113,0.1947493657632711,-0.0091491221782223,0,0,0,0,0,0,0,1085,3,neutral,2
30,0.47619047619047616,45.67615,35.927287248862854,71.00059436445457,0,0.18580236000927902,0.18579431437861377,0.19481292935268243,-0.009018614606709847,0,0,0,0,0,0,0,1086,3,neutral,2
31,0.49206349206349204,42.43872,31.81672164692245,70.95401091882702,0,0.18600577428017345,0.18599996072171698,0.19487654252432246,-0.008876581441991032,0,0,0,0,0,0,0,1087,3,neutral,2
32,0.5079365079365079,38.98828,27.541635335596798,70.9000807009628,0,0.18622044948930838,0.1862169471451588,0.19494020451014488,-0.008723257011171787,0,0,0,0,0,0,0,1088,3,neutral,2
33,0.5238095238095237,35.48132,23.41791605876956,70.83915882916233,0,0.18644630736453924,0.1864450544042936,0.19500391453695287,-0.008558859785701157,0,0,0,0,0,0,0,1089,3,neutral,2
34,0.5396825396825397,32.30933,19.907653911636057,70.77160241936214,0,0.18668326963372153,0.18668407057972794,0.19506767182648807,-0.008383600906714379,0,0,0,0,0,0,0,1090,3,neutral,2
35,0.5555555555555556,30.05933,17.534667642551586,70.69776992026911,0,0.18693125719381723,0.18693377813405487,0.1951314755955259,-0.008197697128394061,0,0,0,0,0,0,0,1091,3,neutral,2
36,0.5714285714285714,29.32104,16.70121874914628,70.61802048255093,0,0.1871900746238231,0.1871939384952147,0.1951953250559773,-0.008001386234710991,0,0,0,0,0,0,0,1092,3,neutral,2
37,0.5873015873015872,30.39307,17.475217215656397,70.53271336324734,0,0.18745929156810998,0.1874642761977788,0.19525921941499655,-0.007794942898248356,0,0,0,0,0,0,0,1093,3,neutral,2
38,0.6031746031746031,33.03186,19.452008762659254,70.44220736631185,0,0.1877384493744144,0.18774446458332297,0.19532315787509516,-0.007578692979942068,0,0,0,0,0,0,0,1094,3,neutral,2
39,0.6190476190476191,36.33252,21.780895613750697,70.34686031995457,0,0.18802708939047252,0.1880341149289698,0.19538713963426174,-0.007353024400658451,0,0,0,0,0,0,0,1095,3,neutral,2
40,0.6349206349206349,39.01318,23.382062556609,70.24702859123046,0,0.18832475296402093,0.1883327706546327,0.19545116388608733,-0.007118392934075306,0,0,0,0,0,0,0,1096,3,neutral,2
41,0.6507936507936507,39.79889,23.290148491881393,70.14306663810626,0,0.18863098144279594,0.18863990796702934,0.1955152298198964,-0.006875321562799633,0,0,0,0,0,0,0,1097,3,neutral,2
42,0.6666666666666666,37.89807,20.98951050201797,70.0353265990446,0,0.188945316174534,0.18895494394028062,0.19557933662088292,-0.006624392397904736,0,0,0,0,0,0,0,1098,3,neutral,2
43,0.6825396825396826,33.41199,16.593066793073888,69.92415791996488,0,0.1892672985069714,0.18927725261389525,0.19564348347025115,-0.006366230581086435,0,0,0,0,0,0,0,1099,3,neutral,2
44,0.6984126984126984,27.22998,10.775978553793847,69.8099070182788,0,0.18959646978784458,0.18960618921411188,0.19570766954536134,-0.006101480063466465,0,0,0,0,0,0,0,1100,3,neutral,2
45,0.7142857142857142,20.72015,4.484794148166739,69.69291698355269,0,0.18993237136488994,0.1899411220822988,0.19577189401987938,-0.00583077167734271,0,0,0,0,0,0,0,1101,3,neutral,2
46,0.7301587301587301,15.03027,0.0,69.57352731422051,0,0.19027454458584395,0.19028147133925674,0.19583615606393023,-0.005554684472039638,0,0,0,0,0,0,0,1102,3,neutral,2
47,0.746031746031746,10.62787,0.0,69.45207368965922,0,0.1906225307984428,0.19062675275028537,0.19590045484425514,-0.005273701848999045,0,0,0,0,0,0,0,1103,3,neutral,2
48,0.7619047619047619,7.091614,0.0,69.32888777684175,0,0.190975871350423,0.19097662471549035,0.1959647895243716,-0.00498816457163298,0,0,0,0,0,0,0,1104,3,neutral,2
49,0.7777777777777777,3.466858,0.0,69.20429707070303,0,0.19133410758952094,0.19133093583384916,0.1960291592647366,-0.00469822320142114,0,0,0,0,0,0,0,1105,3,neutral,2
50,0.7936507936507936,-1.150574,0.0,69.0786247672885,0,0.19169678086347308,0.1916897701235367,0.19609356322291216,-0.004403792877750927,0,0,0,0,0,0,0,1106,3,neutral,2
51,0.8095238095238095,-7.147461,0.0,68.95218966870411,0,0.1920634354561084,0.19205348676922204,0.19615800055373378,-0.004104513570788882,0,0,0,0,0,0,0,1107,3,neutral,2
52,0.8253968253968254,-14.13959,0.0,68.82530611884951,0,0.19243427857168802,0.19242275124412153,0.19622247040948154,-0.003799718959598979,0,0,0,0,0,0,0,1108,3,neutral,2
53,0.8412698412698412,-21.29602,0.0,68.69828396889226,0,0.19281101686329105,0.19279855483586142,0.19628697194005396,-0.003488416906453783,0,0,0,0,0,0,0,1109,3,neutral,2
54,0.8571428571428571,-27.78674,0.0,68.57142857142857,0,0.19319556306674304,0.19318221998013937,0.1963515042931453,-0.003169284123350149,0,0,0,0,0,0,0,1110,3,neutral,2
55,0.873015873015873,-33.11151,0.0,68.44504080227668,0,0.1935898299178696,0.19357538934137977,0.1964160666144267,-0.0028406770915350883,0,0,0,0,0,0,0,1111,3,neutral,2
56,0.8888888888888888,-37.00549,0.0,68.31941710885877,0,0.193995730152496,0.19397999723303613,0.19648065804773202,-0.0025006606413891345,0,0,0,0,0,0,0,1112,3,neutral,2
57,0.9047619047619047,-39.18359,0.0,68.19484958414827,0,0.19441517650644785,0.19439822270859275,0.19654527773524913,-0.0021470548616161125,0,0,0,0,0,0,0,1113,3,neutral,2
58,0.9206349206349206,-39.08258,0.0,68.07162606518914,0,0.19485008171555065,0.19483242446155635,0.19660992481771797,-0.0017775001994493889,0,0,0,0,0,0,0,1114,3,neutral,2
59,0.9365079365079365,-36.09882,0.0,67.95003025523226,0,0.19530235851563005,0.19528505854553854,0.1966745984346364,-0.001389539740775457,0,0,0,0,0,0,0,1115,3,neutral,2
60,0.9523809523809523,-30.08441,0.0,67.83034186858028,0,0.1957739196425113,0.19575858086137068,0.1967392977244756,-0.0009807167232344875,0,0,0,0,0,0,0,1116,3,neutral,2
61,0.9682539682539681,-21.93152,0.0,67.7128367972861,0,0.19626667783202,0.1962553373423795,0.19680402182490614,-0.0005486843511704233,0,0,0,0,0,0,0,1117,3,neutral,2
62,0.9841269841269841,-13.51801,0.0,67.59778729891097,0,0.19678254581998167,0.1967774457649317,0.19686876987303584,-9.132398532463518e-05,0,0,0,0,0,0,0,1118,3,neutral,2
63,1.0,-6.994934,0.0,67.48546220461434,0,0.197323436342222,0.19732667405575807,0.19693354100566127,0.0003931331642368172,0,0,0,0,0,0,0,1119,3,neutral,2
0,0.0,-28.12758,0.0,58.30347751169114,0,0.2904867934933545,0.29059109981731274,0.30707693632029365,-0.01662472937091619,0,0,0,0,0,0,0,4796,5,neutral,4
1,0.015873015873015872,-30.72643,0.0,57.90389329389537,0,0.2909214273222414,0.2910247855866921,0.30713752089730184,-0.016255252296292665,0,0,0,0,0,0,0,4797,5,neutral,4
2,0.031746031746031744,-33.40483,0.0,57.50899425815174,0,0.29144912615899476,0.2915387499060938,0.30719818445957486,-0.01580559745707916,0,0,0,0,0,0,0,4798,5,neutral,4
3,0.047619047619047616,-36.31183,0.0,57.11919693344088,0,0.29205583428494747,0.2921265483197596,0.30725892597090415,-0.015282208336531964,0,0,0,0,0,0,0,4799,5,neutral,4
4,0.06349206349206349,-39.4006,0.0,56.73489296598055,0,0.29272748214722094,0.29277928308220874,0.3073197443860105,-0.014693981698474301,0,0,0,0,0,0,0,4800,5,neutral,4
5,0.07936507936507936,-42.47676,0.0,56.35645040432596,0,0.29345000019293405,0.2934858217721804,0.3073806386508474,-0.014052048973655307,0,0,0,0,0,0,0,4801,5,neutral,4
6,0.09523809523809523,-45.28726,0.0,55.98421499653984,0,0.29420931886920815,0.2942331084169222,0.3074416077029417,-0.013369465135799613,0,0,0,0,0,0,0,4802,5,neutral,4
7,0.1111111111111111,-47.69452,0.0,55.61851149231112,0,0.29499136862316283,0.29500655483372823,0.30750265047176456,-0.01266081736043843,0,0,0,0,0,0,0,4803,5,neutral,4
8,0.12698412698412698,-49.79364,0.0,55.25964494388647,0,0.29578207990191746,0.2957904966540692,0.30756376587912565,-0.011941769001171644,0,0,0,0,0,0,0,4804,5,neutral,4
9,0.14285714285714285,-51.93669,0.0,54.90790200060468,0,0.29656738315259357,0.29656869614342707,0.3076249528395823,-0.011228556770239788,0,0,0,0,0,0,0,4805,5,neutral,4
10,0.15873015873015872,-54.66519,0.0,54.56355219268835,0,0.2973332088223099,0.29732487232066396,0.3076862102608545,-0.010537460619567961,0,0,0,0,0,0,0,4806,5,neutral,4
11,0.1746031746031746,-58.58812,0.0,54.226849200751985,0,0.29806548735818805,0.2980432378722088,0.3077475370442365,-0.009884266826988862,0,0,0,0,0,0,0,4807,5,neutral,4
12,0.19047619047619047,-64.06387,0.0,53.89803210823072,0,0.2987501492073466,0.29870902187227594,0.3078089320849957,-0.009283745276420438,0,0,0,0,0,0,0,4808,5,neutral,4
13,0.20634920634920634,-70.97691,0.0,53.577326634622004,0,0.2993731248169072,0.29930895738325036,0.30787039427275,-0.008749161857855983,0,0,0,0,0,0,0,4809,5,neutral,4
14,0.2222222222222222,-78.43907,0.0,53.26494634806594,0,0.29992034463398914,0.2998317137437389,0.30793192249181456,-0.008291846179657647,0,0,0,0,0,0,0,4810,5,neutral,4
15,0.23809523809523808,-84.99965,0.0,52.961093856373026,0,0.3003777391057122,0.3002682549512393,0.30799351562151145,-0.007920833186194591,0,0,0,0,0,0,0,4811,5,neutral,4
16,0.25396825396825395,-88.91446,0.0,52.66596197614256,0,0.3007312386791974,0.3006121082208406,0.3080551725364347,-0.007642594599405311,0,0,0,0,0,0,0,4812,5,neutral,4
17,0.2698412698412698,-88.75685,0.0,52.37973488010721,0,0.3009689188986387,0.30085953068656796,0.3081168921066662,-0.007460872217666292,0,0,0,0,0,0,0,4813,5,neutral,4
18,0.2857142857142857,-83.9978,0.0,52.102589223290806,0,0.3010944629383242,0.3010095672663377,0.30817867319793846,-0.007376620050997913,0,1,0,0,0,0,0,4814,5,neutral,4
19,0.30158730158730157,-75.20149,0.0,51.83469524898532,0,0.30111845425266837,0.3010639986286384,0.3082405146717421,-0.007388056354488009,0,0,0,0,0,0,0,4815,5,neutral,4
20,0.31746031746031744,-63.87152,0.0,51.5762178759385,0,0.30105150685761534,0.30102718440363563,0.3083024153853776,-0.00749082041723706,0,0,0,0,0,0,0,4816,5,neutral,4
21,0.3333333333333333,-51.74374,0.0,51.32731776850643,0,0.3009042347691098,0.3009058125570129,0.30836437419195223,-0.007678223188511208,0,0,0,0,0,0,0,4817,5,neutral,4
22,0.3492063492063492,-40.19911,0.0,51.08815239186526,0,0.3006872520030958,0.3007085705483018,0.3084263899403247,-0.007941576119355188,0,0,0,0,0,0,0,4818,5,neutral,4
23,0.36507936507936506,-29.79735,0.0,50.85887705469934,0,0.3004111725755179,0.30044575713126603,0.30848846147500125,-0.008270579362101299,0,0,0,0,0,0,0,4819,5,neutral,4
24,0.38095238095238093,-20.41782,0.0,50.63964594209687,0,0.3000866105023207,0.300128855322703,0.3085505876359881,-0.008653748801418427,0,0,0,0,0,0,0,4820,5,neutral,4
25,0.3968253968253968,-11.50543,0.0,50.43061314168773,0,0.29972417979944804,0.29977008730485155,0.3086127672586062,-0.00907886115171614,0,0,0,0,0,0,0,4821,5,neutral,4
26,0.4126984126984127,-2.622818,0.0,50.23193366636278,0,0.299334494482845,0.29938197110926257,0.3086749991732745,-0.009533397273055425,0,0,0,0,0,0,0,4822,5,neutral,4
27,0.42857142857142855,6.349976,0.0,50.04376447721986,0,0.2989281685684552,0.29897689717437376,0.3087372822052694,-0.010004965613330707,0,0,0,0,0,0,0,4823,5,neutral,4
28,0.4444444444444444,15.1434,7.0108199528085855,49.86626551069621,0,0.2985158160722238,0.2985667405671442,0.3087996151744667,-0.010481689986374984,0,0,0,0,0,0,0,4824,5,neutral,4
29,0.4603174603174603,23.22495,14.286263593930439,49.69960071417574,0,0.2981080510100944,0.29816252203263593,0.30886199689507354,-0.010952548522107683,0,0,0,0,0,0,0,4825,5,neutral,4
30,0.47619047619047616,30.1076,20.375032579647428,49.543939094707106,0,0.2977154873980121,0.2977741282168793,0.3089244261753576,-0.011407653443395775,0,0,0,0,0,0,0,4826,5,neutral,4
31,0.49206349206349204,35.35211,24.760509494939956,49.39945578584157,0,0.2973487392519207,0.29741009844659305,0.30898690181737887,-0.011838464286063284,0,0,0,0,0,0,0,4827,5,neutral,4
32,0.5079365079365079,38.69957,27.21979908381094,49.26633313800484,0,0.2970184205877648,0.2970774823376531,0.3090494226167304,-0.012237930290160782,0,0,0,0,0,0,0,4828,5,neutral,4
33,0.5238095238095237,40.19458,27.98380106519169,49.14476183826097,0,0.29673418203118823,0.2967817692279134,0.30911198736229273,-0.012600560966896109,0,0,0,0,0,1,0,4829,5,neutral,4
34,0.5396825396825397,40.33952,27.753572974190835,49.03494206581737,0,0.2964976755979925,0.2965268870268042,0.30917459483600596,-0.012922427248806156,0,0,0,0,0,0,0,4830,5,neutral,4
35,0.5555555555555556,40.16246,27.53775709500529,48.937084690166024,0,0.2963065931298599,0.2963152646886727,0.309237243812663,-0.013201099016206672,0,0,0,0,0,0,0,4831,5,neutral,4
36,0.5714285714285714,40.9194,28.33824159118829,48.85141251936716,0,0.2961585981797905,0.2961479494131321,0.30929993305972586,-0.01343552789665704,0,0,0,0,0,0,0,4832,5,neutral,4
37,0.5873015873015872,43.62601,30.78531667723976,48.77816160666849,0,0.29605135430078533,0.2960247671799223,0.3093626613371669,-0.013625886729937926,0,0,0,0,0,0,0,4833,5,neutral,4
38,0.6031746031746031,48.49984,34.87071374567014,48.71758262442796,0,0.2959825250458446,0.2959445136201731,0.3094254273973349,-0.013773378696652364,0,0,0,0,0,0,0,4834,5,neutral,4
39,0.6190476190476191,54.76797,39.90912540829762,48.66994231518436,0,0.29594977396796907,0.29590516165876996,0.30948822998484715,-0.013880029675748511,0,0,0,0,0,0,0,4835,5,neutral,4
40,0.6349206349206349,60.90199,44.769042746565454,48.63552503071526,0,0.29595076462015923,0.2959040728217082,0.3095510678365055,-0.013948476937079738,0,0,0,0,0,0,0,4836,5,neutral,4
41,0.6507936507936507,65.27019,48.28942745845848,48.61463437105183,0,0.2959831605554156,0.29593820044539093,0.30961393968123646,-0.013981765932043864,0,0,0,0,0,0,0,4837,5,neutral,4
42,0.6666666666666666,66.88415,49.705265021360844,48.607594936708864,1,0.29604462532673875,0.2960042750301738,0.3096768442400532,-0.013983164939997773,0,0,0,0,0,0,0,4838,5,neutral,4
43,0.6825396825396826,65.76129,48.8971918879565,48.629424148809775,0,0.29613282248712935,0.2960989643955046,0.309739780226038,-0.013956004913097331,0,0,0,0,0,0,0,4839,5,neutral,4
44,0.6984126984126984,62.83045,46.366454046762264,48.69393914035709,0,0.2962454155895877,0.29621900387231226,0.30980274634434296,-0.013903549283907114,0,0,0,0,0,0,0,4840,5,neutral,4
45,0.7142857142857142,59.3588,42.97047097179089,48.799837480533164,0,0.2963800681871147,0.2963612942950943,0.3098657412922076,-0.013828895973327291,0,0,0,0,0,0,0,4841,5,neutral,4
46,0.7301587301587301,56.38064,39.56305574519181,48.94600666094292,0,0.29653444383271055,0.29652296786315274,0.30992876375899114,-0.013734911529387536,0,0,0,0,0,0,0,4842,5,neutral,4
47,0.746031746031746,54.25735,36.71078122410268,49.13150302705058,0,0.2967062060793761,0.29670142391133525,0.30999181242621754,-0.013624195356548406,0,0,0,0,0,0,0,4843,5,neutral,4
48,0.7619047619047619,52.85323,34.596578805795914,49.355533164410915,0,0.2968930184801118,0.2968943381989819,0.31005488596763203,-0.013499070426808141,0,0,0,0,0,0,0,4844,5,neutral,4
49,0.7777777777777777,51.81088,33.1163377192216,49.617437283710245,0,0.29709261203509163,0.2970996504668698,0.3101179830492677,-0.013361595722822087,0,0,0,0,0,0,0,4845,5,neutral,4
50,0.7936507936507936,50.89854,32.0850867113312,49.916674214849756,0,0.29730335954950143,0.29731553573105485,0.31018110232951995,-0.013213594944132434,0,0,0,0,0,0,0,4846,5,neutral,4
51,0.8095238095238095,50.19637,31.43681082280942,50.25280767251293,0,0.2975239890350252,0.29754036510211745,0.3102442424592289,-0.013056695688002242,0,0,0,0,0,0,0,4847,5,neutral,4
52,0.8253968253968254,49.98518,31.327371392959048,50.625493496616016,0,0.29775323226371664,0.2977726618685842,0.31030740208176716,-0.012892373366079013,0,0,0,0,0,0,0,4848,5,neutral,4
53,0.8412698412698412,50.66009,32.10529268399369,51.03446760289741,0,0.2979898210076288,0.29801105819905904,0.31037057983313376,-0.012721994502354197,0,0,0,0,0,0,0,4849,5,neutral,4
54,0.8571428571428571,52.54984,34.16834192466654,51.4795344033595,0,0.2982324870388154,0.2982542571409891,0.3104337743420518,-0.012546854734492404,0,0,0,0,0,0,0,4850,5,neutral,4
55,0.873015873015873,55.87608,37.75851176358366,51.96055547469335,0,0.2984799621293294,0.29850100367770305,0.3104969842300696,-0.012368207756891517,0,0,0,0,0,0,0,4851,5,neutral,4
56,0.8888888888888888,60.59428,42.76454599361407,52.47743826630578,0,0.2987309780512248,0.29875006751256034,0.3105602081116649,-0.012187282536635174,0,0,0,0,0,0,0,4852,5,neutral,4
57,0.9047619047619047,66.27297,48.60382871478417,53.03012464906227,0,0.2989842665765545,0.29900023905014156,0.3106234445943512,-0.012005287332405107,0,0,0,0,0,0,0,4853,5,neutral,4
58,0.9206349206349206,71.94745,54.24205113487423,53.61857911217013,0,0.29923855947737193,0.29925033881311597,0.31068669227878537,-0.011823400277718853,0,0,0,0,0,0,0,4854,5,neutral,4
59,0.9365079365079365,76.25912,58.373555264239855,54.242776419499904,0,0.29949258852573085,0.29949923934365674,0.3107499497588756,-0.011642747479619485,0,0,0,0,0,0,0,4855,5,neutral,4
60,0.9523809523809523,77.7334,59.72994850505896,54.90268853879095,0,0.29974508549368417,0.2997458975619264,0.31081321562188974,-0.01146437066029583,0,0,0,0,0,0,0,4856,5,neutral,4
61,0.9682539682539681,75.26531,57.42796962616631,55.59827065834283,0,0.29999478215328573,0.29998939465904023,0.3108764884485627,-0.011289187264223215,0,0,0,0,0,0,0,4857,5,neutral,4
62,0.9841269841269841,68.53582,51.238189709255956,56.32944610673327,0,0.3002404102765885,0.30022897994926095,0.3109397668132028,-0.011117946606072349,0,0,0,0,0,0,0,4858,5,neutral,4
63,1.0,58.16972,41.67510122669586,57.09608999269559,0,0.3004807016356463,0.3004641147468791,0.3110030492837959,-0.010951185993930381,0,0,0,0,0,0,0,4859,5,neutral,4
