,index,PPG_Raw,PPG_Clean,PPG_Rate,PPG_Peaks,EDA_Raw,EDA_Clean,EDA_Tonic,EDA_Phasic,SCR_Onsets,SCR_Peaks,SCR_Height,SCR_Amplitude,SCR_RiseTime,SCR_Recovery,SCR_RecoveryTime,Index,Label,Condition,id
0,0.0,-2.352631,2.199389485610597,61.01737499691547,0,0.24013668355317455,0.24026160864596988,0.22128268469768636,0.018979045021571418,0,0,0,0,0,0,0,693,2,strach,1
1,0.015873015873015872,2.734898,7.774957890490095,60.67761118055112,0,0.2387817591496442,0.23881644644312836,0.22128857966659984,0.017527988840043723,0,0,0,0,0,1,0,694,2,strach,1
2,0.031746031746031744,6.055634,11.720820591272304,60.35004322936352,0,0.2375871042438726,0.23754077661407366,0.22129446614677398,0.016246433524988845,0,0,0,0,0,0,0,695,2,strach,1
3,0.047619047619047616,7.886265,14.118194946092093,60.0347767171754,0,0.23653861694358905,0.23642900883654022,0.22130034392097467,0.01512878897137878,0,0,0,0,0,0,0,696,2,strach,1
4,0.06349206349206349,8.65937,15.258764550734758,59.731916392576885,0,0.23562219535652298,0.23547065270390016,0.22130621278144794,0.014164564980343021,0,0,0,0,0,0,0,697,2,strach,1
5,0.07936507936507936,8.714294,15.493215536634429,59.441567249578625,0,0.2348237375904037,0.2346513738065786,0.22131207252926807,0.013339427341235617,0,0,0,0,0,0,0,698,2,strach,1
6,0.09523809523809523,8.263405,15.122731385870392,59.163835581402374,0,0.23412914175296043,0.23395408409445195,0.22131792297377362,0.012636288194597757,0,0,0,0,0,0,0,699,2,strach,1
7,0.1111111111111111,7.371048,14.365162092962416,58.89883002160378,0,0.23352430595192247,0.23336001327845665,0.22132376393208333,0.012036377434250215,0,0,0,0,0,0,0,700,2,strach,1
8,0.12698412698412698,6.133415,13.384106697365972,58.646662576920804,0,0.23299512829501923,0.23284971591852263,0.22132959522868265,0.01152024979564064,0,0,0,0,0,0,0,701,2,strach,1
9,0.14285714285714285,4.696869,12.340967121327697,58.407449656453224,0,0.23252750688997992,0.23240397813853092,0.22133541669506962,0.011068691571155025,0,0,0,0,0,0,0,702,2,strach,1
10,0.15873015873015872,3.332542,11.42823580384067,58.181313102003195,0,0.2321073398445339,0.23200459762184994,0.2213412281694498,0.010663500605959164,0,0,0,0,0,0,0,703,2,strach,1
11,0.1746031746031746,2.322067,10.861990130690959,57.96838122465424,0,0.23172052526641046,0.2316350199082244,0.22134702949646867,0.010288122595155123,0,0,0,0,0,0,0,704,2,strach,1
12,0.19047619047619047,1.901604,10.838030601036115,57.768789852937296,0,0.23135296126333887,0.23128082253630552,0.22135282052697178,0.009928135226551352,0,0,0,0,0,0,0,705,2,strach,1
13,0.20634920634920634,2.215927,11.474821032045737,57.58268339823636,0,0.23099054594304855,0.23093004601819883,0.22135860111778252,0.009571579155432783,0,0,0,0,0,0,0,706,2,strach,1
14,0.2222222222222222,3.192307,12.770453035712858,57.410215943426365,0,0.23061917741326868,0.2305733769634096,0.22136437113148966,0.009209141128718554,0,0,0,0,0,0,0,707,2,strach,1
15,0.23809523809523808,4.699074,14.592279889996117,57.25155236112041,0,0.23022730389646395,0.23020419397858077,0.22137013043623754,0.008834199884909723,0,0,0,0,0,0,0,708,2,strach,1
16,0.25396825396825395,6.509819,16.703934579483562,57.10686946833835,0,0.22981542761764337,0.22981849135299995,0.22137587890551386,0.008442749839808769,0,0,0,0,0,0,0,709,2,strach,1
17,0.2698412698412698,8.324478,18.821868014220183,56.97635722490293,0,0.22938760892038093,0.2294146990031545,0.22138161641793067,0.008033221031293378,0,0,0,0,0,0,0,710,2,strach,1
18,0.2857142857142857,9.855553,20.685139145417107,56.86021998343077,0,0.22894790866730527,0.22899341957499358,0.2213873428569967,0.007606216221806203,0,0,0,0,0,0,0,711,2,strach,1
19,0.30158730158730157,10.95491,22.11854818845514,56.75867779942483,0,0.22850038772104497,0.22855710481871927,0.22139305811087984,0.007164187273383721,0,0,0,0,0,0,0,712,2,strach,1
20,0.31746031746031744,11.56386,23.07069047531062,56.6719678107025,0,0.22804910694422878,0.22810969326011338,0.2213987620721598,0.006711072819230275,0,0,0,0,0,0,0,713,2,strach,1
21,0.3333333333333333,11.74002,23.614510030384285,56.60034569622366,0,0.2275981271994852,0.22765622986252163,0.22140445463757263,0.006251917925957605,0,0,0,0,0,0,0,714,2,strach,1
22,0.3492063492063492,11.60464,23.906889954566843,56.54408722532898,0,0.22715150934944275,0.22720248604212928,0.221410135707749,0.005792494109122277,0,0,0,0,0,0,0,715,2,strach,1
23,0.36507936507936506,11.26987,24.11509840645044,56.50348990947902,0,0.2267133142567302,0.22675459541104068,0.22141580518694942,0.005338935076570073,0,0,0,0,0,0,0,716,2,strach,1
24,0.38095238095238093,10.92378,24.331735941911198,56.47887476981775,0,0.22628760278397617,0.2263187173518051,0.22142146298279913,0.004897400303226807,0,0,0,0,0,0,0,717,2,strach,1
25,0.3968253968253968,10.78689,24.51324350971552,56.470588235294116,1,0.2258784357938091,0.2259007373107077,0.2214271090060266,0.004473775324650981,0,0,0,0,0,0,0,718,2,strach,1
26,0.4126984126984127,10.66393,24.479772033334005,56.484952974203765,0,0.22548987414885774,0.22550600979159102,0.2214327431702089,0.0040734147311097015,0,0,0,0,0,0,0,719,2,strach,1
27,0.42857142857142855,10.19672,23.9941588404404,56.52744063860117,0,0.22512597871175072,0.22513914758902834,0.22143836539152714,0.0037009314009966167,0,0,0,0,0,0,0,720,2,strach,1
28,0.4444444444444444,9.005447,22.896559368938703,56.597200211448865,0,0.22479081034511658,0.2248038588630853,0.22144397558853562,0.0033600335758246116,0,0,0,0,0,0,0,721,2,strach,1
29,0.4603174603174603,6.996071,21.23122830896343,56.69345226520339,0,0.22448842991158394,0.22450283217728598,0.22144957368194637,0.003053409898407144,0,0,0,0,0,0,0,722,2,strach,1
30,0.47619047619047616,4.46093,19.291200340088427,56.815481040056575,0,0.22422289827378136,0.2242376684813298,0.22145515959443218,0.0027826613957721773,0,0,0,0,0,0,0,723,2,strach,1
31,0.49206349206349204,1.951805,17.53753849930182,56.962627158883684,0,0.22399737694568667,0.2240088580816107,0.2214607332504489,0.002548278449858947,0,0,0,0,0,0,0,724,2,strach,1
32,0.5079365079365079,0.02799988,16.410496968485436,57.13428087945659,0,0.22380977555979684,0.2238157997916558,0.2214662945760785,0.002349659948113777,0,0,0,0,0,0,0,725,2,strach,1
33,0.5238095238095237,-0.8232269,16.112047361392822,57.32987579664725,0,0.22365610279300588,0.22365685864436058,0.22147184349889273,0.0021851709958614954,0,0,0,0,0,0,0,726,2,strach,1
34,0.5396825396825397,-0.381546,16.471010646798938,57.54888291761925,0,0.22353236470019985,0.22352945781137437,0.2214773799478374,0.0020522348358065897,0,0,0,0,0,0,0,727,2,strach,1
35,0.5555555555555556,0.581604,16.97902283958666,57.790805041714115,0,0.2234345673362649,0.22343019979306794,0.221482903853136,0.0019474540380971747,0,0,0,0,0,0,0,728,2,strach,1
36,0.5714285714285714,0.9558868,17.005366576730136,58.05517138416361,0,0.22335871675608726,0.22335501158415963,0.2214884151462116,0.0018667556660292418,0,0,0,0,0,0,0,729,2,strach,1
37,0.5873015873015872,-0.1262207,16.097333980734344,58.34153238912888,0,0.2233008190145529,0.22329930839629197,0.22149391375962493,0.0018055549986853118,0,0,0,0,0,0,0,730,2,strach,1
38,0.6031746031746031,-2.703827,14.21334552836804,58.649454683082965,0,0.22325688016654813,0.22325817057627684,0.22149939962702614,0.001758932449227669,0,0,0,0,0,0,0,731,2,strach,1
39,0.6190476190476191,-6.056808,11.762464693684278,58.97851612438223,0,0.22322290626695895,0.22322652850488284,0.2215048726831178,0.0017218184637228953,0,0,0,0,0,0,0,732,2,strach,1
40,0.6349206349206349,-9.174728,9.423484246457923,59.32830090916681,0,0.22319490337067158,0.22319935039894256,0.22151033286362648,0.0016891813232774251,0,0,0,0,0,0,0,733,2,strach,1
41,0.6507936507936507,-11.34309,7.830482075860075,59.69839469762035,0,0.2231688775325721,0.2231718279971777,0.22151578010527959,0.0016562128298858727,0,0,0,0,0,0,0,734,2,strach,1
42,0.6666666666666666,-12.09792,7.2791183139217,60.088379728225355,0,0.2231408348075467,0.2231395550600164,0.22152121434578512,0.0016185068062686465,0,0,0,0,0,0,0,735,2,strach,1
43,0.6825396825396826,-11.26054,7.6006226180076,60.49782989108501,0,0.2231067812504815,0.22309869348174483,0.22152663552381122,0.0015722252080438066,0,0,0,0,0,0,0,736,2,strach,1
44,0.6984126984126984,-9.838806,8.27263116814848,60.9263057347453,0,0.22306272291626267,0.22304612167677607,0.22153204357896317,0.0015142465100191854,0,0,0,0,0,0,0,737,2,strach,1
45,0.7142857142857142,-9.029984,8.71614468690873,61.373349384345815,0,0.22300466585977627,0.22297955987609067,0.22153743845175566,0.00144229100266055,0,0,0,0,0,0,0,738,2,strach,1
46,0.7301587301587301,-9.517044,8.621380322615638,61.838479352446534,0,0.22292861613590853,0.22289766718535148,0.22154282008357845,0.0013550178502408409,0,0,0,0,0,0,0,739,2,strach,1
47,0.746031746031746,-10.92537,8.11860191606912,62.321185227616546,0,0.22283132028953162,0.2228001058252064,0.22154818841665422,0.001252089331185018,0,0,0,0,0,0,0,740,2,strach,1
48,0.7619047619047619,-12.16057,7.68947446670739,62.82092222992125,0,0.22271490097037486,0.22268756895232214,0.22155354339398775,0.0011341986591546383,0,0,0,0,0,0,0,741,2,strach,1
49,0.7777777777777777,-12.31129,7.853531471605855,63.337105626898136,0,0.2225838531347428,0.2225617698119249,0.2215588849593064,0.0010030591356481391,0,0,0,0,0,0,0,742,2,strach,1
50,0.7936507936507936,-11.3399,8.775557185115398,63.86910500855658,0,0.22244268215298188,0.22242539156904526,0.2215642130569921,0.0008613539813135186,0,0,0,0,0,0,0,743,2,strach,1
51,0.8095238095238095,-9.935837,9.96341907759874,64.41623842546292,0,0.22229589339543834,0.2222819988213257,0.22156952763200607,0.0007126478488313579,0,0,0,0,0,0,0,744,2,strach,1
52,0.8253968253968254,-9.223343,10.167562224228876,64.97776640015852,0,0.2221479922324587,0.22213591334083593,0.2215748286298076,0.0005612625648114427,0,0,0,0,0,0,0,745,2,strach,1
53,0.8412698412698412,-11.84975,7.501107552722309,65.55288582908433,0,0.2220034840343894,0.2219920579257708,0.22158011599626873,0.00041212098157556766,0,0,0,0,0,0,0,746,2,strach,1
54,0.8571428571428571,-20.52344,0.0,66.1407237999151,0,0.22186687417157674,0.22185577334738585,0.22158538967758803,0.0002705639241797705,0,0,0,0,0,0,0,747,2,strach,1
55,0.873015873015873,-37.07539,0.0,66.74033135779457,0,0.2217426680143671,0.22173261429272415,0.2215906496202055,0.00014214613322611203,0,0,0,0,0,0,0,748,2,strach,1
56,0.8888888888888888,-61.76338,0.0,67.35067726344455,0,0.22163537093310687,0.2216281309889817,0.2215958957707218,3.2417889308672314e-05,0,0,0,0,0,0,0,749,2,strach,1
57,0.9047619047619047,-93.57695,0.0,67.97064179650417,0,0.2215494882981425,0.22154764389591233,0.22160112807582558,-5.330029450868231e-05,0,0,0,0,0,0,0,750,2,strach,1
58,0.9206349206349206,-131.4581,0.0,68.59901066872537,0,0.22148952547982037,0.22149601947562772,0.22160634648223101,-0.00011014190282990422,0,0,0,0,0,0,0,751,2,strach,1
59,0.9365079365079365,-174.6647,0.0,69.23446912374332,0,0.22145998784848678,0.2214774555516067,0.22161155093662974,-0.00013390905886916915,0,0,0,0,0,0,0,752,2,strach,1
60,0.9523809523809523,-222.3011,0.0,69.87559631295437,0,0.2214653807744882,0.22149528505843863,0.22161674138565887,-0.00012126877467588047,0,0,0,0,0,0,0,753,2,strach,1
61,0.9682539682539681,-262.8722,0.0,70.52086005040638,0,0.22151020962817103,0.2215518069328867,0.22162191777588813,-6.992206005831145e-05,0,0,0,0,0,0,0,754,2,strach,1
62,0.9841269841269841,-283.7165,0.0,71.16861206331194,0,0.22159897977988158,0.22164815236838253,0.22162708005382795,2.1262331902843494e-05,0,0,0,0,0,0,0,755,2,strach,1
63,1.0,-275.8771,0.0,71.81708386853305,0,0.2217354571397244,0.22178419354203235,0.22163222816595954,0.00015215663183075137,0,0,0,0,0,0,0,756,2,strach,1
0,0.0,11.84283,5.342571488641525,67.47774032148295,0,0.2556190608519893,0.255701716197171,0.22135092834109943,0.03433868379591189,0,0,0,0,0,0,0,1870,4,strach,3
1,0.015873015873015872,14.34381,8.545973040021511,66.94479752810305,0,0.2540839718480485,0.2542102440385531,0.22136081893699197,0.032837279449081075,0,0,0,0,0,0,0,1871,4,strach,3
2,0.031746031746031744,15.63568,10.675778083812514,66.41800401738307,0,0.25235623436626897,0.2525073389827257,0.22137072440663566,0.031124427335227977,0,0,0,0,0,0,0,1872,4,strach,3
3,0.047619047619047616,15.79562,11.714208804234902,65.89813525673053,0,0.25047218034027413,0.25063465900368426,0.22138064481874686,0.029241785360664598,0,0,0,0,0,0,0,1873,4,strach,3
4,0.06349206349206349,15.06985,11.77379283524537,65.38591451703871,0,0.24846814170368606,0.2486347323991562,0.22139058026007088,0.02723188173741317,0,0,0,0,0,0,0,1874,4,strach,3
5,0.07936507936507936,13.65683,11.006320774935554,64.88201573123584,0,0.24638045039012849,0.24654959148720376,0.2214005308343012,0.025136748680889675,0,0,0,0,0,0,0,1875,4,strach,3
6,0.09523809523809523,11.64694,9.544244394963544,64.3870664063774,0,0.24424543833322354,0.24441953349941564,0.22141049666092466,0.02299668330425036,0,0,0,0,0,0,0,1876,4,strach,3
7,0.1111111111111111,9.052643,7.49833798939885,63.9016505650509,0,0.24209943746659449,0.24228204986703983,0.2214204778740167,0.02084917690572928,0,0,0,0,0,0,0,1877,4,strach,3
8,0.12698412698412698,5.887604,5.002580929288301,63.426311695399136,0,0.23997877972386483,0.2401709552316908,0.22143047462100968,0.01872804398057714,0,0,0,0,0,0,0,1878,4,strach,3
9,0.14285714285714285,2.392059,2.271421404997394,62.961555692378454,0,0.23791979703865646,0.23811573728052846,0.22144048706145583,0.016662772057477473,0,0,0,0,0,1,0,1879,4,strach,3
10,0.15873015873015872,-1.122711,0.0,62.50785377594444,0,0.23595882134459278,0.23614113792672325,0.22145051536580435,0.01467810288023461,0,0,0,0,0,0,0,1880,4,strach,3
11,0.1746031746031746,-4.18689,0.0,62.06564537469512,0,0.2341276357037087,0.23426696543041875,0.2214605597142094,0.012793844529928213,0,0,0,0,0,0,0,1881,4,strach,3
12,0.19047619047619047,-6.310059,0.0,61.63534096610692,0,0.23243145935940346,0.23250812595811404,0.22147062029538359,0.011024902985442293,0,0,0,0,0,0,0,1882,4,strach,3
13,0.20634920634920634,-7.101593,0.0,61.21732486687693,0,0.23086589659326512,0.23087485232236213,0.22148069730550837,0.009381510864253328,0,0,0,0,0,0,0,1883,4,strach,3
14,0.2222222222222222,-6.42691,0.0,60.8119579690508,0,0.22942653842486546,0.2293730980990455,0.22149079094720997,0.007869621540729708,0,0,0,0,0,0,0,1884,4,strach,3
15,0.23809523809523808,-4.436768,0.39824326827875184,60.41958041958042,0,0.22810897587377527,0.22800505801023088,0.22150090142860696,0.006491429529939157,0,0,0,0,0,0,0,1885,4,strach,3
16,0.25396825396825395,-1.500488,4.09650106531343,60.04051424273963,0,0.22690879995956653,0.22676977122520348,0.22151102896243316,0.005245973789559969,0,0,0,0,0,0,0,1886,4,strach,3
17,0.2698412698412698,1.904724,8.314003150639385,59.67506590644351,0,0.2258216017018102,0.22566376345791278,0.22152117376523725,0.004129779818127255,0,0,0,0,0,0,0,1887,4,strach,3
18,0.2857142857142857,5.386963,12.520565765659258,59.32352883499078,0,0.22484297212007787,0.22468168630158053,0.22153133605665856,0.0031374989903652025,0,0,0,0,0,0,0,1888,4,strach,3
19,0.30158730158730157,8.422852,16.2378872528601,58.986185872095746,0,0.22396850223394132,0.22381691761160885,0.22154151605877756,0.0022625089407445394,0,0,0,0,0,0,0,1889,4,strach,3
20,0.31746031746031744,10.6304,19.14116852351447,58.66331169931859,0,0.22319378306297144,0.22306209415491987,0.22155171399553789,0.0014974462134003108,0,0,0,0,0,0,0,1890,4,strach,3
21,0.3333333333333333,11.83679,21.124571425771304,58.35517521616137,0,0.22251440562673996,0.2224095563225513,0.2215619300922362,0.0008346509752377343,0,0,0,0,0,0,0,1891,4,strach,3
22,0.3492063492063492,12.22009,22.308339154515792,58.06204188919053,0,0.22192596094481834,0.2218516936088072,0.2215721645750758,0.0002665124955290789,0,0,0,0,0,0,0,1892,4,strach,3
23,0.36507936507936506,12.04739,22.97886233140492,57.78417607860015,0,0.2214240400367778,0.2213811880518991,0.2215824176707796,-0.00021428741305781415,0,0,0,0,0,0,0,1893,4,strach,3
24,0.38095238095238093,11.64447,23.474086404200527,57.521843351660905,0,0.22100423392218999,0.22099116031604013,0.22159268960625814,-0.0006146283120337132,0,0,0,0,0,0,0,1894,4,strach,3
25,0.3968253968253968,11.28256,24.04836832748957,57.27531279353338,0,0.2206621336206262,0.22067522915600268,0.2216029806083285,-0.0009408916722490786,0,0,0,0,0,0,0,1895,4,strach,3
26,0.4126984126984127,11.17114,24.76689883166591,57.0448593269819,0,0.22039333015165782,0.22042749940225959,0.22161329090348006,-0.001198972888518658,0,0,0,0,0,0,0,1896,4,strach,3
27,0.42857142857142855,11.56927,25.482781623969945,56.83076605362987,0,0.2201932995162784,0.2202424962635713,0.22162362071768335,-0.0013943469768429014,0,0,0,0,0,0,0,1897,4,strach,3
28,0.4444444444444444,11.94547,25.92805847600393,56.63332663057773,0,0.2200566826576853,0.22011506473373788,0.22163397027623863,-0.001532169167504966,0,0,0,0,0,0,0,1898,4,strach,3
29,0.4603174603174603,11.71826,25.897840295169754,56.45284769748289,0,0.2199777520342428,0.22004025239550773,0.22164433980366102,-0.0016173921010466657,0,0,0,0,0,0,0,1899,4,strach,3
30,0.47619047619047616,10.71991,25.445003289134142,56.28965137061038,0,0.21995077848672664,0.22001319220482188,0.22165472952359905,-0.0016548830439428984,0,0,0,0,0,0,0,1900,4,strach,3
31,0.49206349206349204,9.408661,24.974594224423168,56.14407782193436,0,0.21997003285591232,0.22002899922394603,0.22166513965878368,-0.001649527155418738,0,0,0,0,0,0,0,1901,4,strach,3
32,0.5079365079365079,8.601227,25.16018403426125,56.016487963139475,0,0.22002978598257547,0.22008269206946227,0.22167557043100522,-0.0016063060394344271,0,0,0,0,0,0,0,1902,4,strach,3
33,0.5238095238095237,9.098022,26.6854866066216,55.907266256379266,0,0.22012430870749175,0.22016914634309384,0.22168602206111498,-0.0015303443138622956,0,0,0,0,0,0,0,1903,4,strach,3
34,0.5396825396825397,11.29471,29.902915460563964,55.81682367594315,0,0.22024787187143674,0.22028308377171013,0.221696494769049,-0.00142692047050537,0,0,0,0,0,0,0,1904,4,strach,3
35,0.5555555555555556,15.289,34.558497398260066,55.74560084761537,0,0.22039474631518605,0.22041909740426352,0.22170698877387063,-0.0013014416782032134,0,0,0,0,0,0,0,1905,4,strach,3
36,0.5714285714285714,20.94321,39.73520696952978,55.69407139554409,0,0.22055920287951528,0.22057171016243426,0.22171750429382886,-0.0011593852322453095,0,0,0,0,0,0,0,1906,4,strach,3
37,0.5873015873015872,26.2518,44.09698046900675,55.6627455299465,0,0.2207355124052001,0.22073546144734527,0.2217280415464298,-0.0010062119477278052,0,0,0,0,0,0,0,1907,4,strach,3
38,0.6031746031746031,29.08704,46.377338486362746,55.65217391304348,1,0.22091794573301604,0.2209050144672867,0.22173860074851753,-0.0008472588319095901,0,0,0,0,0,0,0,1908,4,strach,3
39,0.6190476190476191,28.28787,45.90887589831774,55.707769200608666,0,0.22110077370373882,0.22107527554865916,0.2217491821163615,-0.0006876197733566302,0,0,0,0,0,0,0,1909,4,strach,3
40,0.6349206349206349,24.26169,42.931595672966516,55.87111477379105,0,0.22127826715814397,0.2212415159818438,0.22175978586574735,-0.0005320236961625885,0,0,0,0,0,0,0,1910,4,strach,3
41,0.6507936507936507,18.60559,38.504467869429824,56.13789126525297,0,0.22144469693700708,0.2213994869706118,0.22177041221206834,-0.00038471961063073104,0,0,0,0,0,0,0,1911,4,strach,3
42,0.6666666666666666,13.0806,34.0325406171392,56.50475943411437,0,0.22159433388110383,0.22154551900267516,0.2217810613704144,-0.0002493772428122166,0,0,0,0,0,0,0,1912,4,strach,3
43,0.6825396825396826,8.897339,30.607440769281336,56.969208820542796,0,0.22172192224601162,0.22167659839961174,0.22179173355565668,-0.00012901048466551967,0,0,0,0,0,0,0,1913,4,strach,3
44,0.6984126984126984,6.64563,28.454841559555852,57.52942982405548,0,0.22182652338117034,0.2217904158314921,0.22180242898252528,-2.5928879507298086e-05,0,0,0,0,0,0,0,1914,4,strach,3
45,0.7142857142857142,6.458435,26.75373300977804,58.184202567723645,0,0.22190950767675224,0.221885384009041,0.2218131478656784,5.828007007987481e-05,0,0,0,0,0,0,0,1915,4,strach,3
46,0.7301587301587301,5.506805,23.942465741293233,58.93279709086237,0,0.221972267333902,0.22196062433258726,0.22182389041976192,0.00012273755113799238,0,0,0,0,0,0,0,1916,4,strach,3
47,0.746031746031746,0.9007568,18.396443938716605,59.774880216693234,0,0.22201619455376403,0.22201592468737458,0.2218346568594578,0.0001672312355958112,0,0,0,0,0,0,0,1917,4,strach,3
48,0.7619047619047619,-8.798004,9.158487202271028,60.710424965908274,0,0.22204268153748294,0.22205167256751138,0.2218454473995217,0.00019214840418133885,0,0,0,0,0,0,0,1918,4,strach,3
49,0.7777777777777777,-22.7363,0.0,61.73961870196914,0,0.2220531204862034,0.22206876911434434,0.2218562622548088,0.00019838998476937562,0,0,0,0,0,0,0,1919,4,strach,3
50,0.7936507936507936,-38.69992,0.0,62.86276635249426,0,0.22204890360106982,0.22206853040676466,0.2218671016402887,0.00018727184267307447,0,0,0,0,0,0,0,1920,4,strach,3
51,0.8095238095238095,-54.70538,0.0,64.08018509727128,0,0.22203142308322682,0.22205258247239043,0.22187796577104923,0.00016041979182234507,0,0,0,0,0,0,0,1921,4,strach,3
52,0.8253968253968254,-69.9556,0.0,65.39208688843533,0,0.22200207113381903,0.2220227560959378,0.22188885486229074,0.00011966440314098133,0,0,0,0,0,0,0,1922,4,strach,3
53,0.8412698412698412,-84.49136,0.0,66.79844511595178,0,0.22196223995399095,0.22198098671585753,0.22189976912931086,6.69409011982917e-05,0,0,0,0,0,0,0,1923,4,strach,3
54,0.8571428571428571,-98.52594,0.0,68.29884170345122,0,0.22191332174488712,0.22192922366467008,0.22191070878748154,4.198404567222133e-06,0,0,0,0,0,0,0,1924,4,strach,3
55,0.873015873015873,-115.746,0.0,69.8922909807216,0,0.22185670870765217,0.22186935185673842,0.2219216740522189,-6.667838637261806e-05,0,0,0,0,0,0,0,1925,4,strach,3
56,0.8888888888888888,-139.7622,0.0,71.57703691355557,0,0.22179379304343058,0.2218031278734254,0.22193266513894752,-0.00014393310424189306,0,0,0,0,0,0,0,1926,4,strach,3
57,0.9047619047619047,-172.6533,0.0,73.35032078682808,0,0.22172596695336702,0.22173213132642128,0.2219436822630597,-0.00022598635129326798,0,0,0,0,0,0,0,1927,4,strach,3
58,0.9206349206349206,-214.1276,0.0,75.20811736807285,0,0.22165462263860597,0.22165773145344783,0.2219547256398711,-0.00031146910366290485,0,0,0,0,0,0,0,1928,4,strach,3
59,0.9365079365079365,-262.2353,0.0,77.14483909081281,0,0.2215810914683662,0.2215810681487345,0.22196579548457357,-0.000399241680847114,0,0,0,0,0,0,0,1929,4,strach,3
60,0.9523809523809523,-314.7133,0.0,79.15301007869824,0,0.22150599764072837,0.22150304606656399,0.22197689201218587,-0.0004883996421073641,0,0,0,0,0,0,0,1930,4,strach,3
61,0.9682539682539681,-369.4973,0.0,81.2229150842034,0,0.22142950911432938,0.2214243400613933,0.221988015437503,-0.0005782683462986857,0,0,0,0,0,0,0,1931,4,strach,3
62,0.9841269841269841,-424.0262,0.0,83.34223282562951,0,0.22135178624381538,0.22134541003828756,0.2219991659750446,-0.0006683881013841899,0,0,0,0,0,0,0,1932,4,strach,3
63,1.0,-453.8015,0.0,85.49566889972427,0,0.22127298938383252,0.22126652327219373,0.22201034383900295,-0.0007584918451093118,0,0,0,0,0,0,0,1933,4,strach,3
0,0.0,-124.0888,0.0,70.35739708710902,0,0.23347489373728186,0.23347586326842443,0.23325211846018185,0.0005992481061794846,0,0,0,0,0,0,0,3091,6,strach,5
1,0.015873015873015872,-105.6576,0.0,69.96720261796604,0,0.23383921761729584,0.23383533662106573,0.23325344177937474,0.0009560899467346941,0,0,0,0,0,0,0,3092,6,strach,5
2,0.031746031746031744,-88.94482,0.0,69.60157920188996,0,0.2342139670993585,0.23420711230912877,0.23325476603125242,0.0013252150290656807,0,0,0,0,0,0,0,3093,6,strach,5
3,0.047619047619047616,-74.82178,0.0,69.26112075369196,0,0.23459351195403955,0.23458473360621748,0.23325609109937495,0.001700166648774937,0,0,0,0,0,0,0,3094,6,strach,5
4,0.06349206349206349,-62.59189,0.0,68.94642936608727,0,0.23497222195190876,0.23496162067956852,0.233257416867857,0.002074364994326501,0,0,0,0,0,0,0,3095,6,strach,5
5,0.07936507936507936,-50.50473,0.0,68.65812173015414,0,0.23534446686353572,0.23533128509549595,0.2332587432215845,0.002441321652274915,0,0,0,0,0,0,0,3096,6,strach,5
6,0.09523809523809523,-36.61829,0.0,68.39683567271096,0,0.23570461645949065,0.2356875357518512,0.23326007004643076,0.002794845539509888,0,0,0,0,0,0,0,3097,6,strach,5
7,0.1111111111111111,-19.85913,0.0,68.16323686395161,0,0.23604704051034306,0.23602466875938363,0.23326139722946854,0.0031292327844053423,0,0,0,0,0,0,0,3098,6,strach,5
8,0.12698412698412698,-0.5588379,0.0,67.95802575528096,0,0.23636610878666278,0.2363376344688826,0.23326272465917444,0.0034394337537580963,0,0,0,0,0,0,0,3099,6,strach,5
9,0.14285714285714285,19.70178,0.0,67.78194481471418,0,0.23665619105901953,0.23662217570023789,0.23326405222562258,0.0037211912816555283,0,0,0,0,0,0,0,3100,6,strach,5
10,0.15873015873015872,38.6777,15.007586774140625,67.63578613566528,0,0.23691165709798295,0.2368749323234657,0.23326537982066406,0.003971145250322744,0,0,0,0,0,0,0,3101,6,strach,5
11,0.1746031746031746,54.50558,29.548470551266835,67.52039950472079,0,0.23712717717910792,0.23709350871530138,0.23326670733809055,0.004186900046552443,0,0,0,0,0,0,0,3102,6,strach,5
12,0.19047619047619047,66.17163,40.3968638843981,67.43670102537496,0,0.23730196786342403,0.23727650227182648,0.2332680346737796,0.0043670530741880004,0,0,0,0,0,0,0,3103,6,strach,5
13,0.20634920634920634,73.69305,47.07102813444142,67.3856824080664,0,0.23743877111880526,0.23742349302587112,0.23326936172582033,0.004511184371400512,0,0,0,0,0,0,0,3104,6,strach,5
14,0.2222222222222222,77.71576,49.80559354614007,67.36842105263158,1,0.23754042109389015,0.23753499633891603,0.2332706883946188,0.00461980930248667,0,0,0,0,0,0,0,3105,6,strach,5
15,0.23809523809523808,79.12921,49.3719028805743,67.38139976214936,0,0.23760975193731737,0.23761238239776428,0.23327201458298277,0.004694298054456492,0,0,0,0,0,0,0,3106,6,strach,5
16,0.25396825396825395,78.68829,46.84430876233813,67.41989636630635,0,0.23764959779772568,0.23765776764687924,0.2332733401961859,0.0047367670693078965,0,0,0,0,0,0,0,3107,6,strach,5
17,0.2698412698412698,77.07971,43.388931925441014,67.48329275796821,0,0.2376627928237536,0.2376738842061061,0.23327466514201273,0.004749948461704414,0,1,0,0,0,0,0,3108,6,strach,5
18,0.2857142857142857,75.13501,40.08039259732726,67.57102195657326,0,0.23765217116403983,0.23766393374023886,0.2332759893307849,0.004737043888516511,0,0,0,0,0,0,0,3109,6,strach,5
19,0.30158730158730157,73.7442,37.71629804149251,67.68256369939384,0,0.237620566967223,0.23763143222621932,0.2332773126753707,0.004701569316012372,0,0,0,0,0,0,0,3110,6,strach,5
20,0.31746031746031744,73.66318,36.625500767705795,67.81744036978336,0,0.2375708143819418,0.2375800517200565,0.2332786350911796,0.004647196786783417,0,0,0,0,0,0,0,3111,6,strach,5
21,0.3333333333333333,74.99313,36.527063309901514,67.97521321858795,0,0.23750574755683485,0.23751346468795576,0.23327995649614364,0.00457759875089319,0,0,0,0,0,0,0,3112,6,strach,5
22,0.3492063492063492,76.9407,36.534348655490625,68.15547883959188,0,0.23742820064054082,0.23743519585089592,0.23328127681068783,0.004496299910484937,0,0,0,0,0,0,0,3113,6,strach,5
23,0.36507936507936506,77.95221,35.36932533021634,68.35786586389443,0,0.23734100778169828,0.23734848588369062,0.23328259595769185,0.004406540918882209,0,0,0,0,0,0,0,3114,6,strach,5
24,0.38095238095238093,76.35217,31.76131164385514,68.58203184157695,0,0.23724700312894598,0.23725617075206826,0.23328391386244468,0.004311157717715333,0,0,0,0,0,0,0,3115,6,strach,5
25,0.3968253968253968,71.04077,24.903499678465415,68.82766028199889,0,0.23714902083092249,0.23716057996664267,0.23328523045259436,0.004212479790943212,0,0,0,0,0,0,0,3116,6,strach,5
26,0.4126984126984127,61.93597,14.791902266833773,69.09445782662716,0,0.23704989503626653,0.2370634565496112,0.23328654565809423,0.004112250131606149,0,0,0,0,0,0,0,3117,6,strach,5
27,0.42857142857142855,50.16888,2.306977600212271,69.38215153051644,0,0.23695234140817426,0.23696590100014914,0.23328785941114724,0.004011569207277058,0,0,0,0,0,0,0,3118,6,strach,5
28,0.4444444444444444,37.61218,0.0,69.69048623047036,0,0.236856675515238,0.2368683409644202,0.2332891716461491,0.003910864630129832,0,0,0,0,0,0,0,3119,6,strach,5
29,0.4603174603174603,26.33923,0.0,70.0192219795687,0,0.23676098063543927,0.23677052765097364,0.23329048229963095,0.0038098875723948564,0,0,0,0,0,0,0,3120,6,strach,5
30,0.47619047619047616,17.92346,0.0,70.36813152918447,0,0.2366632551773939,0.23667155930779435,0.23329179131020208,0.003707736243467386,0,0,0,0,0,0,0,3121,6,strach,5
31,0.49206349206349204,13.17169,0.0,70.73699784087137,0,0.2365614975497177,0.23656993134860677,0.23329309861849187,0.003602906016270694,0,0,0,0,0,0,0,3122,6,strach,5
32,0.5079365079365079,12.01398,0.0,71.12561161160707,0,0.23645370616102657,0.23646361203582653,0.2332944041670912,0.0034933651102673083,0,0,0,0,0,0,0,3123,6,strach,5
33,0.5238095238095237,13.77502,0.0,71.53376879686145,0,0.2363378794199364,0.23635014201482057,0.23329570790049217,0.0033766541257805025,0,0,0,0,0,0,0,3124,6,strach,5
34,0.5396825396825397,17.43829,0.0,71.9612681168459,0,0.2362120157350629,0.23622675542520713,0.23329700976502482,0.0032500071553586557,0,0,0,0,0,0,0,3125,6,strach,5
35,0.5555555555555556,21.89386,0.0,72.40790853211546,0,0.23607411351502205,0.23609051973781411,0.23329830970878976,0.0031104916208022095,0,0,0,0,0,0,0,3126,6,strach,5
36,0.5714285714285714,26.10046,0.0,72.87348667546476,0,0.23592217116842967,0.23593849082522025,0.23329960768158492,0.0029551633437792366,0,0,0,0,0,0,0,3127,6,strach,5
37,0.5873015873015872,29.26495,0.0,73.35779422780267,0,0.23575418710390164,0.2357678790344138,0.2333009036348248,0.002781232618565918,0,0,0,0,0,0,0,3128,6,strach,5
38,0.6031746031746031,31.0545,0.0,73.86061522643385,0,0.2355681597300537,0.23557622119445878,0.23330219752145076,0.0025862362198037815,0,0,0,0,0,0,0,3129,6,strach,5
39,0.6190476190476191,31.75128,0.0,74.3817232949407,0,0.23536208745550183,0.23536155260925057,0.23330348929583034,0.0023682093953569737,0,0,0,0,0,0,0,3130,6,strach,5
40,0.6349206349206349,32.36719,0.0,74.92087878466936,0,0.2351339686888618,0.23512257225126873,0.2333047789136447,0.002125851060179005,0,0,0,0,0,0,0,3131,6,strach,5
41,0.6507936507936507,34.56378,0.0,75.47782581870341,0,0.23488180183874946,0.2348587937196033,0.23330606633176296,0.001858674754465717,0,0,0,0,0,0,0,3132,6,strach,5
42,0.6666666666666666,40.43097,0.0,76.05228923018338,0,0.23460358531378073,0.23457067420486882,0.23330735150810245,0.0015671376087105318,0,0,0,0,0,1,0,3133,6,strach,5
43,0.6825396825396826,51.71771,0.0,76.64397138792478,0,0.23429746236566745,0.23425971385343625,0.23330863440147506,0.001252739708091019,0,0,0,0,0,0,0,3134,6,strach,5
44,0.6984126984126984,69.10754,10.235982848571386,77.25254890352988,0,0.2339656626496483,0.23392851863254957,0.2333099149714196,0.0009180869577545396,0,0,0,0,0,0,0,3135,6,strach,5
45,0.7142857142857142,91.88409,32.70033484036112,77.8776692156056,0,0.233614971685884,0.23358082106764477,0.23331119317802115,0.0005669118203189178,0,0,0,0,0,0,0,3136,6,strach,5
46,0.7301587301587301,117.9752,58.25397899884577,78.51894704832183,0,0.23325241407814246,0.23322145494975796,0.23331246898171937,0.0002040480234739016,0,0,0,0,0,0,0,3137,6,strach,5
47,0.746031746031746,144.5468,84.34883334612407,79.17596074340166,0,0.23288501443019177,0.23285628211135628,0.23331374234310695,-0.00016464266398567002,0,0,0,0,0,0,0,3138,6,strach,5
48,0.7619047619047619,168.84,108.48270123670821,79.8482484667531,0,0.2325197973458002,0.23249207144761744,0.23331501322272213,-0.0005323914106711674,0,0,0,0,0,0,0,3139,6,strach,5
49,0.7777777777777777,188.8825,128.8840883234346,80.53530429336983,0,0.23216378742873545,0.232136332376406,0.23331628158083792,-0.000891688862411757,0,0,0,0,0,0,0,3140,6,strach,5
50,0.7936507936507936,203.8591,144.95118085250596,81.236574176865,0,0.23182400928276573,0.23179710682570742,0.23331754737725194,-0.001234493154609037,0,0,0,0,0,0,0,3141,6,strach,5
51,0.8095238095238095,214.7339,157.28786237684008,81.95145181309651,0,0.23150748751165914,0.23148272561818517,0.23331881057108153,-0.0015524735274737727,0,0,0,0,0,0,0,3142,6,strach,5
52,0.8253968253968254,223.3038,167.32515782696288,82.67927441081126,0,0.23122124671918365,0.2312015368186053,0.23332007112056852,-0.0018372819784045345,0,0,0,0,0,0,0,3143,6,strach,5
53,0.8412698412698412,231.399,176.66856240348025,83.41931838610977,0,0.23097231150910738,0.2309616152341031,0.23332132898289826,-0.0020808437615389545,0,0,0,0,0,0,0,3144,6,strach,5
54,0.8571428571428571,240.1427,186.40707383382883,84.17079500182294,0,0.23076770648519848,0.23077046377603136,0.23332258411403803,-0.0022756560257423683,0,0,0,0,0,0,0,3145,6,strach,5
55,0.873015873015873,249.5884,196.62341551009365,84.932845977616,0,0.23061445625122481,0.23063471870952068,0.23332383646859922,-0.0024150825649082125,0,0,0,0,0,0,0,3146,6,strach,5
56,0.8888888888888888,258.6772,206.26515849963053,85.70453910178938,0,0.23051958541095455,0.2305598717747656,0.23332508599972746,-0.0024936316965607727,0,0,0,0,0,0,0,3147,6,strach,5
57,0.9047619047619047,265.3,213.40912073591866,86.48486388132706,0,0.2304901185681557,0.23055002255892262,0.2333263326590246,-0.0025072038898777834,1,0,0,0,0,0,0,3148,6,strach,5
58,0.9206349206349206,267.0458,215.81858234090362,87.27272727272727,1,0.2305330803265964,0.23060767411455646,0.23332757639650592,-0.0024532961471997895,0,0,0,0,0,0,0,3149,6,strach,5
59,0.9365079365079365,261.3419,211.59465016388071,88.12180869065637,0,0.2306553340437211,0.23073358348463618,0.23332881716059414,-0.0023311514790267385,0,0,0,0,0,0,0,3150,6,strach,5
60,0.9523809523809523,247.3934,199.69613997456938,89.08516281996137,0,0.23085704265759321,0.23092667643463896,0.2333300548981527,-0.0021418441719458677,0,0,0,0,0,0,0,3151,6,strach,5
61,0.9682539682539681,225.5674,180.16544166772744,90.1609119476797,0,0.2311294065373074,0.23118403240874344,0.23333128955455762,-0.0018882948325088318,0,0,0,0,0,0,0,3152,6,strach,5
62,0.9841269841269841,197.2108,154.02747369247427,91.34737487940676,0,0.23146300034100664,0.23150094181817302,0.23333252107380803,-0.001575213098997622,0,0,0,0,0,0,0,3153,6,strach,5
63,1.0,164.1413,122.96117102000323,92.64294953813388,0,0.23184839872683383,0.23187103368407533,0.23333374939867357,-0.00120896999869083,0,0,0,0,0,0,0,3154,6,strach,5
