,index,PPG_Raw,PPG_Clean,PPG_Rate,PPG_Peaks,EDA_Raw,EDA_Clean,EDA_Tonic,EDA_Phasic,SCR_Onsets,SCR_Peaks,SCR_Height,SCR_Amplitude,SCR_RiseTime,SCR_Recovery,SCR_RecoveryTime,Index,Label,Condition,id
0,0.0,-36.24664,0.0,65.23766049688716,0,1.1693948812585344,1.169014065298298,1.241431421056459,-0.07241735569514249,0,0,0,0,0,0,0,363,2,nuda,1
1,0.015873015873015872,-38.55536,0.0,64.63942234197685,0,1.1720613669969675,1.17174519561969,1.2415876300054747,-0.06984243432204282,0,0,0,0,0,0,0,364,2,nuda,1
2,0.031746031746031744,-42.96478,0.0,64.05034788367063,0,1.1750706951686103,1.1748350896746542,1.2417432479316441,-0.06690815819252122,0,0,0,0,0,0,0,365,2,nuda,1
3,0.047619047619047616,-49.81256,0.0,63.47107438016529,0,1.1783956927105568,1.1782492618227303,1.2418982745938545,-0.06364901270592552,0,0,0,0,0,0,0,366,2,nuda,1
4,0.06349206349206349,-58.31696,0.0,62.9021849013428,0,1.1820091865599023,1.1819534718877718,1.24205270971224,-0.06009923775853635,0,0,0,0,0,0,0,367,2,nuda,1
5,0.07936507936507936,-66.51898,0.0,62.344212004434766,0,1.18588400365374,1.185913699555581,1.2422065529700643,-0.0562928533478144,0,0,0,0,0,0,0,368,2,nuda,1
6,0.09523809523809523,-71.54694,0.0,61.797641359419295,0,1.1899929698774754,1.1900959585713193,1.2423598040157713,-0.05226384537704215,0,0,0,0,0,0,0,369,2,nuda,1
7,0.1111111111111111,-68.53925,0.0,61.26291530595548,0,1.1943065352767845,1.1944660091075174,1.2425124624651847,-0.04804645328951358,0,0,0,0,0,0,0,370,2,nuda,1
8,0.12698412698412698,-54.2135,0.0,60.740436327434814,0,1.198787716981197,1.1989890303264126,1.2426645279038389,-0.04367549750852569,0,0,0,0,0,0,0,371,2,nuda,1
9,0.14285714285714285,-28.73706,0.0,60.230570431122736,0,1.2033980824824684,1.2036293140511298,1.2428159998894166,-0.039186685768636056,0,0,0,0,0,0,0,372,2,nuda,1
10,0.15873015873015872,4.257935,0.0,59.73365042639578,0,1.2080991992723547,1.2083500351689036,1.2429668779542768,-0.03461684271496848,0,0,0,0,0,0,0,373,2,nuda,1
11,0.1746031746031746,39.3783,0.0,59.249979095770605,0,1.212852634842612,1.2131131456730606,1.2431171616080494,-0.030004015863825798,0,0,0,0,0,0,0,374,2,nuda,1
12,0.19047619047619047,71.32489,0.0,58.7798322557951,0,1.2176199566849966,1.2178794279042156,1.2432668503402773,-0.025387422364136953,0,0,0,0,0,0,0,375,2,nuda,1
13,0.20634920634920634,96.10492,23.051313565563504,58.323461706955285,0,1.2223627322912634,1.2226087293208014,1.2434159436230843,-0.02080721422959282,0,0,0,0,0,0,0,376,2,nuda,1
14,0.2222222222222222,111.7838,40.09887731170265,57.88109807357134,0,1.2270425291531695,1.2272603866982752,1.2435644409138438,-0.01630405414211035,0,0,0,0,0,0,0,377,2,nuda,1
15,0.23809523809523808,118.7886,51.246225210351334,57.45295353624026,0,1.2316209147624702,1.2317938326867965,1.243712341657826,-0.01191850889679914,0,0,0,0,0,0,0,378,2,nuda,1
16,0.25396825396825395,123.1267,59.43512778735627,57.03922446075824,0,1.2360594566109213,1.2361693628437065,1.2438596452908004,-0.007690282372087992,0,0,0,0,0,0,0,379,2,nuda,1
17,0.2698412698412698,130.1637,67.71011494222273,56.64009392864963,0,1.2403197221902795,1.2403490273725255,1.2440063512415713,-0.003657323793260593,0,0,0,0,0,0,0,380,2,nuda,1
18,0.2857142857142857,141.6325,77.8812218040289,56.25573417546888,0,1.2443632789922998,1.244297599715173,1.2441524589344208,0.00014514085732020982,0,0,0,0,0,0,0,381,2,nuda,1
19,0.30158730158730157,155.6002,89.9678929619372,55.88630894394907,0,1.248151694508739,1.2479835648122826,1.2442979677914408,0.003685597098195933,0,0,0,0,0,0,0,382,2,nuda,1
20,0.31746031746031744,169.1766,102.6239015338742,55.5319757598736,0,1.2516465362313527,1.2513800642453399,1.2444428772347316,0.006937187088751469,0,0,0,0,0,0,0,383,2,nuda,1
21,0.3333333333333333,180.5462,114.22412581451132,55.19288813926572,0,1.2548093716518967,1.25446573449559,1.24458718668845,0.009878547886075643,0,0,0,0,0,0,0,384,2,nuda,1
22,0.3492063492063492,189.1185,123.99773267130134,54.86919773614776,0,1.2576017691189485,1.25722537883959,1.2447308955806908,0.012494483338630381,0,0,0,0,0,0,0,385,2,nuda,1
23,0.36507936507936506,195.0525,132.6196884135619,54.5610564407398,0,1.2599978940751575,1.2596504231238883,1.2448740033451904,0.014776419859228482,0,0,0,0,0,0,0,386,2,nuda,1
24,0.38095238095238093,198.7463,141.95037586692675,54.268618438563884,0,1.2620162726015127,1.2617391202889516,1.2450165094228423,0.016722610947442807,0,0,0,0,0,0,0,387,2,nuda,1
25,0.3968253968253968,206.2742,154.02826200285395,53.992042241518575,0,1.2636851905092923,1.263496486654164,1.2451584132630225,0.018338073473281525,0,0,0,0,0,0,0,388,2,nuda,1
26,0.4126984126984127,221.0754,169.83443378018322,53.73149270260617,0,1.2650329336097736,1.2649339724995952,1.2452997143247202,0.01963425825782462,0,0,0,0,0,0,0,389,2,nuda,1
27,0.42857142857142855,241.2963,188.53304618283698,53.48714302665304,0,1.2660877877142338,1.266068887983785,1.2454404120774796,0.020628475990068656,0,0,0,0,0,0,0,390,2,nuda,1
28,0.4444444444444444,261.309,207.6596839586829,53.259176790082634,0,1.2668780386339515,1.266923620874296,1.2455805060021572,0.02134311495671953,0,0,0,0,0,0,0,391,2,nuda,1
29,0.4603174603174603,276.4728,224.18847402599943,53.04778998360083,0,1.2674319721802034,1.267524693685146,1.2457199955915055,0.021804698179042178,0,0,0,0,0,0,0,392,2,nuda,1
30,0.47619047619047616,285.5164,235.93699128141674,52.853193092558534,0,1.267777874164268,1.26790171422103,1.2458588803505954,0.022042833956661147,0,0,0,0,0,0,0,393,2,nuda,1
31,0.49206349206349204,289.5638,242.65849128607283,52.67561323079003,0,1.267944030397422,1.2680862755046336,1.2459971597970931,0.022089115794594993,0,0,0,0,0,0,0,394,2,nuda,1
32,0.5079365079365079,290.4991,246.39179014576635,52.5152963449147,0,1.2679587266909442,1.2681108592994927,1.2461348334614075,0.02197602592597147,0,0,0,0,0,0,0,395,2,nuda,1
33,0.5238095238095237,289.9913,250.96844657235323,52.37250950746435,0,1.2678502488561114,1.268007792793476,1.2462719008867262,0.02173589199547149,0,0,0,0,0,0,0,396,2,nuda,1
34,0.5396825396825397,296.8865,260.86585790628567,52.24754331879144,0,1.2676468827042011,1.2678083013192383,1.2464083616289594,0.02139993977983942,0,0,0,0,0,0,0,397,2,nuda,1
35,0.5555555555555556,316.5742,279.79311504847124,52.14071443956461,0,1.2673769140464917,1.267541691966334,1.2465442152566095,0.020997476800127597,0,0,0,0,0,0,0,398,2,nuda,1
36,0.5714285714285714,347.2993,309.40720431239816,52.05236827781029,0,1.2670686286942598,1.2672346941033623,1.2466794613505847,0.020555232844027018,0,0,0,0,0,0,0,399,2,nuda,1
37,0.5873015873015872,381.6922,348.32293198064406,51.982881856965214,0,1.266750312458784,1.2669109735093347,1.2468140995039727,0.02009687409746168,0,0,0,0,0,0,0,400,2,nuda,1
38,0.6031746031746031,412.6608,391.3431015931647,51.93266689432498,0,1.266450251151252,1.2665908272152757,1.2469481293217908,0.019642697986438883,0,0,0,0,0,0,0,401,2,nuda,1
39,0.6190476190476191,436.8077,429.01436852615217,51.90217312267825,0,1.2661919348482482,1.2662910564604644,1.2470815504207258,0.01920950613355098,0,0,0,0,0,0,0,402,2,nuda,1
40,0.6349206349206349,453.9096,448.23481354783036,51.891891891891895,1,1.2659798231329977,1.266025005661164,1.247214362428875,0.01881064332696317,0,0,0,0,0,0,0,403,2,nuda,1
41,0.6507936507936507,465.4342,434.9791190532851,51.902782550837706,0,1.2658136557742687,1.2658027464743473,1.2473465649854987,0.018456181584388096,0,0,0,0,0,0,0,404,2,nuda,1
42,0.6666666666666666,425.5816,379.2858624328167,51.93507478251455,0,1.265693172540829,1.265631378623747,1.2474781577407918,0.018153220979363616,0,0,0,0,0,0,0,405,2,nuda,1
43,0.6825396825396826,315.8893,280.5562408807488,51.98823650616235,0,1.2656181132014466,1.2655154138977212,1.2476091403556804,0.017906273639321773,0,0,0,0,0,0,0,406,2,nuda,1
44,0.6984126984126984,156.5793,149.80956830926812,52.06178214392399,0,1.2655882175248898,1.265457207195101,1.2477395125016457,0.017717694791612292,0,0,0,0,0,0,0,407,2,nuda,1
45,0.7142857142857142,-7.837646,6.7728765220350295,52.15526849694468,0,1.265603225279927,1.2654573988943199,1.247869273860583,0.017588125132773157,0,0,0,0,0,0,0,408,2,nuda,1
46,0.7301587301587301,-143.9207,0.0,52.268290950128254,0,1.265662876235326,1.2655153359789337,1.2479984241246913,0.01751691195416128,0,0,0,0,0,0,0,409,2,nuda,1
47,0.746031746031746,-242.0515,0.0,52.4004799611796,0,1.2657669101598545,1.2656294447983516,1.248126962996399,0.01750248190275745,1,0,0,0,0,0,0,410,2,nuda,1
48,0.7619047619047619,-306.9367,0.0,52.551497794468354,0,1.265915066822281,1.2657975354238014,1.2482548901883208,0.017542645337175138,0,0,0,0,0,0,0,411,2,nuda,1
49,0.7777777777777777,-347.031,0.0,52.72103546443367,0,1.2661070859913732,1.266017025545087,1.2483822054232496,0.017634820224425297,0,0,0,0,0,0,0,412,2,nuda,1
50,0.7936507936507936,-370.154,0.0,52.90880985682086,0,1.2663427074358995,1.2662850800141034,1.2485089084341787,0.017776171683409666,0,0,0,0,0,0,0,413,2,nuda,1
51,0.8095238095238095,-382.5862,0.0,53.1145609990926,0,1.266621670924628,1.2665986698076626,1.2486349989643544,0.01796367094769376,0,0,0,0,0,0,0,414,2,nuda,1
52,0.8253968253968254,-381.8481,0.0,53.338049453966406,0,1.2669437162263266,1.266954560788773,1.248760476767358,0.01819408412670536,0,0,0,0,0,0,0,415,2,nuda,1
53,0.8412698412698412,-367.3289,0.0,53.57905381226281,0,1.2673085831097637,1.2673492477567518,1.2488853416072125,0.018463906255738082,0,0,0,0,0,0,0,416,2,nuda,1
54,0.8571428571428571,-343.6758,0.0,53.83736826316273,0,1.267716011343707,1.26777885260789,1.2490095932585161,0.018769259456485103,0,0,0,0,0,0,0,417,2,nuda,1
55,0.873015873015873,-318.9319,0.0,54.112800221615245,0,1.268164494732812,1.2682390068614333,1.2491332315065975,0.019105775462863222,0,0,0,0,0,0,0,418,2,nuda,1
56,0.8888888888888888,-298.9865,0.0,54.40516799405402,0,1.2686469537343341,1.2687247384000877,1.249256256147692,0.019468482361343135,0,0,0,0,0,0,0,419,2,nuda,1
57,0.9047619047619047,-285.1778,0.0,54.71429846480606,0,1.2691547510716104,1.269230380267242,1.249378666989136,0.019851713387977452,0,0,0,0,0,0,0,420,2,nuda,1
58,0.9206349206349206,-276.1346,0.0,55.04002478664965,0,1.2696792493959057,1.269749516136691,1.2495004638495748,0.02024905239791538,0,0,0,0,0,0,0,421,2,nuda,1
59,0.9365079365079365,-270.2643,0.0,55.38218405992477,0,1.270211811358485,1.270274973077233,1.2496216465591836,0.0206533266297801,0,0,0,0,0,0,0,422,2,nuda,1
60,0.9523809523809523,-266.5126,0.0,55.7406149854529,0,1.2707437996106137,1.2707988679034974,1.2497422149598971,0.02105665305626657,0,0,0,0,0,0,0,423,2,nuda,1
61,0.9682539682539681,-258.5485,0.0,56.11515547730835,0,1.2712665768035563,1.2713127090748846,1.249862168905641,0.021450540282849255,0,0,0,0,0,0,0,424,2,nuda,1
62,0.9841269841269841,-242.4822,0.0,56.505640222227946,0,1.2717715055885779,1.2718075520082395,1.2499815082625634,0.021826043860224718,0,0,0,0,0,0,0,425,2,nuda,1
63,1.0,-219.3877,0.0,56.91189817317673,0,1.2722499486169436,1.2722742019524549,1.2501002329092612,0.02217396915868831,0,0,0,0,0,0,0,426,2,nuda,1
0,0.0,0.1184464,0.0,77.4592434752696,0,1.133358116397687,1.133884596625697,1.2054672170285843,-0.07158263078562575,0,0,0,0,0,0,0,1573,4,nuda,3
1,0.015873015873015872,8.681114,0.0,78.14767232462268,0,1.1317295719542513,1.1320915189598153,1.2054096058048576,-0.07331809726658571,0,0,0,0,0,0,0,1574,4,nuda,3
2,0.031746031746031744,16.82976,6.70583455687866,78.84479743302973,0,1.1307106225883472,1.1308873523618923,1.2053519239049895,-0.07446458200346402,0,0,0,0,0,0,0,1575,4,nuda,3
3,0.047619047619047616,23.09369,13.099866821581589,79.54976490182558,0,1.1302567182037722,1.1302579368568293,1.205294171768818,-0.07503624541119613,0,0,0,0,0,0,0,1576,4,nuda,3
4,0.06349206349206349,26.80173,17.73822973278893,80.26165188369234,0,1.1303233087043234,1.130177776929707,1.205236349793112,-0.07505858340146944,0,0,0,0,0,0,0,1577,4,nuda,3
5,0.07936507936507936,28.30867,20.548343790705527,80.9794631275619,0,1.130865843993798,1.1306118047339624,1.2051784583312335,-0.07456666417420799,0,0,0,0,0,0,0,1578,4,nuda,3
6,0.09523809523809523,28.55666,21.756548494620297,81.70212765957447,1,1.1318397739759931,1.1315173478061575,1.2051204976931131,-0.07360316050278046,0,0,0,0,0,0,0,1579,4,nuda,3
7,0.1111111111111111,28.29808,21.596841763915936,82.48304369298434,0,1.1332005485547063,1.1328461860818069,1.2050624681455246,-0.07221629271844426,0,0,0,0,0,0,0,1580,4,nuda,3
8,0.12698412698412698,27.56818,20.11881253051769,83.37481157753373,0,1.1349036176337348,1.1345465896157567,1.2050043699126296,-0.07045779099051452,0,0,0,0,0,0,0,1581,4,nuda,3
9,0.14285714285714285,25.64748,17.225069192431178,84.3753285606665,0,1.1369044311168757,1.1365652413724383,1.2049462031767684,-0.0683809725368997,0,0,0,0,0,0,0,1582,4,nuda,3
10,0.15873015873015872,21.72199,12.908543305988834,85.48269223336048,0,1.139158438907926,1.1388489666916672,1.2048879680794657,-0.06603901215930769,0,0,0,0,0,0,0,1583,4,nuda,3
11,0.1746031746031746,15.68872,7.514275332782141,86.69507685881824,0,1.1416210909106836,1.1413462105803402,1.2048296647226207,-0.06348346495274035,0,0,0,0,0,0,0,1584,4,nuda,3
12,0.19047619047619047,8.565331,1.8183469621232051,88.01060537771492,0,1.1442478370289453,1.1440082241723974,1.2047712931698515,-0.0607630798468742,0,0,0,0,0,0,0,1585,4,nuda,3
13,0.20634920634920634,2.078819,0.0,89.42721406353934,0,1.146994127166508,1.1467899413054472,1.2047128534479656,-0.057922923030908006,0,0,0,0,0,0,0,1586,4,nuda,3
14,0.2222222222222222,-2.13118,0.0,90.94250710499685,0,1.1498154112271695,1.1496505443788938,1.2046543455485255,-0.05500381209699866,0,0,0,0,0,0,0,1587,4,nuda,3
15,0.23809523809523808,-3.425278,0.0,92.55359873475321,0,1.1526671398104298,1.1525537350312902,1.2045957694294864,-0.05204204536454782,0,0,0,0,0,0,0,1588,4,nuda,3
16,0.25396825396825395,-2.534454,0.0,94.25694095967432,0,1.1555110118020646,1.1554677394508241,1.2045371250168808,-0.049069396571398874,0,0,0,0,0,0,0,1589,4,nuda,3
17,0.2698412698412698,-1.070671,0.0,96.04813553781833,0,1.1583302124104686,1.1583650900740714,1.2044784122065275,-0.046113333176794565,0,0,0,0,0,0,0,1590,4,nuda,3
18,0.2857142857142857,-0.5514145,0.0,97.92172965924941,0,1.1611125418010486,1.1612222346559429,1.2044196308657513,-0.04319740729314809,0,0,0,0,0,0,0,1591,4,nuda,3
19,0.30158730158730157,-1.465462,0.0,99.87099589469244,0,1.1638458001392147,1.1640190296654636,1.2043607808350916,-0.040341762291973074,0,0,0,0,0,0,0,1592,4,nuda,3
20,0.31746031746031744,-3.074562,0.0,101.88769845412011,0,1.166517787590375,1.1667381771275667,1.2043018619299892,-0.03756369596377587,0,0,0,0,0,0,0,1593,4,nuda,3
21,0.3333333333333333,-3.95153,0.0,103.96184971823733,0,1.169116304319938,1.1693646620797664,1.2042428739424407,-0.034878223063037894,0,0,0,0,0,0,0,1594,4,nuda,3
22,0.3492063492063492,-3.096909,0.0,106.08146342531435,0,1.1716291504933125,1.171885241843936,1.2041838166426053,-0.03229858603804425,0,0,0,0,0,0,0,1595,4,nuda,3
23,0.36507936507936506,-0.3696098,0.0,108.23231383653567,0,1.1740441262759072,1.174288028849359,1.2041246897803615,-0.029836672209388727,0,0,0,0,0,0,0,1596,4,nuda,3
24,0.38095238095238093,3.555817,0.3255930186945018,110.3977136305579,0,1.1763490318331316,1.1765621966294266,1.2040654930868007,-0.02750330777476974,0,0,0,0,0,0,0,1597,4,nuda,3
25,0.3968253968253968,7.617783,4.1005056579509835,112.55832707087241,0,1.1785316673303927,1.1786978248941036,1.2040062262756535,-0.025308412737952767,0,0,0,0,0,0,0,1598,4,nuda,3
26,0.4126984126984127,10.99495,7.769576324978295,114.69203890547816,0,1.1805798329331,1.180685885383745,1.2039468890446412,-0.023261015056303614,0,0,0,0,0,0,0,1599,4,nuda,3
27,0.42857142857142855,13.43106,11.085731432012544,116.773903101302,0,1.1824813288066625,1.1825183566658375,1.2038874810767484,-0.02136913584531877,0,0,0,0,0,0,0,1600,4,nuda,3
28,0.4444444444444444,15.41592,14.17311510501782,118.77619831371274,0,1.1842239551164881,1.1841884442002932,1.203828002041409,-0.019639569314519593,0,0,0,0,0,0,0,1601,4,nuda,3
29,0.4603174603174603,17.77201,17.407732113995024,120.6686181974269,0,1.185795512027986,1.1856908727910054,1.2037684515956029,-0.018077590316991493,0,0,0,0,0,0,0,1602,4,nuda,3
30,0.47619047619047616,21.19032,21.166321969989422,122.41862339867525,0,1.1871837997065648,1.187022212684708,1.2037088293848588,-0.01668662825152801,0,0,0,0,0,0,0,1603,4,nuda,3
31,0.49206349206349204,25.52592,25.585096284996826,123.99197741442445,0,1.1883766183235014,1.1881811985327566,1.2036491350441596,-0.015467948101756038,0,0,0,0,0,0,0,1604,4,nuda,3
32,0.5079365079365079,30.2816,30.444544034962377,125.35347967958663,0,1.1893667994105752,1.1891690023174228,1.2035893681987502,-0.014420377510646986,0,0,0,0,0,0,0,1605,4,nuda,3
33,0.5238095238095237,34.86164,35.218061338200265,126.46789582831619,0,1.1901666678665372,1.1899894268627886,1.2035295284648444,-0.01354011327033256,0,0,0,0,0,0,0,1606,4,nuda,3
34,0.5396825396825397,38.68246,39.245032119995024,127.3010672842552,0,1.1907932688454765,1.1906489949437502,1.2034696154502351,-0.012820632213708672,0,0,0,0,0,0,0,1607,4,nuda,3
35,0.5555555555555556,41.10744,41.94705334317991,127.82116126014441,0,1.1912636475014822,1.1911569191343623,1.2034096287548075,-0.012252721366603887,0,0,0,0,0,0,0,1608,4,nuda,3
36,0.5714285714285714,41.61275,43.00095931471811,128.0,1,1.191594848988643,1.191524948102747,1.2033495679709594,-0.0118246316532932,0,0,0,0,0,0,0,1609,4,nuda,3
37,0.5873015873015872,40.19722,42.40528805361758,127.94877075456668,0,1.1918039184610487,1.1917670949087573,1.2032894326839332,-0.011522349599165259,0,0,0,0,0,0,0,1610,4,nuda,3
38,0.6031746031746031,37.40201,40.42296520468807,127.79929673127528,0,1.1919079010727882,1.191899261187966,1.2032292224720695,-0.011329973146986997,0,0,0,0,0,0,0,1611,4,nuda,3
39,0.6190476190476191,34.07635,37.43987007796022,127.55819493997467,0,1.1919238419779503,1.1919387775026802,1.203168936906988,-0.011230171306069623,0,0,0,0,0,0,0,1612,4,nuda,3
40,0.6349206349206349,30.36952,33.81630987555721,127.23240160431527,0,1.1918687863306245,1.191903884518166,1.2031085755537025,-0.011204702976160302,0,0,0,0,0,0,0,1613,4,nuda,3
41,0.6507936507936507,26.21574,29.79851890613921,126.82908040442946,0,1.1917597792848997,1.1918131821337297,1.2030481379706852,-0.011234967816423155,0,0,0,0,0,0,0,1614,4,nuda,3
42,0.6666666666666666,21.62647,25.507785458988216,126.35553611309372,0,1.191613865994865,1.1916850744729348,1.2029876237098864,-0.011302561255244113,0,0,0,0,0,0,0,1615,4,nuda,3
43,0.6825396825396826,16.68412,20.975845656822138,125.81913499344691,0,1.1914480916146095,1.1915372379377074,1.2029270323167227,-0.011389806436112484,0,0,0,0,0,0,0,1616,4,nuda,3
44,0.6984126984126984,11.37327,16.17925358572379,125.22723296798583,0,1.191279501298223,1.191386137540703,1.2028663633300425,-0.011480237885219841,0,0,0,0,0,0,0,1617,4,nuda,3
45,0.7142857142857142,5.541769,11.043010493606038,124.58711222601846,0,1.1911251401997935,1.191246613571841,1.2028056162820804,-0.011559014844880616,0,0,0,0,0,0,0,1618,4,nuda,3
46,0.7301587301587301,-0.7640219,5.417249915335234,123.90592662276576,0,1.1910020534734114,1.1911315564008544,1.2027447906984086,-0.011613246470932344,0,0,0,0,0,0,0,1619,4,nuda,3
47,0.746031746031746,-7.46619,0.0,123.19065594684484,0,1.1909272862731646,1.191051681931298,1.202683886097895,-0.011632216378687419,0,0,0,0,0,0,0,1620,4,nuda,3
48,0.7619047619047619,-14.64503,0.0,122.44806889935072,0,1.1909146947368638,1.1910154140243174,1.2026229019926749,-0.01160750021913425,0,0,0,0,0,0,0,1621,4,nuda,3
49,0.7777777777777777,-23.22081,0.0,121.68469443941449,0,1.190964208183523,1.1910288733658796,1.2025618378881426,-0.01153297681169905,0,0,0,0,0,0,0,1622,4,nuda,3
50,0.7936507936507936,-33.65345,0.0,120.90680100755668,0,1.1910719551660571,1.1910959652269955,1.2025006932829674,-0.011404740384038447,0,0,0,0,0,0,0,1623,4,nuda,3
51,0.8095238095238095,-45.23806,0.0,120.1203830369357,0,1.191234064150092,1.1912185520192669,1.2024394676691375,-0.011220928016538763,0,0,0,0,0,0,0,1624,4,nuda,3
52,0.8253968253968254,-56.40442,0.0,119.33115409983401,0,1.1914466636012553,1.191396691194103,1.2023781605320358,-0.010981481743172117,0,0,0,0,0,0,0,1625,4,nuda,3
53,0.8412698412698412,-65.6479,0.0,118.54454600765384,0,1.191705881985173,1.1916289154613608,1.202316771350547,-0.010687868332964992,0,0,0,0,0,0,0,1626,4,nuda,3
54,0.8571428571428571,-72.4136,0.0,117.76571318212056,0,1.192007847767472,1.1919125308339438,1.2022552995971945,-0.010342781245536472,0,0,0,0,0,0,0,1627,4,nuda,3
55,0.873015873015873,-76.54697,0.0,116.99954163809306,0,1.192348689413779,1.192243908666238,1.2021937447383115,-0.009949848592832364,0,0,0,0,0,0,0,1628,4,nuda,3
56,0.8888888888888888,-78.35489,0.0,116.2506619593998,0,1.1927245353897202,1.1926187504326244,1.2021321062342398,-0.009513368360813235,0,0,0,0,0,0,0,1629,4,nuda,3
57,0.9047619047619047,-73.71734,0.0,115.52346570397111,0,1.1931315141609227,1.193032308113382,1.2020703835395574,-0.009038088023775854,0,0,0,0,0,0,0,1630,4,nuda,3
58,0.9206349206349206,-61.60485,0.0,114.82212473934177,0,1.193565754193013,1.193479548257088,1.2020085761033297,-0.008529040482207876,0,0,0,0,0,0,0,1631,4,nuda,3
59,0.9365079365079365,-45.43164,0.0,114.15061308114441,0,1.1940233839516172,1.1939552535790208,1.201946683369384,-0.007991442464657236,0,0,0,0,0,0,0,1632,4,nuda,3
60,0.9523809523809523,-30.16395,0.0,113.51273088299172,0,1.194500531902363,1.1944540618546695,1.2018847047766046,-0.00743065563451761,0,0,0,0,0,0,0,1633,4,nuda,3
61,0.9682539682539681,-18.42403,0.0,112.91213030432918,0,1.194993326510876,1.1949704474396938,1.2018226397592422,-0.006852205070379041,0,0,0,0,0,0,0,1634,4,nuda,3
62,0.9841269841269841,-10.15412,0.0,112.35234306225647,0,1.1954978962427831,1.195498655619663,1.2017604877472388,-0.006261844916612436,0,0,0,0,0,0,0,1635,4,nuda,3
63,1.0,-4.837852,6.391946118334996,111.83680955340677,0,1.1960103695637117,1.1960326038700435,1.201698248166561,-0.005665657123716671,0,0,0,0,0,0,0,1636,4,nuda,3
0,0.0,-37.19575,0.0,75.36359714299411,0,1.1854744108642403,1.1853185147910927,1.1553203090595552,0.02606668329119247,0,0,0,0,0,0,0,5280,6,nuda,5
1,0.015873015873015872,-41.37702,0.0,74.43899926055374,0,1.1836358295261722,1.1835404572677144,1.15518482456604,0.02441358652988618,0,0,0,0,0,0,0,5281,6,nuda,5
2,0.031746031746031744,-47.34731,0.0,73.53213780416033,0,1.1816314882060104,1.181587835276974,1.1550490309508774,0.02258625642997863,0,0,0,0,0,0,0,5282,6,nuda,5
3,0.047619047619047616,-54.92199,0.0,72.64406421119851,0,1.179493424582729,1.1794891568747763,1.1549129301424481,0.020613199526225968,0,0,0,0,0,0,0,5283,6,nuda,5
4,0.06349206349206349,-63.18792,0.0,71.77570093457943,0,1.177253676335296,1.1772767539217093,1.1547765240845,0.01852674614499615,0,0,0,0,0,0,0,5284,6,nuda,5
5,0.07936507936507936,-70.52499,0.0,70.9278526866691,0,1.1749442811426858,1.1749856979443003,1.154639814735017,0.01636196626666103,0,0,0,0,0,0,0,5285,6,nuda,5
6,0.09523809523809523,-74.97076,0.0,70.10121728273955,0,1.1725972766838704,1.1726526364739913,1.1545028040650243,0.014155505865773018,0,0,0,0,0,0,0,5286,6,nuda,5
7,0.1111111111111111,-74.80359,0.0,69.29639603539445,0,1.1702447006378214,1.1703145982477685,1.1543654940573476,0.011944392112940874,0,0,0,0,0,0,0,5287,6,nuda,5
8,0.12698412698412698,-69.10313,0.0,68.51390366757578,0,1.1679185906835134,1.168007814774635,1.154227886705349,0.009764854942572922,0,0,0,0,0,0,0,5288,6,nuda,5
9,0.14285714285714285,-58.09481,0.0,67.75417772550863,0,1.1656509844999143,1.1657666035419214,1.1540899840116603,0.00765121026046113,0,0,0,0,0,0,0,5289,6,nuda,5
10,0.15873015873015872,-43.10101,0.0,67.01758748450305,0,1.163473919765998,1.1636223547953988,1.1539517879869325,0.005634846725148343,0,0,0,0,0,0,0,5290,6,nuda,5
11,0.1746031746031746,-26.06981,0.0,66.30444235013886,0,1.1614194341607367,1.1616026593880295,1.1538133006486246,0.003743353597899044,0,0,0,0,0,0,0,5291,6,nuda,5
12,0.19047619047619047,-8.949532,0.0,65.6149997652374,0,1.159519565363104,1.1597306094791775,1.153674524019846,0.0019998214430716477,0,0,0,0,0,0,0,5292,6,nuda,5
13,0.20634920634920634,6.780373,0.0,64.94947263940006,0,1.157806351052069,1.158024296627515,1.1535354601282721,0.0004223402221164435,0,0,0,0,0,0,0,5293,6,nuda,5
14,0.2222222222222222,20.25189,11.157928227213551,64.30803632298002,0,1.1563073097836332,1.1564965228944841,1.1533961110051423,-0.0009762896019551437,0,0,0,0,0,0,0,5294,6,nuda,5
15,0.23809523809523808,31.15992,22.119457267310285,63.69083515134751,0,1.1550200839695133,1.1551547300904657,1.1532564786843542,-0.002188627817490643,0,0,0,0,0,0,0,5295,6,nuda,5
16,0.25396825396825395,39.49698,30.266129620020653,63.097988588399765,0,1.153930189612225,1.1540011408437887,1.1531165652016595,-0.0032124533943758624,0,0,0,0,0,0,0,5296,6,nuda,5
17,0.2698412698412698,45.41824,35.835774900161745,62.529597000614935,0,1.1530231079254178,1.1530330938152606,1.152976372593966,-0.004050429268802433,0,0,0,0,0,0,0,5297,6,nuda,5
18,0.2857142857142857,49.19083,39.25339020134005,61.98574709471381,0,1.1522843201227384,1.1522435454093505,1.1528359028987487,-0.004709600631488307,0,0,0,0,0,0,0,5298,6,nuda,5
19,0.30158730158730157,51.2093,41.03077103792519,61.46651705330643,0,1.151699307417837,1.1516217028686095,1.1526951581535683,-0.005200761832769997,0,0,0,0,0,0,0,5299,6,nuda,5
20,0.31746031746031744,51.9946,41.699932376184385,60.97198140388695,0,1.151253551024362,1.1511537493116308,1.1525541403956892,-0.00553773134425628,0,0,0,0,0,0,0,5300,6,nuda,5
21,0.3333333333333333,52.13608,41.76272706181736,60.502215657311666,0,1.150932532155962,1.1508236201472497,1.1524128516617982,-0.005736575344338735,0,0,0,0,0,0,0,5301,6,nuda,5
22,0.3492063492063492,52.1124,41.644626477485616,60.05730075254987,0,1.1507217320262861,1.1506137919764177,1.1522712939878081,-0.005814818816117395,0,0,0,0,0,0,0,5302,6,nuda,5
23,0.36507936507936506,52.23456,41.65405382887466,59.637327345129364,0,1.150606631848983,1.150506048922552,1.1521294694087447,-0.005790679216930564,0,0,0,0,0,0,0,5303,6,nuda,5
24,0.38095238095238093,52.64126,41.9571793810106,59.242399977390704,0,1.1505727128377006,1.1504821965676972,1.151987379958701,-0.005682352542143294,0,0,0,0,0,0,0,5304,6,nuda,5
25,0.3968253968253968,53.36047,42.57776847133385,58.87264116950032,0,1.1506054562060881,1.150524699618229,1.1518450276708518,-0.005507375659451745,0,0,0,0,0,0,0,5305,6,nuda,5
26,0.4126984126984127,54.32195,43.42591118681079,58.528195471227505,0,1.150690343167795,1.1506172255177844,1.1517024145775174,-0.005282082696010965,0,0,0,0,0,0,0,5306,6,nuda,5
27,0.42857142857142855,55.42831,44.35207255802371,58.2092335158454,0,1.1508128549364687,1.1507450820838427,1.151559542710266,-0.005021167401951118,0,0,0,0,0,0,0,5307,6,nuda,5
28,0.4444444444444444,56.46279,45.21466346311096,57.91595611925224,0,1.1509584727257587,1.1508955426678766,1.1514164141000462,-0.0047373579903516524,0,0,0,0,0,0,0,5308,6,nuda,5
29,0.4603174603174603,57.25951,45.9409022709311,57.64859846960976,0,1.1511126777493137,1.1510580572758369,1.1512730307773402,-0.004441206016905921,0,0,0,0,0,0,0,5309,6,nuda,5
30,0.47619047619047616,57.80405,46.556934733415055,57.40743445556123,0,1.1512623222201737,1.151224352567591,1.1511293947723316,-0.004140986380643832,0,0,0,0,0,0,0,5310,6,nuda,5
31,0.49206349206349204,58.24931,47.171015548345416,57.19278118452289,0,1.151404548106073,1.1513884277087079,1.1509855081150804,-0.003842701472316034,0,0,0,0,0,0,0,5311,6,nuda,5
32,0.5079365079365079,58.86524,47.91398750150991,57.005003746766896,0,1.1515411715173836,1.1515464566179707,1.1508413728357016,-0.003550178927054535,0,0,0,0,0,0,0,5312,6,nuda,5
33,0.5238095238095237,59.81026,48.86435901985961,56.844520286171004,0,1.1516740319795684,1.1516966100662023,1.1506969909645428,-0.0032652495257189107,0,0,0,0,0,0,0,5313,6,nuda,5
34,0.5396825396825397,61.0655,49.99564910726166,56.71180744477144,0,1.1518049690180914,1.15183881310593,1.1505523645323583,-0.002987989765400375,0,0,0,0,0,0,0,5314,6,nuda,5
35,0.5555555555555556,62.40844,51.172436689771374,56.60740625582228,0,1.1519358221584164,1.1519744542766521,1.1504074955704802,-0.002717012654321921,0,0,0,0,0,0,0,5315,6,nuda,5
36,0.5714285714285714,63.49742,52.19395610150319,56.53192856918118,0,1.152068430926007,1.1521060629219704,1.1502623861109864,-0.0024497903948662407,0,0,0,0,0,0,0,5316,6,nuda,5
37,0.5873015873015872,63.97642,52.85706150023301,56.48606410380323,0,1.1522046348463266,1.1522369699288406,1.1501170381868635,-0.0021829936444826663,0,0,0,0,0,0,0,5317,6,nuda,5
38,0.6031746031746031,63.74049,53.002334853295984,56.470588235294116,1,1.15234627344484,1.1523709655313856,1.1499714538321681,-0.001912833712032113,0,0,0,0,0,0,0,5318,6,nuda,5
39,0.6190476190476191,62.96251,52.525202682280906,56.506749080393114,0,1.1524951862470096,1.152511965832774,1.1498256350821885,-0.0016353960360622581,0,0,0,0,0,0,0,5319,6,nuda,5
40,0.6349206349206349,61.78873,51.36534461484943,56.61316666719731,0,1.1526532127782996,1.1526636976879079,1.1496795839736085,-0.0013469553022796427,0,0,0,0,0,0,0,5320,6,nuda,5
41,0.6507936507936507,60.17086,49.50511008341243,56.78710011209795,0,1.1528221925641742,1.1528294097871676,1.1495333025446746,-0.0010442643599657478,0,0,0,0,0,0,0,5321,6,nuda,5
42,0.6666666666666666,57.81887,46.99205175844981,57.02622784680217,0,1.1530039651300965,1.153011616320064,1.14938679283537,-0.0007248105584936257,0,0,0,0,0,0,0,5322,6,nuda,5
43,0.6825396825396826,54.54534,43.96289024659662,57.32858526928714,0,1.1532003700015305,1.1532118785042862,1.1492400568875971,-0.00038703421845706285,0,0,0,0,0,0,0,5323,6,nuda,5
44,0.6984126984126984,50.54318,40.62267398585118,57.692509855453345,0,1.1534132467039395,1.1534306284711906,1.1490930967453674,-3.0504746365709462e-05,0,0,0,0,0,0,0,5324,6,nuda,5
45,0.7142857142857142,46.35085,37.15375424819329,58.11659192825112,0,1.1536444347627877,1.1536670393648405,1.1489459144550043,0.00034394946419530337,0,0,0,0,0,0,0,5325,6,nuda,5
46,0.7301587301587301,42.32952,33.587008137752896,58.59962957348221,0,1.1538950865955968,1.1539189448722156,1.1487985120653545,0.0007341605625705121,0,0,0,0,0,0,0,5326,6,nuda,5
47,0.746031746031746,38.50761,29.718442739035147,59.14058641282385,0,1.1541604791905207,1.154182810615459,1.1486508916280107,0.0011365926330642213,0,0,0,0,0,0,0,5327,6,nuda,5
48,0.7619047619047619,34.40296,25.151933137234735,59.738551112216065,0,1.1544329082335385,1.1544537588344639,1.1485030551975417,0.0015463663773002366,0,0,0,0,0,0,0,5328,6,nuda,5
49,0.7777777777777777,29.21902,19.482487223874,60.39269763097563,0,1.1547046460527488,1.1547256465936677,1.1483550048317304,0.0019573373207849194,0,0,0,0,0,0,0,5329,6,nuda,5
50,0.7936507936507936,22.26395,12.53898216291529,61.102245314529604,0,1.1549679649762505,1.1549911964464388,1.1482067425918148,0.0023622264770577807,0,0,0,0,0,0,0,5330,6,nuda,5
51,0.8095238095238095,13.45075,4.542749838920234,61.86641801041364,0,1.1552151373321422,1.1552421771657297,1.14805827054273,0.0027528010781075786,0,0,0,0,0,0,0,5331,6,nuda,5
52,0.8253968253968254,3.612991,0.0,62.68440145102781,0,1.1554384354485234,1.1554696308251844,1.147909590753346,0.003120101655246923,0,0,0,0,0,0,0,5332,6,nuda,5
53,0.8412698412698412,-5.908363,0.0,63.555298204979735,0,1.1556301316534927,1.1556641411510766,1.1477607052966976,0.003454710390826829,0,0,0,0,0,0,0,5333,6,nuda,5
54,0.8571428571428571,-14.06842,0.0,64.47807955905283,0,1.155782498275148,1.155816136592919,1.1476116162501993,0.003747054188634826,0,0,0,0,0,0,0,5334,6,nuda,5
55,0.873015873015873,-21.08014,0.0,65.4515337626556,0,1.1558878076415888,1.1559162199273079,1.1474623256958414,0.003987734277549344,0,0,0,0,0,0,0,5335,6,nuda,5
56,0.8888888888888888,-28.02206,0.0,66.47421015443625,0,1.155938332080914,1.1559555144214864,1.1473128357203635,0.004167872374933997,0,0,0,0,0,0,0,5336,6,nuda,5
57,0.9047619047619047,-36.15571,0.0,67.54435880585449,0,1.1559263439212224,1.155926014729401,1.1471631484153952,0.004279461582559211,0,0,0,0,0,0,0,5337,6,nuda,5
58,0.9206349206349206,-46.09897,0.0,68.65986546912045,0,1.1558441154906125,1.1558209289540533,1.147013265877565,0.004315708448849216,0,0,0,0,0,0,0,5338,6,nuda,5
59,0.9365079365079365,-57.50674,0.0,69.81818181818181,0,1.155683919117183,1.1556349969456807,1.1468631902085669,0.0042713512670021075,0,0,0,0,0,0,0,5339,6,nuda,5
60,0.9523809523809523,-69.27824,0.0,71.01625123312073,0,1.1554380271290334,1.155364769223945,1.1467129235151863,0.004142938997157595,0,0,0,0,0,0,0,5340,6,nuda,5
61,0.9682539682539681,-79.72221,0.0,72.25043071221923,0,1.1550987118542615,1.1550088312185345,1.1465624679092763,0.0039290555070262585,0,0,0,0,0,0,0,5341,6,nuda,5
62,0.9841269841269841,-86.90268,0.0,73.51640991292699,0,1.1546594691454297,1.15456795904644,1.1464118255076892,0.0036304753492406965,0,0,0,0,0,0,0,5342,6,nuda,5
63,1.0,-88.86992,0.0,74.80912883146497,0,1.1541257676452354,1.154045195856616,1.1462609984321568,0.003250240106140407,0,0,0,0,0,0,0,5343,6,nuda,5
