,index,PPG_Raw,PPG_Clean,PPG_Rate,PPG_Peaks,EDA_Raw,EDA_Clean,EDA_Tonic,EDA_Phasic,SCR_Onsets,SCR_Peaks,SCR_Height,SCR_Amplitude,SCR_RiseTime,SCR_Recovery,SCR_RecoveryTime,Index,Label,Condition,id
0,0.0,-5.956856,3.2056878847836368,69.12516823687753,0,1.0974790000000005,1.097336228885524,1.1483408517475182,-0.05100462289787523,0,0,0,0,0,0,1,0,1,neutral,0
1,0.015873015873015872,-6.595634,0.0,69.12516823687753,0,1.0979158345907547,1.0995775612537027,1.148646888274534,-0.0490693270567142,0,0,0,0,0,0,1,1,1,neutral,0
2,0.031746031746031744,-7.031418,0.0,69.12516823687753,0,1.0991617656423458,1.1018754553742838,1.1489531974699958,-0.04707774213159631,0,0,0,0,0,0,1,2,1,neutral,0
3,0.047619047619047616,-8.439178,0.0,69.12516823687753,0,1.101119934073767,1.1042920180697644,1.1492597739221528,-0.04496775588827305,0,0,0,0,0,0,1,3,1,neutral,0
4,0.06349206349206349,-11.83169,0.0,69.12516823687753,0,1.103693480804011,1.1068790198519742,1.1495666121919546,-0.042687592375864024,0,0,0,0,0,0,0,4,1,neutral,0
5,0.07936507936507936,-17.53848,0.0,69.12516823687753,0,1.1067855467520717,1.1096726903450933,1.1498737068142906,-0.04020101650507923,0,0,0,0,0,0,0,5,1,neutral,0
6,0.09523809523809523,-25.06165,0.0,69.12516823687753,0,1.110299272836942,1.1126899364445078,1.150181052299325,-0.03749111589069607,0,0,0,0,0,0,0,6,1,neutral,0
7,0.1111111111111111,-33.23866,0.0,69.12516823687753,0,1.1141377999776145,1.1159262530052545,1.1504886431339445,-0.03456239016456467,0,0,0,0,0,0,0,7,1,neutral,0
8,0.12698412698412698,-40.3997,0.0,69.12516823687753,0,1.1182042690930831,1.1193554238368175,1.1507964737833314,-0.03144104998238322,0,0,0,0,0,0,0,8,1,neutral,0
9,0.14285714285714285,-45.13138,0.0,69.12516823687753,0,1.1224018211023403,1.1229309498900129,1.1511045386926553,-0.02817358883850589,0,0,0,0,0,0,0,9,1,neutral,0
10,0.15873015873015872,-47.02859,0.0,69.12516823687753,0,1.1266335969243795,1.126589004888609,1.151412832288873,-0.024823827436121083,0,0,0,0,0,0,0,10,1,neutral,0
11,0.1746031746031746,-46.91331,0.0,69.12516823687753,0,1.130802737478194,1.1302526138923703,1.1517213489826073,-0.021468735126086547,0,0,0,0,0,0,0,11,1,neutral,0
12,0.19047619047619047,-46.17026,0.0,69.12516823687753,0,1.1348123836827766,1.1338366806681128,1.152030083170069,-0.01819340253779763,0,0,0,0,0,0,0,12,1,neutral,0
13,0.20634920634920634,-45.93055,0.0,69.12516823687753,0,1.1385656764571206,1.137253455387178,1.1523390292349804,-0.015085573883634976,0,0,0,0,0,0,0,13,1,neutral,0
14,0.2222222222222222,-46.74435,0.0,69.12516823687753,0,1.141965756720219,1.1404180329328002,1.1526481815504528,-0.012230148653475464,0,0,0,0,0,0,0,14,1,neutral,0
15,0.23809523809523808,-48.75208,0.0,69.12516823687753,0,1.1449157653910653,1.1432535003746829,1.1529575344807652,-0.009704034141894954,0,0,0,0,0,0,0,15,1,neutral,0
16,0.25396825396825395,-51.9122,0.0,69.12516823687753,0,1.147318843388652,1.1456954053113493,1.1532670823830007,-0.007571677107452879,0,0,0,0,0,0,0,16,1,neutral,0
17,0.2698412698412698,-55.59933,0.0,69.12516823687753,0,1.149101787869151,1.1476952892916004,1.1535768196084943,-0.005881530352683614,0,0,0,0,0,0,0,17,1,neutral,0
18,0.2857142857142857,-58.7973,0.0,69.12516823687753,0,1.150298063044049,1.1492231159587925,1.1538867405040574,-0.004663624581042164,0,0,0,0,0,0,0,18,1,neutral,0
19,0.30158730158730157,-60.61856,0.0,69.12516823687753,0,1.1509711839387704,1.1502685144476266,1.1541968394129498,-0.003928325001087377,0,0,0,0,0,0,0,19,1,neutral,0
20,0.31746031746031744,-60.61491,0.0,69.12516823687753,0,1.1511846672758028,1.1508408467860254,1.1545071106755842,-0.003666263925309207,0,0,0,0,0,0,0,20,1,neutral,0
21,0.3333333333333333,-58.46148,0.0,69.12516823687753,0,1.1510020297776327,1.1509681859392944,1.154817548629956,-0.0038493627263975483,0,0,0,0,0,0,0,21,1,neutral,0
22,0.3492063492063492,-53.80052,0.0,69.12516823687753,0,1.1504867881667469,1.1506953528652974,1.155128147611803,-0.004432794782226593,0,0,0,0,0,0,0,22,1,neutral,0
23,0.36507936507936506,-46.58777,0.0,69.12516823687753,0,1.149702459165633,1.1500812035108199,1.1554389019545128,-0.005357698479398154,0,0,0,0,0,0,0,23,1,neutral,0
24,0.38095238095238093,-37.39418,0.0,69.12516823687753,0,1.148712559496777,1.149195379870077,1.1557498059888,-0.0065544261544125265,0,0,0,0,0,0,0,24,1,neutral,0
25,0.3968253968253968,-27.31179,0.0,69.12516823687753,0,1.147580605882667,1.1481147449980855,1.1560608540421904,-0.007946109079777719,0,0,0,0,0,0,0,25,1,neutral,0
26,0.4126984126984127,-16.57886,0.0,69.12516823687753,0,1.1463701150457888,1.1469197134487836,1.1563720404383475,-0.009452327025219864,0,0,0,0,0,0,0,26,1,neutral,0
27,0.42857142857142855,-4.390921,0.0,69.12516823687753,0,1.14514460370863,1.1456906696846054,1.1566833594962882,-0.010992689847320922,0,0,0,0,0,0,0,27,1,neutral,0
28,0.4444444444444444,10.44042,0.0,69.12516823687753,0,1.1439675885936773,1.1445046411165731,1.156994805529531,-0.012490164448577631,0,0,0,0,0,0,0,28,1,neutral,0
29,0.4603174603174603,28.5687,17.12872118862874,69.12516823687753,0,1.142902586423418,1.1434323625327176,1.1573063728452238,-0.013874010348107056,0,0,0,0,0,0,0,29,1,neutral,0
30,0.47619047619047616,50.03162,40.1968712207495,69.12516823687753,0,1.1420131139203382,1.1425358369058602,1.157618055743296,-0.015082218873016862,0,0,0,0,0,0,0,30,1,neutral,0
31,0.49206349206349204,74.21548,65.88901719470051,69.12516823687753,0,1.1413626878069258,1.141866465271883,1.1579298485156722,-0.01606338327934914,0,0,0,0,0,0,0,31,1,neutral,0
32,0.5079365079365079,99.76374,91.23819159517556,69.12516823687753,0,1.1410148248056673,1.1414637862320802,1.158241745445585,-0.016777959249042976,0,0,0,0,0,0,0,32,1,neutral,0
33,0.5238095238095237,124.6059,112.15647596275076,69.12516823687753,0,1.1410208121389322,1.14135483406218,1.158553740807018,-0.017198906780353143,0,0,0,0,0,0,0,33,1,neutral,0
34,0.5396825396825397,142.025,124.68483983349313,69.12516823687753,0,1.1413697350886256,1.1415540939721456,1.1588658288642977,-0.017311734927643735,0,0,0,0,0,0,0,34,1,neutral,0
35,0.5555555555555556,145.1065,126.55485244149116,69.12516823687753,1,1.142030952116467,1.1420640048813993,1.1591780038718544,-0.017113999025922165,0,0,0,0,0,0,0,35,1,neutral,0
36,0.5714285714285714,132.7183,118.27406722630325,68.91472279957308,0,1.142973813712602,1.1428759359103702,1.1594902600741566,-0.01661432419922783,0,0,0,0,0,0,0,36,1,neutral,0
37,0.5873015873015872,111.6291,103.03692937868165,68.71045976336119,0,1.1441676703671741,1.1439715445966103,1.1598025917058228,-0.015831047144627082,0,0,0,0,0,0,0,37,1,neutral,0
38,0.6031746031746031,90.86996,85.39080785986316,68.51223310255718,0,1.145581872570328,1.1453244140567083,1.160114992991908,-0.014790578970586804,0,0,0,0,0,0,0,38,1,neutral,0
39,0.6190476190476191,75.85414,69.34864993916317,68.31990159601979,0,1.147185770812208,1.146901863321931,1.1604274581483494,-0.013525594861777478,0,0,0,0,0,0,0,39,1,neutral,0
40,0.6349206349206349,67.11356,56.965433131119546,68.13332861849554,0,1.148948715582959,1.1486668291688367,1.1607399813825623,-0.012073152249055627,0,0,0,0,0,0,0,40,1,neutral,0
41,0.6507936507936507,61.9271,48.06101421152951,67.95238194218929,0,1.1508400573727247,1.1505797274607605,1.1610525568941632,-0.010472829468702788,0,0,0,0,0,0,0,41,1,neutral,0
42,0.6666666666666666,56.65584,41.05570775308137,67.77693354796777,0,1.1528291466716498,1.1526002154711246,1.1613651788758017,-0.008764963439946198,0,0,0,0,0,0,0,42,1,neutral,0
43,0.6825396825396826,48.69973,34.28150217675906,67.60685944564042,0,1.1548853339698788,1.154688792045017,1.1616778415140778,-0.006989049504297781,0,0,0,0,0,0,0,43,1,neutral,0
44,0.6984126984126984,38.31572,26.979702499964084,67.44203950279896,0,1.1569779697575557,1.156808188216429,1.161990538990522,-0.005182350809297062,0,0,0,0,0,0,0,44,1,neutral,0
45,0.7142857142857142,27.9101,19.510752145693385,67.28235728173004,0,1.1590764045248263,1.158924515911749,1.1623032654826169,-0.0033787496060376093,0,0,0,0,0,0,0,45,1,neutral,0
46,0.7301587301587301,20.07698,12.832017459988828,67.12769988394622,0,1.1611499887618333,1.161008155999149,1.1626160151648346,-0.0016078592008200443,0,0,0,0,0,0,0,46,1,neutral,0
47,0.746031746031746,15.67869,7.7063741203071725,66.97795780190987,0,1.1631680729587217,1.1630343790003415,1.1629287822096765,0.0001055967555667614,0,0,0,0,0,0,0,47,1,neutral,0
48,0.7619047619047619,13.78043,4.172686853792745,66.83302477755072,0,1.1651000076056364,1.1649837024065617,1.163241560788694,0.0017421415828069026,0,0,0,0,0,0,0,48,1,neutral,0
49,0.7777777777777777,12.59151,1.5595103944016082,66.69279766720334,0,1.1669196319613708,1.166841998017526,1.1635543450734773,0.003287652909026356,0,0,0,0,0,0,0,49,1,neutral,0
50,0.7936507936507936,10.46955,0.0,66.55717631261341,0,1.1686265724968006,1.1686003712498438,1.1638671292366025,0.004733241978258501,0,0,0,0,0,0,0,50,1,neutral,0
51,0.8095238095238095,6.681808,0.0,66.42606341768354,0,1.1702296466849313,1.1702548418577647,1.1641799074525254,0.006074934370297047,0,0,0,0,0,0,0,51,1,neutral,0
52,0.8253968253968254,1.55098,0.0,66.29936443064973,0,1.1717376832780328,1.1718058615558837,1.1644926738984198,0.007313187622563333,0,0,0,0,0,0,0,52,1,neutral,0
53,0.8412698412698412,-3.289546,0.0,66.1769874313975,0,1.173159511028376,1.1732577080407764,1.164805422754957,0.008452285250961908,0,0,0,0,0,0,0,53,1,neutral,0
54,0.8571428571428571,-5.915749,0.0,66.05884302364518,0,1.1745039586882302,1.1746177964158302,1.1651181482070252,0.009499648173991473,0,0,0,0,0,0,0,54,1,neutral,0
55,0.873015873015873,-5.312357,0.0,65.94484423173749,0,1.1757798550098661,1.1758959479328723,1.1654308444443942,0.010465103453709573,0,0,0,0,0,0,0,55,1,neutral,0
56,0.8888888888888888,-2.113653,0.0,65.83490640180791,0,1.1769960287455539,1.177103652580471,1.1657435056623249,0.011360146883422864,0,0,0,0,0,0,0,56,1,neutral,0
57,0.9047619047619047,2.071068,0.0,65.72894710708286,0,1.178161308647563,1.1782533569648064,1.1660561260621347,0.012197230867994527,0,0,0,0,0,0,0,57,1,neutral,0
58,0.9206349206349206,5.705446,0.0,65.6268860571134,0,1.179284523468165,1.1793578028633942,1.1663686998517198,0.012989102977044323,0,0,0,0,0,0,0,58,1,neutral,0
59,0.9365079365079365,7.814159,0.2352253175083745,65.52864501073341,0,1.1803745019596288,1.1804294354872211,1.1666812212460447,0.013748214206594084,0,0,0,0,0,0,0,59,1,neutral,0
60,0.9523809523809523,8.154049,1.2825309651717134,65.43414769255408,0,1.1814400728742247,1.1814798944480551,1.1669936844676063,0.014486209945914652,0,0,0,0,0,0,0,60,1,neutral,0
61,0.9682539682539681,7.003229,1.012768769887146,65.34331971281595,0,1.182490064964223,1.1825195951020189,1.1673060837468776,0.015213511320655765,0,0,0,0,0,0,0,61,1,neutral,0
62,0.9841269841269841,5.302196,0.15394852206031873,65.25608849042973,0,1.1835333069818943,1.1835574035355387,1.167618413322739,0.015938990178363116,0,0,0,0,0,0,0,62,1,neutral,0
63,1.0,4.206907,0.0,65.17238317904668,0,1.1845786276795083,1.1846004049964431,1.1679306674429037,0.01666973751915246,0,0,0,0,0,0,0,63,1,neutral,0
0,0.0,-75.7142,0.0,103.74391587025261,0,1.1600890806278146,1.1604277479450247,1.2227684738474107,-0.06234072601045566,0,0,0,0,0,0,0,1155,3,neutral,2
1,0.015873015873015872,-74.0554,0.0,102.63585917832053,0,1.1594071194284967,1.1596963126991149,1.2227131696949833,-0.06301685711279316,0,0,0,0,0,0,0,1156,3,neutral,2
2,0.031746031746031744,-68.37849,0.0,101.52970564363224,0,1.1590782674710478,1.159284238845507,1.2226581514986448,-0.06337391277897696,0,0,0,0,0,0,0,1157,3,neutral,2
3,0.047619047619047616,-61.28342,0.0,100.43029936953339,0,1.1590742319482676,1.1591864489762702,1.2226034185935606,-0.06341696975210362,0,0,0,0,0,0,0,1158,3,neutral,2
4,0.06349206349206349,-55.67764,0.0,99.34208931612756,0,1.1593667200529572,1.159390702112327,1.2225489702781926,-0.06315826830971207,0,0,0,0,0,0,0,1159,3,neutral,2
5,0.07936507936507936,-53.63959,0.0,98.26914744595557,0,1.1599274389779168,1.159878402899843,1.2224948058142695,-0.06261640306736585,0,0,0,0,0,0,0,1160,3,neutral,2
6,0.09523809523809523,-55.44817,0.0,97.21518987341773,0,1.1607280959159474,1.160625603801249,1.2224409244269314,-0.06181532078777435,0,0,0,0,0,0,0,1161,3,neutral,2
7,0.1111111111111111,-59.15239,0.0,96.18360023962894,0,1.1617403980598489,1.161604141423484,1.2223873253050381,-0.060783184052858076,0,0,0,0,0,0,0,1162,3,neutral,2
8,0.12698412698412698,-60.94029,0.0,95.17745464323693,0,1.1629360526024224,1.1627828458937175,1.2223340076016256,-0.05955116188848466,0,0,0,0,0,0,0,1163,3,neutral,2
9,0.14285714285714285,-56.35007,0.0,94.19954756422612,0,1.1642867667364685,1.1641287640561,1.2222809704344968,-0.05815220656830606,0,0,0,0,0,0,0,1164,3,neutral,2
10,0.15873015873015872,-42.38748,0.0,93.25241831904748,0,1.1657642476547867,1.1656083422994161,1.222228212886927,-0.05661987078681395,0,0,0,0,0,0,0,1165,3,neutral,2
11,0.1746031746031746,-19.30737,0.0,92.33837767970607,0,1.1673402025501787,1.167188522033343,1.2221757340084671,-0.05498721218388159,0,0,0,0,0,0,0,1166,3,neutral,2
12,0.19047619047619047,8.754814,12.73716418726327,91.45953437566679,0,1.168986338615444,1.1688377093091842,1.222123532815823,-0.053285823724911724,0,0,0,0,0,0,0,1167,3,neutral,2
13,0.20634920634920634,34.62714,36.10092235293734,90.61782127520918,0,1.1706743630433845,1.1705265891381293,1.2220716082937946,-0.05154501938351463,0,0,0,0,0,0,0,1168,3,neutral,2
14,0.2222222222222222,50.14328,49.17949380482773,89.8150211122955,0,1.1723759830267995,1.1722287642556632,1.2220199593962549,-0.04979119537807916,0,0,0,0,0,0,0,1169,3,neutral,2
15,0.23809523809523808,48.85899,46.24466693103501,89.05279168660071,0,1.17406290575849,1.1739212072026652,1.2219685850471538,-0.04804737809167563,0,0,0,0,0,0,0,1170,3,neutral,2
16,0.25396825396825395,28.38758,25.257502568747217,88.33269051886471,0,1.1757068417502476,1.1755845235795535,1.221917484141529,-0.04633296081892403,0,0,0,0,0,0,0,1171,3,neutral,2
17,0.2698412698412698,-8.454376,0.0,87.65619899213142,0,1.1772858070326846,1.1772030331418861,1.2218666555465134,-0.04466362267139903,0,0,0,0,0,0,0,1172,3,neutral,2
18,0.2857142857142857,-54.06165,0.0,87.02474605284114,0,1.178797238269895,1.178764683883525,1.2218160981023256,-0.043051414495457026,0,0,0,0,0,0,0,1173,3,neutral,2
19,0.30158730158730157,-97.99682,0.0,86.43973158534486,0,1.1802422990169392,1.1802608220008628,1.2217658106232354,-0.04150498890897593,0,0,0,0,0,0,0,1174,3,neutral,2
20,0.31746031746031744,-129.4892,0.0,85.90254961048893,0,1.181622152828878,1.181685847027509,1.2217157918984978,-0.040029945167601076,0,0,0,0,0,0,0,1175,3,neutral,2
21,0.3333333333333333,-140.0782,0.0,85.41461149482444,0,1.1829379632607713,1.1830367857965787,1.2216660406932487,-0.03862925520335394,0,0,0,0,0,0,0,1176,3,neutral,2
22,0.3492063492063492,-125.992,0.0,84.97736939316144,0,1.1841908938676795,1.1843128207364115,1.2216165557493608,-0.037303735329767884,0,0,0,0,0,0,0,1177,3,neutral,2
23,0.36507936507936506,-89.7829,0.0,84.59234018514933,0,1.185382108204663,1.1855148071903576,1.2215673357862566,-0.03605252892291534,0,0,0,0,0,0,0,1178,3,neutral,2
24,0.38095238095238093,-40.06351,0.0,84.26113020801397,0,1.1865127698267826,1.18664481118327,1.2215183795016786,-0.03487356865568669,0,0,0,0,0,0,0,1179,3,neutral,2
25,0.3968253968253968,11.05479,2.739043031253603,83.98546113441981,0,1.1875840422890982,1.1877056938109822,1.221469685572416,-0.03376399210903642,0,0,0,0,0,0,0,1180,3,neutral,2
26,0.4126984126984127,52.30201,42.659578500434854,83.76719739884159,0,1.1885970891466706,1.188700761825023,1.2214212526549897,-0.03272049118795763,0,0,0,0,0,0,0,1181,3,neutral,2
27,0.42857142857142855,77.23373,69.68793415981656,83.60837564042227,0,1.18955307395456,1.1896334966895117,1.2213730793862978,-0.03173958306522906,0,0,0,0,0,0,0,1182,3,neutral,2
28,0.4444444444444444,85.8054,82.55166650607177,83.51123670818876,0,1.1904531602678265,1.1905073670372819,1.2213251643842225,-0.03081779772589955,0,0,0,0,0,0,0,1183,3,neutral,2
29,0.4603174603174603,83.04439,83.75478161697777,83.47826086956522,1,1.191298511641531,1.1913257226033165,1.2212775062482006,-0.02995178403442344,0,0,0,0,0,0,0,1184,3,neutral,2
30,0.47619047619047616,75.79428,77.67840232985576,83.51951129915585,0,1.1920902916307337,1.192091761808648,1.2212301035597601,-0.029138342151295883,0,0,0,0,0,0,0,1185,3,neutral,2
31,0.49206349206349204,69.12247,68.487539148845,83.64038363859095,0,1.1928296637904947,1.1928085605222196,1.2211829548830226,-0.028374394771695576,0,0,0,0,0,0,0,1186,3,neutral,2
32,0.5079365079365079,64.27696,58.82621496578768,83.83686258654673,0,1.1935177917465667,1.193479146325315,1.221136058765178,-0.02765691286152899,0,0,0,0,0,0,0,1187,3,neutral,2
33,0.5238095238095237,59.60434,49.7315534214569,84.10527580819614,0,1.1941565802209024,1.1941066008977228,1.221089413736928,-0.026982813271709,0,0,0,0,0,0,0,1188,3,neutral,2
34,0.5396825396825397,52.74643,41.46392152246457,84.44222397764786,0,1.194750502647719,1.1946941728701894,1.2210430183129035,-0.02634884588612169,0,0,0,0,0,0,0,1189,3,neutral,2
35,0.5555555555555556,43.1978,34.4669752855242,84.84451718494272,0,1.1953045886224183,1.1952453844704192,1.220996870992058,-0.025751486976015706,0,0,0,0,0,0,0,1190,3,neutral,2
36,0.5714285714285714,33.95285,29.718635364467477,85.30911625834001,0,1.1958238677404014,1.1957641172784523,1.220950970258036,-0.02518685344499552,0,0,0,0,0,0,0,1191,3,neutral,2
37,0.5873015873015872,29.80361,28.26100330453931,85.83307781934138,0,1.1963133695970711,1.196254665117827,1.2209053145795206,-0.024650649938205975,0,0,0,0,0,0,0,1192,3,neutral,2
38,0.6031746031746031,33.09173,30.335458955244363,86.41350210970464,0,1.196778123787829,1.1967217452748018,1.2208599024105633,-0.02413815762344043,0,0,0,0,0,0,0,1193,3,neutral,2
39,0.6190476190476191,41.54046,34.846383110617964,87.04748281973943,0,1.1972231599080774,1.197170462641968,1.2208147321908962,-0.023644270047839658,0,0,0,0,0,0,0,1194,3,neutral,2
40,0.6349206349206349,49.98183,39.62914142435345,87.73205831598204,0,1.1976535075532178,1.1976062248632044,1.2207698023462314,-0.023163577993237264,0,0,0,0,0,0,0,1195,3,neutral,2
41,0.6507936507936507,54.01932,42.41213752729405,88.4641638225256,0,1.1980741963186516,1.1980346099943486,1.220725111288549,-0.022690501815775845,0,0,0,0,0,0,0,1196,3,neutral,2
42,0.6666666666666666,52.12301,41.882572619843536,89.24058426097682,0,1.198490255799782,1.1984611914891692,1.220680657416378,-0.02221946646021602,0,0,0,0,0,0,0,1197,3,neutral,2
43,0.6825396825396826,45.74063,38.214553081916144,90.05790760519882,0,1.1989067155920097,1.1988913283748261,1.2206364391150724,-0.021745111284751893,0,0,0,0,0,0,0,1198,3,neutral,2
44,0.6984126984126984,38.03442,32.78332921954142,90.91247876363238,0,1.1993286052907373,1.1993299311816623,1.2205924547570866,-0.02126252413149507,0,0,0,0,0,0,0,1199,3,neutral,2
45,0.7142857142857142,32.03973,27.28981083348623,91.80035416803305,0,1.1997609544913665,1.1997812164030377,1.2205487027022515,-0.020767486866916863,0,0,0,0,0,0,0,1200,3,neutral,2
46,0.7301587301587301,28.94828,22.836005687713243,92.71725742580406,0,1.2002087927893,1.20024846382583,1.2205051812980565,-0.020256718051629007,0,0,0,0,0,0,0,1201,3,neutral,2
47,0.746031746031746,27.86309,19.463358033587784,93.65853658536585,0,1.2006771497799384,1.2007337918290024,1.2204618888799381,-0.019728097642104928,0,0,0,0,0,0,0,1202,3,neutral,2
48,0.7619047619047619,26.4684,16.352261653912155,94.61912377025112,0,1.2011710550575596,1.2012379655556957,1.2204188237715765,-0.01918085881888413,0,0,0,0,0,0,0,1203,3,neutral,2
49,0.7777777777777777,23.17569,12.495743979128157,95.59349815598962,0,1.2016932705165448,1.2017602516455055,1.2203759842852027,-0.018615733254602553,0,0,0,0,0,0,0,1204,3,neutral,2
50,0.7936507936507936,17.49315,7.425971414272566,96.57565349013217,0,1.202237701777559,1.2022983310011413,1.2203333687219164,-0.01803503834765097,0,0,0,0,0,0,0,1205,3,neutral,2
51,0.8095238095238095,10.23841,1.5911257159877574,97.55907158290933,0,1.2027960927618409,1.2028482780377499,1.220290975372014,-0.01744269797317845,0,0,0,0,0,0,0,1206,3,neutral,2
52,0.8253968253968254,3.247278,0.0,98.53670341371337,0,1.2033601873906288,1.2034046113376067,1.220248802515323,-0.016844191828737917,0,0,0,0,0,0,0,1207,3,neutral,2
53,0.8412698412698412,-1.344515,0.0,99.50095969289828,0,1.2039217295851623,1.203960416973817,1.2202068484215463,-0.016246432110926166,0,0,0,0,0,0,0,1208,3,neutral,2
54,0.8571428571428571,-2.10708,0.0,100.44371287162019,0,1.2044724632666797,1.2045075422805376,1.2201651113506051,-0.015657569745508755,0,0,0,0,0,0,0,1209,3,neutral,2
55,0.873015873015873,0.8963375,0.0,101.35631268329773,0,1.2050041323564202,1.205036854706169,1.2201235895529867,-0.015086735534572236,0,0,0,0,0,0,0,1210,3,neutral,2
56,0.8888888888888888,6.093318,0.0,102.2296173044925,0,1.205508480775622,1.205538557626289,1.2200822812700813,-0.014543724343928874,0,0,0,0,0,0,0,1211,3,neutral,2
57,0.9047619047619047,11.47997,1.8259506468376192,103.0540421145634,0,1.2059772524455246,1.206002552565661,1.2200411847345114,-0.014038632881438813,0,0,0,0,0,0,0,1212,3,neutral,2
58,0.9206349206349206,15.56018,5.673616229108249,103.81962778644427,0,1.2064021912873666,1.2064188351132639,1.220000298170445,-0.013581463782291484,0,0,0,0,0,0,0,1213,3,neutral,2
59,0.9365079365079365,17.78109,8.867048062885942,104.51612903225806,0,1.2067750412223865,1.2067779098746811,1.2199596197938847,-0.013181710656905758,0,0,0,0,0,0,0,1214,3,neutral,2
60,0.9523809523809523,18.84227,12.004982397142744,105.1331247403346,0,1.2070875461718236,1.2070712081270203,1.2199191478129314,-0.012847940436275868,0,0,0,0,0,0,0,1215,3,neutral,2
61,0.9682539682539681,20.43226,16.00432546019005,105.66014946780403,0,1.2073314500569166,1.2072914905446595,1.2198788804280138,-0.012587390646451445,0,0,0,0,0,0,0,1216,3,neutral,2
62,0.9841269841269841,24.34299,21.33865059020361,106.08684530280745,0,1.2074984967989038,1.2074332166517276,1.2198388158320792,-0.012405599956251553,0,0,0,0,0,0,0,1217,3,neutral,2
63,1.0,31.2781,27.437540182113867,106.4031320080581,0,1.2075804303190245,1.2074928627812234,1.219798952210744,-0.012306090218294062,0,0,0,0,0,0,0,1218,3,neutral,2
0,0.0,-25.08499,0.0,52.20203540655558,0,1.2130954398204168,1.2127556116545146,1.1753078422865793,0.036978579062872115,0,0,0,0,0,0,0,4895,5,neutral,4
1,0.015873015873015872,-16.99921,0.0,51.83025591188857,0,1.2082680300036093,1.2079977706636182,1.1753695205916617,0.03215412148995838,0,0,0,0,0,0,0,4896,5,neutral,4
2,0.031746031746031744,-9.960064,0.0,51.46728600375895,0,1.2032936576596427,1.2030843417625015,1.1754303847480223,0.027174867218973768,0,0,0,0,0,0,0,4897,5,neutral,4
3,0.047619047619047616,-4.25902,0.0,51.11327936323237,0,1.1982389105106954,1.1980780747866429,1.175490436395111,0.022103564406126815,0,0,0,0,0,0,0,4898,5,neutral,4
4,0.06349206349206349,0.2324767,0.0,50.76837805856422,0,1.1931703762789443,1.1930479733274055,1.1755496771884077,0.017009214947759824,0,0,0,0,0,0,0,4899,5,neutral,4
5,0.07936507936507936,3.820483,1.204281366876135,50.43271377054702,0,1.1881546426865717,1.1880673961638268,1.1756081087965005,0.011965175915061785,0,0,0,0,0,0,0,4900,5,neutral,4
6,0.09523809523809523,6.78538,3.716929547360552,50.10640897737277,0,1.1832582974557462,1.1832119282303235,1.175665732898151,0.0070470305247104514,0,0,0,0,0,0,0,4901,5,neutral,4
7,0.1111111111111111,9.272342,5.64624604486928,49.78957810033834,0,1.1785479283086495,1.1785571038728084,1.175722551179392,0.0023303113978965923,0,0,0,0,0,0,0,4902,5,neutral,4
8,0.12698412698412698,11.28015,7.1476314878303615,49.482328612063746,0,1.1740901229674594,1.1741760726379917,1.175778565330696,-0.002111833647541153,0,0,0,0,0,0,0,4903,5,neutral,4
9,0.14285714285714285,12.80002,8.304051406379154,49.184762109195866,0,1.1699514691543533,1.1701373027342141,1.1758337770442606,-0.006210938133567108,0,0,0,0,0,0,0,4904,5,neutral,4
10,0.15873015873015872,13.89417,9.158310367114542,48.89697535183889,0,1.1661985545915123,1.1665024192580598,1.1758881880114525,-0.009905378692775052,0,0,0,0,0,0,0,4905,5,neutral,4
11,0.1746031746031746,14.69165,9.741995754582423,48.61906127219341,0,1.1628979670011068,1.163324272561282,1.1759417999204484,-0.013142306699100631,0,0,0,0,0,0,0,4906,5,neutral,4
12,0.19047619047619047,15.32404,10.087584787191863,48.35110995510365,0,1.1601162941053178,1.1606453257412233,1.1759946144541076,-0.015879260775271187,0,0,0,0,0,0,0,4907,5,neutral,4
13,0.20634920634920634,15.8577,10.22934500901473,48.093209593410855,0,1.1579201236263228,1.1584964381936067,1.176046633288108,-0.018085383238148678,0,0,0,0,0,0,0,4908,5,neutral,4
14,0.2222222222222222,16.27272,10.205513410671923,47.845447421196035,0,1.1563664942031875,1.1568961038975467,1.1760978580893702,-0.019742181812136536,0,0,0,0,0,0,0,4909,5,neutral,4
15,0.23809523809523808,16.51305,10.066309853487088,47.6079106281717,0,1.155440158542028,1.1558501789193707,1.176148290514783,-0.020843802124084473,0,0,0,0,0,0,0,4910,5,neutral,4
16,0.25396825396825395,16.56384,9.879270275342751,47.38068725865281,0,1.155092788231476,1.1553521041112043,1.176197932210248,-0.021396805003741803,0,0,0,0,0,0,0,4911,5,neutral,4
17,0.2698412698412698,16.52867,9.71869490570344,47.16386709870879,0,1.1552758836235297,1.1553835990130907,1.17624678481004,-0.021419472580997495,1,0,0,0,0,0,0,4912,5,neutral,4
18,0.2857142857142857,16.58252,9.636134924569692,46.957542555272944,0,1.1559409450701852,1.1559157750888076,1.1762948499364845,-0.020940695049736086,0,0,0,0,0,0,0,4913,5,neutral,4
19,0.30158730158730157,16.83847,9.62715751248337,46.76180953116896,0,1.157039472923438,1.156910593837434,1.1763421291999385,-0.01999851255624987,0,0,0,0,0,0,0,4914,5,neutral,4
20,0.31746031746031744,17.22217,9.6207371590792,46.57676830020984,0,1.1585229675352866,1.1583225800445383,1.176388624199061,-0.018638401948317493,0,0,0,0,0,0,0,4915,5,neutral,4
21,0.3333333333333333,17.51634,9.509956765714433,46.40252438673784,0,1.1603429292577268,1.1601006930548785,1.1764343365213505,-0.01691140550303795,0,0,0,0,0,0,0,4916,5,neutral,4
22,0.3492063492063492,17.54322,9.219151902415316,46.23918945420839,0,1.1624508584427553,1.1621902588748443,1.1764792677439222,-0.014872198825163628,0,0,0,0,0,0,0,4917,5,neutral,4
23,0.36507936507936506,17.30467,8.778879155697162,46.086882207683296,0,1.1647982554423688,1.1645348718394004,1.1765234194344985,-0.012577189181142721,0,0,0,0,0,0,0,4918,5,neutral,4
24,0.38095238095238093,17.0342,8.371749251836016,45.94572931539141,0,1.167336620608561,1.1670781849052698,1.1765667931525794,-0.010082725207105528,0,0,0,0,0,0,0,4919,5,neutral,4
25,0.3968253968253968,17.08647,8.32305642063824,45.8158663548474,0,1.170017454293333,1.169765520798372,1.1766093904507628,-0.007443485762741078,0,0,0,0,0,0,0,4920,5,neutral,4
26,0.4126984126984127,17.88696,9.031983606093815,45.697438789394575,0,1.1727922568486802,1.1725452509461556,1.1766512128761795,-0.004711101000396754,0,0,0,0,0,0,0,4921,5,neutral,4
27,0.42857142857142855,19.77233,10.86046276218807,45.59060298146506,0,1.175612528626598,1.1753699044300128,1.1766922619720137,-0.0019330434141821076,0,0,0,0,0,0,0,4922,5,neutral,4
28,0.4444444444444444,22.96288,14.01067949281838,45.49552724933675,0,1.1784297699790833,1.1781969845404034,1.1767325392790788,0.0008481887135827065,0,0,0,0,0,0,0,4923,5,neutral,4
29,0.4603174603174603,27.40225,18.42750908115151,45.41239297472069,0,1.1811954812581302,1.180989485637488,1.1767720463374225,0.0035955881713993984,0,0,0,0,0,0,0,4924,5,neutral,4
30,0.47619047619047616,32.79916,23.759635144247312,45.34139576914389,0,1.1838644052303458,1.1837161177651856,1.176810784687932,0.00627786343104525,0,0,0,0,0,0,0,4925,5,neutral,4
31,0.49206349206349204,38.62554,29.402430037428243,45.282746707815626,0,1.1864192566673748,1.1863512605918145,1.1768487558739258,0.008869392586628375,0,0,0,0,0,0,0,4926,5,neutral,4
32,0.5079365079365079,44.16534,34.62532748309432,45.23667364048761,0,1.1888570480740541,1.1888746812099782,1.176885961442704,0.011349941152923357,0,0,0,0,0,0,0,4927,5,neutral,4
33,0.5238095238095237,48.60567,38.75682534272929,45.203422589761786,0,1.1911749070241513,1.1912710612161133,1.1769224029470533,0.013704189143419136,0,0,0,0,0,0,0,4928,5,neutral,4
34,0.5396825396825397,51.31161,41.36930834423743,45.18325924837653,0,1.193369961091439,1.1935293862272824,1.1769580819466834,0.015921120585678503,0,0,0,0,0,0,0,4929,5,neutral,4
35,0.5555555555555556,52.07802,42.390699773338234,45.1764705882353,1,1.1954393378496855,1.195642254691396,1.1769930000095963,0.01799333233019472,0,0,0,0,0,0,0,4930,5,neutral,4
36,0.5714285714285714,51.30085,42.08789106453606,45.22643323188924,0,1.1973801648726592,1.1976051621225943,1.1770271587133732,0.019916318284488203,0,0,0,0,0,0,0,4931,5,neutral,4
37,0.5873015873015872,49.70043,40.919062934420026,45.37354923281923,0,1.1991895697341295,1.1994158119574048,1.1770605596463795,0.02168778026806371,0,0,0,0,0,0,0,4932,5,neutral,4
38,0.6031746031746031,47.87336,39.314898556868116,45.614511988230035,0,1.200864680007865,1.2010734957820806,1.1770932044088849,0.023307008238631483,0,0,0,0,0,0,0,4933,5,neutral,4
39,0.6190476190476191,46.06261,37.486557636628845,45.94702653010435,0,1.2024026232676372,1.2025785747397095,1.177125094614095,0.024774361698188294,0,0,0,0,0,0,0,4934,5,neutral,4
40,0.6349206349206349,44.09727,35.3483312787042,46.36968233437701,0,1.2038005270872145,1.2039320816381505,1.1771562318890936,0.02609087180001404,0,0,0,0,0,0,0,4935,5,neutral,4
41,0.6507936507936507,41.52246,32.590428325391564,46.88185194408927,0,1.2050555190403658,1.2051354507993373,1.1771866178756996,0.027257971197123462,0,0,0,0,0,0,0,4936,5,neutral,4
42,0.6666666666666666,37.85898,28.86957787829329,47.48360911266899,0,1.2061647267008606,1.2061903710705937,1.1772162542312348,0.02827734705281567,0,0,0,0,0,0,0,4937,5,neutral,4
43,0.6825396825396826,32.87546,24.033578910074574,48.1756614205888,0,1.207125277642467,1.2070987475425956,1.1772451426292059,0.029150902757958515,0,0,0,0,0,0,0,4938,5,neutral,4
44,0.6984126984126984,26.79907,18.28124844594169,48.95929315292718,0,1.2079342994389564,1.2078627500517143,1.1772732847598997,0.02988080643274005,0,0,0,0,0,0,0,4939,5,neutral,4
45,0.7142857142857142,20.24268,12.184343193205756,49.83631474318082,0,1.2085889196640973,1.208484921902604,1.1773006823308938,0.030469599648746855,0,0,0,0,0,0,0,4940,5,neutral,4
46,0.7301587301587301,14.102,6.549902140219458,50.80901535245876,0,1.209087026967093,1.2089683205752204,1.1773273370674857,0.03092033813555928,0,0,0,0,0,0,0,4941,5,neutral,4
47,0.746031746031746,9.116379,2.159480644644743,51.880115201877565,0,1.2094340261089203,1.2093166633384953,1.177353250713039,0.031236737394083634,0,0,0,0,0,0,0,4942,5,neutral,4
48,0.7619047619047619,5.726646,0.0,53.0527141322607,0,1.2096396055242988,1.2095344542551405,1.1773784250292494,0.03142329970109127,0,0,0,0,0,0,0,4943,5,neutral,4
49,0.7777777777777777,4.044611,0.0,54.33023254084878,0,1.209713503455431,1.2096270743610131,1.1774028617963326,0.0314854042884013,0,1,0,0,0,0,0,4944,5,neutral,4
50,0.7936507936507936,3.641044,0.0,55.71634034489324,0,1.2096654581445185,1.2096008230367679,1.1774265628131382,0.03142934871442164,0,0,0,0,0,0,0,4945,5,neutral,4
51,0.8095238095238095,3.565825,0.0,57.21486894999228,0,1.2095052078337631,1.209462904975187,1.1774495298971923,0.03126233583144077,0,0,0,0,0,0,0,4946,5,neutral,4
52,0.8253968253968254,2.555148,0.0,58.82970036350689,0,1.2092424907653674,1.2092213630475288,1.177471764884669,0.030992406652008326,0,0,0,0,0,0,0,4947,5,neutral,4
53,0.8412698412698412,-1.244468,0.0,60.56462660758862,0,1.208887045181533,1.2088849623542088,1.1774932696302998,0.030628324399708532,0,0,0,0,0,0,0,4948,5,neutral,4
54,0.8571428571428571,-8.46143,0.0,62.42317148998288,0,1.208448609324462,1.208463034572809,1.177514046007222,0.03017941885732612,0,0,0,0,0,0,0,4949,5,neutral,4
55,0.873015873015873,-17.16581,0.0,64.40836565591103,0,1.2079369214363558,1.2079652943082582,1.1775340959067755,0.029655402717234217,0,0,0,0,0,0,0,4950,5,neutral,4
56,0.8888888888888888,-24.36209,0.0,66.52246479630531,0,1.2073617197594166,1.2074016405330639,1.1775534212382475,0.029066173021882764,0,0,0,0,0,0,0,4951,5,neutral,4
57,0.9047619047619047,-27.98875,0.0,68.76660012986844,0,1.2067327425358476,1.2067819564741318,1.177572023928575,0.028421611050922037,0,0,0,0,0,0,0,4952,5,neutral,4
58,0.9206349206349206,-27.48862,0.0,71.1403501210236,0,1.2060597280078493,1.206115920586572,1.1775899059220087,0.027731393295345987,0,0,0,0,0,0,0,4953,5,neutral,4
59,0.9365079365079365,-23.47618,0.0,73.64122329834669,0,1.2053524144176238,1.2054128396966035,1.1776070691797458,0.027004824600769108,0,0,0,0,0,0,0,4954,5,neutral,4
60,0.9523809523809523,-17.16193,0.0,76.26404463024919,0,1.2046205400073733,1.2046815131399142,1.1776235156795352,0.026250702306183912,0,0,0,0,0,0,0,4955,5,neutral,4
61,0.9682539682539681,-9.862715,0.0,79.00024302348207,0,1.2038738430193001,1.2039301339157118,1.1776392474152622,0.025477217398432193,0,0,0,0,0,0,0,4956,5,neutral,4
62,0.9841269841269841,-2.644784,0.0,81.83704614171508,0,1.2031217197083937,1.2031662296806698,1.1776542663965164,0.02469189550658507,0,0,0,0,0,0,0,4957,5,neutral,4
63,1.0,3.01172,2.0313894089093156,84.75660199671792,0,1.2023696789454887,1.2023966430136805,1.1776685746481488,0.02390157716714422,0,0,0,0,0,0,0,4958,5,neutral,4
