timestamp,value,norm_ts
1618826274.74907,-57.4353,0.16006994247436523
1618826274.7647,-72.2164,0.17569994926452637
1618826274.78032,-85.75665,0.19131994247436523
1618826274.79595,-98.40811,0.20694994926452637
1618826274.81158,-110.8495,0.2225799560546875
1618826274.8272,-123.9505,0.23819994926452637
1618826274.84283,-138.5674,0.2538299560546875
1618826274.85845,-155.2765,0.26944994926452637
1618826274.87408,-173.887,0.2850799560546875
1618826274.8897,-192.9127,0.30069994926452637
1618826274.90533,-209.279,0.3163299560546875
1618826274.92096,-218.7581,0.33195996284484863
1618826274.93658,-217.0791,0.3475799560546875
1618826274.95221,-201.2867,0.36320996284484863
1618826274.96783,-170.7921,0.3788299560546875
1618826274.98346,-127.5984,0.39445996284484863
1618826274.99908,-75.58069,0.4100799560546875
1618826275.01471,-19.40607,0.42570996284484863
1618826275.03034,36.49985,0.44133996963500977
1618826275.04596,88.3949,0.45695996284484863
1618826275.06159,133.3271,0.47258996963500977
1618826275.07721,168.9875,0.48820996284484863
1618826275.09284,193.7601,0.5038399696350098
1618826275.10846,207.0274,0.5194599628448486
1618826275.12409,209.3322,0.5350899696350098
1618826275.13972,202.3438,0.5507199764251709
1618826275.15534,188.3549,0.5663399696350098
1618826275.17097,169.775,0.5819699764251709
1618826275.18659,148.6091,0.5975899696350098
1618826275.20222,126.4068,0.6132199764251709
1618826275.21784,104.3871,0.6288399696350098
1618826275.23347,83.63641,0.6444699764251709
1618826275.2491,65.17877,0.660099983215332
1618826275.26472,49.85959,0.6757199764251709
1618826275.28035,38.18195,0.691349983215332
1618826275.29597,30.18298,0.7069699764251709
1618826275.3116,25.51172,0.722599983215332
1618826275.32722,23.53238,0.7382199764251709
1618826275.34285,23.48831,0.753849983215332
1618826275.35848,24.56512,0.7694799900054932
1618826275.3741,25.85413,0.785099983215332
1618826275.38973,26.31067,0.8007299900054932
1618826275.40535,24.7991,0.816349983215332
1618826275.42098,20.33441,0.8319799900054932
1618826275.4366,12.3353,0.847599983215332
1618826275.45223,0.8864746,0.8632299900054932
1618826275.46786,-13.27805,0.8788599967956543
1618826275.48348,-29.04028,0.8944799900054932
1618826275.49911,-45.24207,0.9101099967956543
1618826275.51473,-61.048,0.9257299900054932
1618826275.53036,-76.03537,0.9413599967956543
1618826275.54598,-90.24634,0.9569799900054932
1618826275.56161,-104.0385,0.9726099967956543
1618826275.57724,-118.0524,0.9882400035858154
1618826275.59286,-133.1568,1.0038599967956543
1618826275.60849,-150.1804,1.0194900035858154
1618826275.62411,-169.2846,1.0351099967956543
1618826275.63974,-189.2445,1.0507400035858154
1618826275.65536,-207.114,1.0663599967956543
1618826275.67099,-218.4688,1.0819900035858154
1618826275.68662,-218.6888,1.0976200103759766
1618826275.70224,-204.4713,1.1132400035858154
1618826275.71787,-175.1353,1.1288700103759766
1618826275.73349,-132.8227,1.1444900035858154
1618826275.74912,-81.76135,1.1601200103759766
1618826275.76474,-26.85776,1.1757400035858154
1618826275.78037,27.49741,1.1913700103759766
1618826275.796,77.88043,1.2070000171661377
1618826275.81162,121.817,1.2226200103759766
1618826275.82725,157.3651,1.2382500171661377
1618826275.84287,183.0014,1.2538700103759766
1618826275.8585,197.8075,1.2695000171661377
1618826275.87412,201.8782,1.2851200103759766
1618826275.88975,196.4135,1.3007500171661377
1618826275.90538,183.4571,1.3163800239562988
1618826275.921,165.4161,1.3320000171661377
1618826275.93663,144.4344,1.3476300239562988
1618826275.95225,122.2421,1.3632500171661377
1618826275.96788,100.1759,1.3788800239562988
1618826275.9835,79.36288,1.3945000171661377
1618826275.99913,60.74652,1.4101300239562988
1618826276.01476,45.10132,1.42576003074646
1618826276.03038,32.93973,1.4413800239562988
1618826276.04601,24.36804,1.45701003074646
1618826276.06163,19.26416,1.4726300239562988
1618826276.07726,17.22766,1.48826003074646
1618826276.09288,17.70618,1.5038800239562988
1618826276.10851,19.87619,1.51951003074646
1618826276.12414,22.57806,1.535140037536621
1618826276.13976,24.3168,1.55076003074646
1618826276.15539,23.50977,1.566390037536621
1618826276.17101,18.89951,1.58201003074646
1618826276.18664,9.973907,1.597640037536621
1618826276.20226,-2.809753,1.61326003074646
1618826276.21789,-18.23047,1.628890037536621
1618826276.23352,-34.64484,1.6445200443267822
1618826276.24914,-50.60822,1.660140037536621
1618826276.26477,-65.2706,1.6757700443267822
1618826276.28039,-78.4646,1.691390037536621
1618826276.29602,-90.70758,1.7070200443267822
1618826276.31164,-102.8839,1.722640037536621
1618826276.32727,-116.114,1.7382700443267822
1618826276.3429,-131.4725,1.7539000511169434
1618826276.35852,-149.5638,1.7695200443267822
1618826276.37415,-169.7728,1.7851500511169434
1618826276.38977,-189.7079,1.8007700443267822
1618826276.4054,-205.2361,1.8164000511169434
1618826276.42102,-211.3134,1.8320200443267822
1618826276.43665,-203.6133,1.8476500511169434
1618826276.45228,-180.1527,1.8632800579071045
1618826276.4679,-142.1196,1.8789000511169434
1618826276.48353,-93.4248,1.8945300579071045
1618826276.49915,-39.39301,1.9101500511169434
1618826276.51478,14.90207,1.9257800579071045
1618826276.53041,65.71085,1.9414100646972656
1618826276.54603,110.671,1.9570300579071045
1618826276.56166,148.2586,1.9726600646972656
1618826276.57728,177.165,1.9882800579071045
1618826276.59291,196.1007,2.0039100646972656
1618826276.60853,204.1802,2.0195300579071045
1618826276.62416,201.5844,2.0351600646972656
1618826276.63979,189.7737,2.0507900714874268
1618826276.65541,171.2207,2.0664100646972656
1618826276.67104,148.6769,2.0820400714874268
1618826276.68666,124.4782,2.0976600646972656
1618826276.70229,100.2653,2.1132900714874268
1618826276.71791,77.05176,2.1289100646972656
1618826276.73354,55.50018,2.1445400714874268
1618826276.74917,36.25613,2.160170078277588
1618826276.76479,20.13235,2.1757900714874268
1618826276.78042,7.896088,2.191420078277588
1618826276.79604,0.07177734,2.2070400714874268
1618826276.81167,-3.328644,2.222670078277588
1618826276.82729,-2.957611,2.2382900714874268
1618826276.84292,-0.08450317,2.253920078277588
1618826276.85855,3.556183,2.269550085067749
1618826276.87417,6.146423,2.285170078277588
1618826276.8898,6.076721,2.300800085067749
1618826276.90542,2.39624,2.316420078277588
1618826276.92105,-5.04422,2.332050085067749
1618826276.93667,-15.5899,2.347670078277588
1618826276.9523,-28.08377,2.363300085067749
1618826276.96793,-41.33383,2.37893009185791
1618826276.98355,-54.40793,2.394550085067749
1618826276.99918,-66.91394,2.41018009185791
1618826277.0148,-79.0098,2.425800085067749
1618826277.03043,-91.26236,2.44143009185791
1618826277.04605,-104.5609,2.457050085067749
1618826277.06168,-119.898,2.47268009185791
1618826277.07731,-137.9524,2.4883100986480713
1618826277.09293,-158.2942,2.50393009185791
1618826277.10856,-178.8889,2.5195600986480713
1618826277.12418,-195.9065,2.53518009185791
1618826277.13981,-204.4869,2.5508100986480713
1618826277.15543,-200.2795,2.56643009185791
1618826277.17106,-180.9761,2.5820600986480713
1618826277.18669,-147.1684,2.5976901054382324
1618826277.20231,-102.1497,2.6133100986480713
1618826277.21794,-50.67166,2.6289401054382324
1618826277.23356,2.503632,2.6445600986480713
1618826277.24919,53.52686,2.6601901054382324
1618826277.26481,99.66412,2.6758100986480713
1618826277.28044,138.9118,2.6914401054382324
1618826277.29607,169.507,2.7070701122283936
1618826277.31169,189.9541,2.7226901054382324
1618826277.32732,199.4735,2.7383201122283936
1618826277.34294,198.4006,2.7539401054382324
1618826277.35857,188.3006,2.7695701122283936
1618826277.37419,171.5829,2.7851901054382324
1618826277.38982,150.7371,2.8008201122283936
1618826277.40545,127.8345,2.8164501190185547
1618826277.42107,104.3755,2.8320701122283936
1618826277.4367,81.45428,2.8477001190185547
1618826277.45232,60.0527,2.8633201122283936
1618826277.46795,41.21838,2.8789501190185547
1618826277.48357,26.01074,2.8945701122283936
1618826277.4992,15.27631,2.9102001190185547
1618826277.51483,9.395844,2.925830125808716
1618826277.53045,7.98111,2.9414501190185547
1618826277.54608,9.857666,2.957080125808716
1618826277.5617,13.19501,2.9727001190185547
1618826277.57733,15.84497,2.988330125808716
1618826277.59295,15.87723,3.0039501190185547
1618826277.60858,12.10388,3.019580125808716
1618826277.62421,4.310364,3.035209894180298
1618826277.63983,-6.738586,3.050830125808716
1618826277.65546,-19.73907,3.066459894180298
1618826277.67108,-33.39117,3.082080125808716
1618826277.68671,-46.87067,3.097709894180298
1618826277.70233,-60.0769,3.113330125808716
1618826277.71796,-73.55728,3.128959894180298
1618826277.73359,-88.19336,3.144589900970459
1618826277.74921,-104.9095,3.160209894180298
1618826277.76484,-124.2748,3.175839900970459
1618826277.78046,-146.0567,3.191459894180298
1618826277.79609,-168.7128,3.207089900970459
1618826277.81171,-189.2484,3.222709894180298
1618826277.82734,-203.4745,3.238339900970459
1618826277.84297,-207.0008,3.25396990776062
1618826277.85859,-196.6044,3.269589900970459
1618826277.87422,-171.3106,3.28521990776062
1618826277.88984,-132.7466,3.300839900970459
1618826277.90547,-84.66272,3.31646990776062
1618826277.92109,-31.74802,3.332089900970459
1618826277.93672,21.47678,3.34771990776062
1618826277.95235,71.28464,3.3633499145507812
1618826277.96797,114.8427,3.37896990776062
1618826277.9836,149.9538,3.3945999145507812
1618826277.99922,174.9929,3.41021990776062
1618826278.01485,188.9668,3.4258499145507812
1618826278.03047,191.8528,3.44146990776062
1618826278.0461,184.7084,3.4570999145507812
1618826278.06173,169.4702,3.4727299213409424
1618826278.07735,148.4829,3.4883499145507812
1618826278.09298,124.0502,3.5039799213409424
1618826278.1086,98.16077,3.5195999145507812
1618826278.12423,72.504,3.5352299213409424
1618826278.13985,48.61826,3.5508499145507812
1618826278.15548,27.84915,3.5664799213409424
1618826278.17111,11.31845,3.5821099281311035
1618826278.18673,-0.2459106,3.5977299213409424
1618826278.20236,-6.681793,3.6133599281311035
1618826278.21798,-8.529175,3.6289799213409424
1618826278.23361,-6.930573,3.6446099281311035
1618826278.24923,-3.561157,3.6602299213409424
1618826278.26486,-0.3587952,3.6758599281311035
1618826278.28049,0.9412231,3.6914899349212646
1618826278.29611,-0.8729858,3.7071099281311035
1618826278.31174,-6.169952,3.7227399349212646
1618826278.32736,-14.56818,3.7383599281311035
1618826278.34299,-25.15686,3.7539899349212646
1618826278.35861,-36.98279,3.7696099281311035
1618826278.37424,-49.37286,3.7852399349212646
1618826278.38987,-62.18338,3.800869941711426
1618826278.40549,-75.68863,3.8164899349212646
1618826278.42112,-90.48032,3.832119941711426
1618826278.43674,-107.2468,3.8477399349212646
1618826278.45237,-126.5088,3.863369941711426
1618826278.46799,-148.1833,3.8789899349212646
1618826278.48362,-171.0039,3.894619941711426
1618826278.49925,-192.1376,3.910249948501587
1618826278.51487,-207.3572,3.925869941711426
1618826278.5305,-212.0698,3.941499948501587
1618826278.54612,-202.6266,3.957119941711426
1618826278.56175,-177.6472,3.972749948501587
1618826278.57737,-138.4261,3.988369941711426
1618826278.593,-88.42511,4.003999948501587
1618826278.60863,-32.14288,4.019629955291748
1618826278.62425,25.92435,4.035249948501587
1618826278.63988,81.85867,4.050879955291748
1618826278.6555,132.2508,4.066499948501587
1618826278.67113,174.0972,4.082129955291748
1618826278.68675,204.9066,4.097749948501587
1618826278.70238,223.1153,4.113379955291748
1618826278.71801,228.6358,4.129009962081909
1618826278.73363,223.0509,4.144629955291748
1618826278.74926,209.1047,4.160259962081909
1618826278.76488,189.9706,4.175879955291748
1618826278.78051,168.4046,4.191509962081909
1618826278.79613,146.3266,4.207129955291748
1618826278.81176,124.9349,4.222759962081909
1618826278.82739,105.0593,4.23838996887207
1618826278.84301,87.3819,4.254009962081909
1618826278.85864,72.65401,4.26963996887207
1618826278.87426,61.52864,4.285259962081909
1618826278.88989,54.27638,4.30088996887207
1618826278.90551,50.69019,4.316509962081909
1618826278.92114,49.92447,4.33213996887207
1618826278.93677,50.58435,4.3477699756622314
1618826278.95239,50.93611,4.36338996887207
1618826278.96802,49.3002,4.3790199756622314
1618826278.98364,44.27646,4.39463996887207
1618826278.99927,35.08154,4.4102699756622314
1618826279.01489,21.48094,4.42588996887207
1618826279.03052,3.646484,4.4415199756622314
1618826279.04615,-17.86586,4.457149982452393
1618826279.06177,-42.18494,4.4727699756622314
1618826279.0774,-68.10213,4.488399982452393
1618826279.09302,-94.17119,4.5040199756622314
1618826279.10865,-119.0763,4.519649982452393
1618826279.12428,-142.1859,4.535279989242554
1618826279.1399,-163.7423,4.550899982452393
1618826279.15553,-184.623,4.566529989242554
1618826279.17115,-205.2727,4.582149982452393
1618826279.18678,-224.5502,4.597779989242554
1618826279.2024,-239.1675,4.613399982452393
1618826279.21803,-244.3357,4.629029989242554
1618826279.23366,-235.4625,4.644659996032715
1618826279.24928,-210.0168,4.660279989242554
1618826279.26491,-168.6085,4.675909996032715
1618826279.28053,-114.5515,4.691529989242554
1618826279.29616,-52.56953,4.707159996032715
1618826279.31178,12.5256,4.722779989242554
1618826279.32741,76.46103,4.738409996032715
1618826279.34304,135.1675,4.754040002822876
1618826279.35866,184.4141,4.769659996032715
1618826279.37429,219.8856,4.785290002822876
1618826279.38991,238.3083,4.800909996032715
1618826279.40554,238.7337,4.816540002822876
1618826279.42116,223.3842,4.832159996032715
1618826279.43679,197.0044,4.847790002822876
1618826279.45242,165.1892,4.863420009613037
1618826279.46804,132.4559,4.879040002822876
1618826279.48367,101.1694,4.894670009613037
1618826279.49929,71.87234,4.910290002822876
1618826279.51492,44.57129,4.925920009613037
1618826279.53054,20.10844,4.941540002822876
1618826279.54617,0.6375885,4.957170009613037
1618826279.5618,-11.02602,4.972800016403198
1618826279.57742,-12.92351,4.988420009613037
1618826279.59305,-5.209778,5.004050016403198
1618826279.60867,9.359619,5.019670009613037
1618826279.6243,25.96875,5.035300016403198
1618826279.63992,39.32843,5.050920009613037
1618826279.65555,45.21886,5.066550016403198
1618826279.67118,41.61053,5.082180023193359
1618826279.6868,28.78783,5.097800016403198
1618826279.70243,8.804428,5.113430023193359
1618826279.71805,-15.56558,5.129050016403198
1618826279.73368,-41.62375,5.144680023193359
1618826279.7493,-67.15559,5.160300016403198
1618826279.76493,-90.65042,5.175930023193359
1618826279.78056,-111.2519,5.1915600299835205
1618826279.79618,-128.8089,5.207180023193359
1618826279.81181,-143.8354,5.2228100299835205
1618826279.82743,-157.2181,5.238430023193359
1618826279.84306,-169.4977,5.2540600299835205
1618826279.85868,-179.9679,5.269680023193359
1618826279.87431,-186.2403,5.2853100299835205
1618826279.88994,-184.6198,5.300940036773682
1618826279.90556,-171.5991,5.3165600299835205
1618826279.92119,-145.4906,5.332190036773682
1618826279.93681,-107.7624,5.3478100299835205
1618826279.95244,-62.96939,5.363440036773682
1618826279.96806,-17.41602,5.3790600299835205
1618826279.98369,22.98384,5.394690036773682
1618826279.99932,54.38164,5.410320043563843
1618826280.01494,75.68968,5.425940036773682
1618826280.03057,88.02049,5.441570043563843
1618826280.04619,93.38565,5.457190036773682
1618826280.06182,93.80106,5.472820043563843
1618826280.07744,90.75513,5.488440036773682
1618826280.09307,85.55446,5.504070043563843
1618826280.1087,79.71779,5.519700050354004
1618826280.12432,75.10384,5.535320043563843
1618826280.13995,73.54582,5.550950050354004
1618826280.15557,76.32121,5.566570043563843
1618826280.1712,83.63124,5.582200050354004
1618826280.18682,94.47765,5.597820043563843
1618826280.20245,107.1835,5.613450050354004
1618826280.21808,119.9411,5.629080057144165
1618826280.2337,131.5657,5.644700050354004
1618826280.24933,141.7785,5.660330057144165
1618826280.26495,151.0756,5.675950050354004
1618826280.28058,160.2629,5.691580057144165
1618826280.2962,169.8956,5.707200050354004
1618826280.31183,179.7874,5.722830057144165
1618826280.32746,188.8893,5.738460063934326
1618826280.34308,195.6004,5.754080057144165
1618826280.35871,198.1872,5.769710063934326
1618826280.37433,195.3812,5.785330057144165
1618826280.38996,186.7636,5.800960063934326
1618826280.40558,172.8372,5.816580057144165
1618826280.42121,154.7567,5.832210063934326
1618826280.43684,133.9932,5.847840070724487
1618826280.45246,111.8147,5.863460063934326
1618826280.46809,88.9632,5.879090070724487
1618826280.48371,65.48886,5.894710063934326
1618826280.49934,40.7674,5.910340070724487
1618826280.51496,13.47272,5.925960063934326
1618826280.53059,-18.17075,5.941590070724487
1618826280.54622,-55.95605,5.957220077514648
1618826280.56184,-100.6617,5.972840070724487
1618826280.57747,-150.7802,5.988470077514648
1618826280.59309,-201.6321,6.004090070724487
1618826280.60872,-245.5116,6.019720077514648
1618826280.62434,-273.2871,6.035340070724487
1618826280.63997,-277.131,6.050970077514648
1618826280.6556,-253.208,6.06660008430481
1618826280.67122,-203.3164,6.082220077514648
1618826280.68685,-134.6162,6.09785008430481
1618826280.70247,-57.53583,6.113470077514648
1618826280.7181,17.12488,6.12910008430481
1618826280.73372,80.77194,6.144720077514648
1618826280.74935,128.3888,6.16035008430481
1618826280.76498,158.4816,6.175980091094971
1618826280.7806,172.0171,6.19160008430481
1618826280.79623,171.3059,6.207230091094971
1618826280.81185,159.1136,6.22285008430481
1618826280.82748,138.3165,6.238480091094971
1618826280.8431,111.9003,6.25410008430481
1618826280.85873,82.95334,6.269730091094971
1618826280.87436,54.46881,6.285360097885132
1618826280.88998,29.06421,6.300980091094971
1618826280.90561,8.593506,6.316610097885132
1618826280.92123,-6.132568,6.332230091094971
1618826280.93686,-15.30688,6.347860097885132
1618826280.95248,-19.85095,6.363480091094971
1618826280.96811,-20.91357,6.379110097885132
1618826280.98374,-19.53845,6.394740104675293
1618826280.99936,-16.53119,6.410360097885132
1618826281.01499,-12.71594,6.425990104675293
1618826281.03061,-9.213806,6.441610097885132
1618826281.04624,-7.617554,6.457240104675293
1618826281.06186,-9.776611,6.472860097885132
1618826281.07749,-17.14026,6.488490104675293
1618826281.09312,-30.25684,6.504120111465454
1618826281.10874,-48.26007,6.519740104675293
1618826281.12437,-69.12299,6.535370111465454
1618826281.13999,-90.37836,6.550990104675293
1618826281.15562,-110.0155,6.566620111465454
1618826281.17124,-127.364,6.582240104675293
1618826281.18687,-143.3998,6.597870111465454
1618826281.2025,-160.2705,6.613500118255615
1618826281.21812,-180.2137,6.629120111465454
1618826281.23375,-204.1516,6.644750118255615
1618826281.24937,-230.4791,6.660370111465454
1618826281.265,-254.9072,6.676000118255615
1618826281.28062,-271.3308,6.691620111465454
1618826281.29625,-273.6683,6.707250118255615
1618826281.31188,-258.0101,6.722880125045776
1618826281.3275,-224.0622,6.738500118255615
1618826281.34313,-175.3145,6.754130125045776
1618826281.35875,-117.9193,6.769750118255615
1618826281.37438,-58.84625,6.785380125045776
1618826281.39001,-4.131592,6.8010101318359375
1618826281.40563,42.04834,6.816630125045776
1618826281.42126,77.43323,6.8322601318359375
1618826281.43688,101.2187,6.847880125045776
1618826281.45251,113.4752,6.8635101318359375
1618826281.46813,114.93,6.879130125045776
1618826281.48376,106.9379,6.8947601318359375
1618826281.49939,91.50946,6.9103899002075195
1618826281.51501,71.18207,6.9260101318359375
1618826281.53064,48.62299,6.9416399002075195
1618826281.54626,26.16809,6.9572601318359375
1618826281.56189,5.56543,6.9728899002075195
1618826281.57751,-12.12714,6.9885101318359375
1618826281.59314,-26.375,7.0041399002075195
1618826281.60877,-36.94403,7.019769906997681
1618826281.62439,-43.73816,7.0353899002075195
1618826281.64002,-46.73962,7.051019906997681
1618826281.65564,-46.1142,7.0666399002075195
1618826281.67127,-42.36206,7.082269906997681
1618826281.68689,-36.48688,7.0978899002075195
1618826281.70252,-29.93854,7.113519906997681
1618826281.71815,-24.34576,7.129149913787842
1618826281.73377,-21.09277,7.144769906997681
1618826281.7494,-20.992,7.160399913787842
1618826281.76502,-24.05768,7.176019906997681
1618826281.78065,-29.67047,7.191649913787842
1618826281.79627,-36.97601,7.207269906997681
1618826281.8119,-45.2337,7.222899913787842
1618826281.82753,-54.19775,7.238529920578003
1618826281.84315,-64.23981,7.254149913787842
1618826281.85878,-76.1521,7.269779920578003
1618826281.8744,-90.74854,7.285399913787842
1618826281.89003,-108.2527,7.301029920578003
1618826281.90565,-127.6086,7.316649913787842
1618826281.92128,-146.162,7.332279920578003
1618826281.93691,-159.9149,7.347909927368164
1618826281.95253,-164.3454,7.363529920578003
1618826281.96816,-155.7326,7.379159927368164
1618826281.98378,-132.373,7.394779920578003
1618826281.99941,-95.24323,7.410409927368164
1618826282.01503,-47.83801,7.426029920578003
1618826282.03066,4.744202,7.441659927368164
1618826282.04629,57.11969,7.457289934158325
1618826282.06191,104.6786,7.472909927368164
1618826282.07754,144.1226,7.488539934158325
1618826282.09316,173.5738,7.504159927368164
1618826282.10879,192.2098,7.519789934158325
1618826282.12441,199.9986,7.535409927368164
1618826282.14004,197.4843,7.551039934158325
1618826282.15567,185.7048,7.566669940948486
1618826282.17129,166.1945,7.582289934158325
1618826282.18692,140.9677,7.597919940948486
1618826282.20254,112.303,7.613539934158325
1618826282.21817,82.59009,7.629169940948486
1618826282.23379,54.12561,7.644789934158325
1618826282.24942,28.8844,7.660419940948486
1618826282.26505,8.306549,7.6760499477386475
1618826282.28067,-6.794434,7.691669940948486
1618826282.2963,-16.3678,7.7072999477386475
1618826282.31192,-21.09064,7.722919940948486
1618826282.32755,-22.13531,7.7385499477386475
1618826282.34317,-21.03665,7.754169940948486
1618826282.3588,-19.38107,7.7697999477386475
1618826282.37443,-18.48706,7.785429954528809
1618826282.39005,-19.32687,7.8010499477386475
1618826282.40568,-22.44583,7.816679954528809
1618826282.4213,-27.99146,7.8322999477386475
1618826282.43693,-35.86832,7.847929954528809
1618826282.45255,-45.8475,7.8635499477386475
1618826282.46818,-57.65704,7.879179954528809
1618826282.48381,-71.2121,7.89480996131897
1618826282.49943,-86.64236,7.910429954528809
1618826282.51506,-104.1249,7.92605996131897
1618826282.53068,-123.5652,7.941679954528809
1618826282.54631,-143.9299,7.95730996131897
1618826282.56193,-162.8182,7.972929954528809
1618826282.57756,-176.5246,7.98855996131897
1618826282.59319,-180.8056,8.00418996810913
1618826282.60881,-172.0857,8.01980996131897
1618826282.62444,-148.6944,8.03543996810913
1618826282.64006,-111.4699,8.05105996131897
1618826282.65569,-63.5531,8.06668996810913
1618826282.67131,-9.588287,8.08230996131897
1618826282.68694,45.4082,8.09793996810913
1618826282.70257,96.89563,8.113569974899292
1618826282.71819,141.2262,8.12918996810913
1618826282.73382,175.7846,8.144819974899292
1618826282.74944,198.9166,8.16043996810913
1618826282.76507,209.9393,8.176069974899292
1618826282.78069,209.2006,8.19168996810913
1618826282.79632,197.9893,8.207319974899292
1618826282.81195,178.3144,8.222949981689453
1618826282.82757,152.6069,8.238569974899292
1618826282.8432,123.4304,8.254199981689453
1618826282.85882,93.2879,8.269819974899292
1618826282.87445,64.52548,8.285449981689453
1618826282.89007,39.16989,8.301069974899292
1618826282.9057,18.69775,8.316699981689453
1618826282.92133,3.87146,8.332329988479614
1618826282.93695,-5.437408,8.347949981689453
1618826282.95258,-10.11539,8.363579988479614
1618826282.9682,-11.5546,8.379199981689453
1618826282.98383,-11.30069,8.394829988479614
1618826282.99945,-10.7373,8.410449981689453
1618826283.01508,-10.91818,8.426079988479614
1618826283.03071,-12.53653,8.441709995269775
1618826283.04633,-15.98668,8.457329988479614
1618826283.06196,-21.44685,8.472959995269775
1618826283.07758,-28.92125,8.488579988479614
1618826283.09321,-38.28981,8.504209995269775
1618826283.10883,-49.42186,8.519829988479614
1618826283.12446,-62.35857,8.535459995269775
1618826283.14009,-77.36176,8.551090002059937
1618826283.15571,-94.78697,8.566709995269775
1618826283.17134,-114.5561,8.582340002059937
1618826283.18696,-135.4621,8.597959995269775
1618826283.20259,-154.6831,8.613590002059937
1618826283.21821,-168.0411,8.629209995269775
1618826283.23384,-170.9482,8.644840002059937
1618826283.24947,-159.86,8.660470008850098
1618826283.26509,-133.5058,8.676090002059937
1618826283.28072,-93.35822,8.691720008850098
1618826283.29634,-43.13945,8.707340002059937
1618826283.31197,12.20172,8.722970008850098
1618826283.32759,67.69861,8.738590002059937
1618826283.34322,119.024,8.754220008850098
1618826283.35885,162.7656,8.769850015640259
1618826283.37447,196.3423,8.785470008850098
1618826283.3901,218.0243,8.801100015640259
1618826283.40572,227.0803,8.816720008850098
1618826283.42135,224.0089,8.832350015640259
1618826283.43697,210.5186,8.847970008850098
1618826283.4526,189.1281,8.863600015640259
1618826283.46823,162.6894,8.87923002243042
1618826283.48385,133.8114,8.894850015640259
1618826283.49948,104.6579,8.91048002243042
1618826283.5151,76.96994,8.926100015640259
1618826283.53073,52.14461,8.94173002243042
1618826283.54636,31.34035,8.957360029220581
1618826283.56198,15.35048,8.97298002243042
1618826283.57761,4.440582,8.988610029220581
1618826283.59323,-1.79705,9.00423002243042
1618826283.60886,-4.383255,9.019860029220581
1618826283.62448,-4.828018,9.03548002243042
1618826283.64011,-4.802231,9.051110029220581
1618826283.65574,-5.722244,9.066740036010742
1618826283.67136,-8.563797,9.082360029220581
1618826283.68699,-13.70845,9.097990036010742
1618826283.70261,-21.01994,9.113610029220581
1618826283.71824,-30.06245,9.129240036010742
1618826283.73386,-40.37814,9.144860029220581
1618826283.74949,-51.55502,9.160490036010742
1618826283.76512,-63.45235,9.176120042800903
1618826283.78074,-76.13626,9.191740036010742
1618826283.79637,-89.91379,9.207370042800903
1618826283.81199,-105.4382,9.222990036010742
1618826283.82762,-123.3371,9.238620042800903
1618826283.84324,-143.7305,9.254240036010742
1618826283.85887,-165.3867,9.269870042800903
1618826283.8745,-185.3457,9.285500049591064
1618826283.89012,-199.1021,9.301120042800903
1618826283.90575,-201.8236,9.316750049591064
1618826283.92137,-189.9933,9.332370042800903
1618826283.937,-162.6639,9.348000049591064
1618826283.95262,-121.7188,9.363620042800903
1618826283.96825,-70.90942,9.379250049591064
1618826283.98388,-14.5877,9.394880056381226
1618826283.9995,43.39132,9.410500049591064
1618826284.01513,99.81201,9.426130056381226
1618826284.03075,151.5763,9.441750049591064
1618826284.04638,195.242,9.457380056381226
1618826284.062,227.2086,9.473000049591064
1618826284.07763,244.6861,9.488630056381226
1618826284.09326,246.8234,9.504260063171387
1618826284.10888,235.3427,9.519880056381226
1618826284.12451,214.069,9.535510063171387
1618826284.14013,187.6567,9.551130056381226
1618826284.15576,160.2061,9.566760063171387
1618826284.17138,134.4173,9.582380056381226
1618826284.18701,111.4637,9.598010063171387
1618826284.20264,91.5916,9.613640069961548
1618826284.21826,74.74294,9.629260063171387
1618826284.23389,60.97024,9.644890069961548
1618826284.24951,50.49192,9.660510063171387
1618826284.26514,43.48689,9.676140069961548
1618826284.28076,39.73133,9.691760063171387
1618826284.29639,38.44956,9.707390069961548
1618826284.31202,38.31438,9.723020076751709
1618826284.32764,37.6186,9.738640069961548
1618826284.34327,34.77983,9.754270076751709
1618826284.35889,28.73262,9.769890069961548
1618826284.37452,19.17835,9.785520076751709
1618826284.39014,6.602999,9.801140069961548
1618826284.40577,-7.972857,9.816770076751709
1618826284.4214,-23.402,9.83240008354187
1618826284.43702,-38.76863,9.848020076751709
1618826284.45265,-53.65084,9.86365008354187
1618826284.46827,-68.11735,9.879270076751709
1618826284.4839,-82.5937,9.89490008354187
1618826284.49952,-97.79856,9.910520076751709
1618826284.51515,-114.5599,9.92615008354187
1618826284.53078,-133.4111,9.941780090332031
1618826284.5464,-153.9985,9.95740008354187
1618826284.56203,-174.4432,9.973030090332031
1618826284.57765,-191.1335,9.98865008354187
1618826284.59328,-199.3386,10.004280090332031
1618826284.6089,-194.4785,10.01990008354187
1618826284.62453,-173.6451,10.035530090332031
1618826284.64016,-136.7495,10.051160097122192
1618826284.65578,-86.65282,10.066780090332031
1618826284.67141,-28.28673,10.082410097122192
1618826284.68703,32.64567,10.098030090332031
1618826284.70266,90.92368,10.113660097122192
1618826284.71828,142.4613,10.129280090332031
1618826284.73391,184.3352,10.144910097122192
1618826284.74954,214.6049,10.160540103912354
1618826284.76516,232.1204,10.176160097122192
1618826284.78079,236.6065,10.191790103912354
1618826284.79641,228.8561,10.207410097122192
1618826284.81204,210.7666,10.223040103912354
1618826284.82766,185.1505,10.238660097122192
1618826284.84329,155.2875,10.254290103912354
1618826284.85892,124.3759,10.269920110702515
1618826284.87454,95.11542,10.285540103912354
1618826284.89017,69.46892,10.301170110702515
1618826284.90579,48.42169,10.316790103912354
1618826284.92142,32.19537,10.332420110702515
1618826284.93704,20.36562,10.348040103912354
1618826284.95267,12.264,10.363670110702515
1618826284.9683,7.238548,10.379300117492676
1618826284.98392,4.750046,10.394920110702515
1618826284.99955,4.423119,10.410550117492676
1618826285.01517,5.723694,10.426170110702515
1618826285.0308,7.769524,10.441800117492676
1618826285.04642,9.280334,10.457420110702515
1618826285.06205,8.752213,10.473050117492676
1618826285.07768,4.883804,10.488680124282837
1618826285.0933,-2.992661,10.504300117492676
1618826285.10893,-14.67575,10.519930124282837
1618826285.12455,-29.08273,10.535550117492676
1618826285.14018,-44.67146,10.551180124282837
1618826285.1558,-59.91766,10.566800117492676
1618826285.17143,-73.81206,10.582430124282837
1618826285.18706,-86.03259,10.598060131072998
1618826285.20268,-96.92432,10.613680124282837
1618826285.21831,-107.2962,10.629310131072998
1618826285.23393,-118.2419,10.644930124282837
1618826285.24956,-130.9044,10.660560131072998
1618826285.26518,-146.0969,10.676180124282837
1618826285.28081,-163.6652,10.691810131072998
1618826285.29644,-181.8368,10.70743989944458
1618826285.31206,-197.0023,10.723060131072998
1618826285.32769,-204.2428,10.73868989944458
1618826285.34331,-198.6337,10.754310131072998
1618826285.35894,-176.948,10.76993989944458
1618826285.37456,-138.8823,10.785560131072998
1618826285.39019,-87.40088,10.80118989944458
1618826285.40582,-27.90689,10.816819906234741
1618826285.42144,33.28195,10.83243989944458
1618826285.43707,90.38092,10.848069906234741
1618826285.45269,139.1409,10.86368989944458
1618826285.46832,176.9708,10.879319906234741
1618826285.48394,202.6595,10.89493989944458
1618826285.49957,215.8671,10.910569906234741
1618826285.5152,216.9592,10.926199913024902
1618826285.53082,206.9307,10.941819906234741
1618826285.54645,187.5072,10.957449913024902
1618826285.56207,161.1819,10.973069906234741
1618826285.5777,131.0273,10.988699913024902
1618826285.59332,100.2437,11.004319906234741
1618826285.60895,71.70602,11.019949913024902
1618826285.62458,47.43089,11.035579919815063
1618826285.6402,28.29617,11.051199913024902
1618826285.65583,14.13849,11.066829919815063
1618826285.67145,4.110565,11.082449913024902
1618826285.68708,-2.68898,11.098079919815063
1618826285.7027,-6.803146,11.113699913024902
1618826285.71833,-8.35968,11.129329919815063
1618826285.73396,-7.362259,11.144959926605225
1618826285.74958,-4.199036,11.160579919815063
1618826285.76521,-0.001876831,11.176209926605225
1618826285.78083,3.461746,11.191829919815063
1618826285.79646,4.259216,11.207459926605225
1618826285.81208,0.960495,11.223079919815063
1618826285.82771,-6.80867,11.238709926605225
1618826285.84334,-18.20685,11.254339933395386
1618826285.85896,-31.60767,11.269959926605225
1618826285.87459,-45.17378,11.285589933395386
1618826285.89021,-57.5446,11.301209926605225
1618826285.90584,-68.18576,11.316839933395386
1618826285.92146,-77.40288,11.332459926605225
1618826285.93709,-86.12733,11.348089933395386
1618826285.95272,-95.58827,11.363719940185547
1618826285.96834,-107.0257,11.379339933395386
1618826285.98397,-121.2988,11.394969940185547
1618826285.99959,-138.4437,11.410589933395386
1618826286.01522,-157.0001,11.426219940185547
1618826286.03084,-173.7549,11.441839933395386
1618826286.04647,-183.9878,11.457469940185547
1618826286.0621,-182.7445,11.473099946975708
1618826286.07772,-166.4223,11.488719940185547
1618826286.09335,-134.2721,11.504349946975708
1618826286.10897,-88.81081,11.519969940185547
1618826286.1246,-35.146,11.535599946975708
1618826286.14022,20.68814,11.551219940185547
1618826286.15585,73.37813,11.566849946975708
1618826286.17148,119.2494,11.58247995376587
1618826286.1871,156.2126,11.598099946975708
1618826286.20273,183.1359,11.61372995376587
1618826286.21835,199.1928,11.629349946975708
1618826286.23398,203.7563,11.64497995376587
1618826286.24961,196.7925,11.66060996055603
1618826286.26523,179.3414,11.67622995376587
1618826286.28086,153.7708,11.69185996055603
1618826286.29648,123.4732,11.70747995376587
1618826286.31211,92.15436,11.72310996055603
1618826286.32773,62.99796,11.73872995376587
1618826286.34336,38.21439,11.75435996055603
1618826286.35899,18.75531,11.769989967346191
1618826286.37461,4.605225,11.78560996055603
1618826286.39024,-4.894836,11.801239967346191
1618826286.40586,-10.5842,11.81685996055603
1618826286.42149,-13.17352,11.832489967346191
1618826286.43711,-13.16238,11.84810996055603
1618826286.45274,-10.96698,11.863739967346191
1618826286.46837,-7.152344,11.879369974136353
1618826286.48399,-2.689362,11.894989967346191
1618826286.49962,1.051422,11.910619974136353
1618826286.51524,2.560974,11.926239967346191
1618826286.53087,0.6266785,11.941869974136353
1618826286.54649,-5.206238,11.957489967346191
1618826286.56212,-14.37741,11.973119974136353
1618826286.57775,-25.57687,11.988749980926514
1618826286.59337,-37.19583,12.004369974136353
1618826286.609,-47.94647,12.019999980926514
1618826286.62462,-57.28482,12.035619974136353
1618826286.64025,-65.51254,12.051249980926514
1618826286.65587,-73.59427,12.066869974136353
1618826286.6715,-82.73758,12.082499980926514
1618826286.68713,-94.1535,12.098129987716675
1618826286.70275,-108.6552,12.113749980926514
1618826286.71838,-126.2737,12.129379987716675
1618826286.734,-145.6219,12.144999980926514
1618826286.74963,-163.6159,12.160629987716675
1618826286.76525,-175.6527,12.176249980926514
1618826286.78088,-176.6816,12.191879987716675
1618826286.79651,-162.859,12.207509994506836
1618826286.81213,-132.9651,12.223129987716675
1618826286.82776,-89.12503,12.238759994506836
1618826286.84338,-36.16257,12.254379987716675
1618826286.85901,19.81689,12.270009994506836
1618826286.87463,73.14517,12.285629987716675
1618826286.89026,119.5828,12.301259994506836
1618826286.90589,156.5837,12.316890001296997
1618826286.92151,182.7973,12.332509994506836
1618826286.93714,197.5055,12.348140001296997
1618826286.95276,200.4995,12.363759994506836
1618826286.96839,192.2111,12.379390001296997
1618826286.98401,174.1427,12.395009994506836
1618826286.99964,148.8041,12.410640001296997
1618826287.01527,119.448,12.426270008087158
1618826287.03089,89.35956,12.441890001296997
1618826287.04652,61.23044,12.457520008087158
1618826287.06214,36.78406,12.473140001296997
1618826287.07777,16.71808,12.488770008087158
1618826287.09339,1.008636,12.504390001296997
1618826287.10902,-10.66974,12.520020008087158
1618826287.12465,-18.61841,12.53565001487732
1618826287.14027,-22.96719,12.551270008087158
1618826287.1559,-23.84244,12.56690001487732
1618826287.17152,-21.67017,12.582520008087158
1618826287.18715,-17.4249,12.59815001487732
1618826287.20277,-12.7276,12.613770008087158
1618826287.2184,-9.490082,12.62940001487732
1618826287.23403,-9.334473,12.64503002166748
1618826287.24965,-13.08102,12.66065001487732
1618826287.26528,-20.44839,12.67628002166748
1618826287.2809,-30.20731,12.69190001487732
1618826287.29653,-40.74088,12.70753002166748
1618826287.31215,-50.71228,12.72315001487732
1618826287.32778,-59.49783,12.73878002166748
1618826287.34341,-67.39902,12.754410028457642
1618826287.35903,-75.40952,12.77003002166748
1618826287.37466,-84.88388,12.785660028457642
1618826287.39028,-97.13443,12.80128002166748
1618826287.40591,-112.9006,12.816910028457642
1618826287.42153,-131.7172,12.83253002166748
1618826287.43716,-151.4344,12.848160028457642
1618826287.45279,-168.0911,12.863790035247803
1618826287.46841,-176.5496,12.879410028457642
1618826287.48404,-171.8896,12.895040035247803
1618826287.49966,-151.0707,12.910660028457642
1618826287.51529,-114.1846,12.926290035247803
1618826287.53091,-64.68155,12.941910028457642
1618826287.54654,-8.406158,12.957540035247803
1618826287.56217,48.13376,12.973170042037964
1618826287.57779,99.35312,12.988790035247803
1618826287.59342,141.4884,13.004420042037964
1618826287.60904,172.6466,13.020040035247803
1618826287.62467,192.216,13.035670042037964
1618826287.64029,200.2751,13.051290035247803
1618826287.65592,197.3786,13.066920042037964
1618826287.67155,184.5898,13.082550048828125
1618826287.68717,163.7947,13.098170042037964
1618826287.7028,137.6248,13.113800048828125
1618826287.71842,109.0666,13.129420042037964
1618826287.73405,80.87567,13.145050048828125
1618826287.74967,55.02655,13.160670042037964
1618826287.7653,32.47824,13.176300048828125
1618826287.78093,13.32782,13.191930055618286
1618826287.79655,-2.700256,13.207550048828125
1618826287.81218,-15.80847,13.223180055618286
1618826287.8278,-25.74994,13.238800048828125
1618826287.84343,-32.05322,13.254430055618286
1618826287.85905,-34.36877,13.270050048828125
1618826287.87468,-32.96051,13.285680055618286
1618826287.89031,-29.00381,13.301310062408447
1618826287.90593,-24.47079,13.316930055618286
1618826287.92156,-21.55374,13.332560062408447
1618826287.93718,-21.97205,13.348180055618286
1618826287.95281,-26.45047,13.363810062408447
1618826287.96843,-34.45212,13.379430055618286
1618826287.98406,-44.56979,13.395060062408447
1618826287.99969,-55.07999,13.410690069198608
1618826288.01531,-64.6109,13.426310062408447
1618826288.03094,-72.62326,13.441940069198608
1618826288.04656,-79.58136,13.457560062408447
1618826288.06219,-86.73172,13.473190069198608
1618826288.07781,-95.7832,13.488810062408447
1618826288.09344,-108.3516,13.504440069198608
1618826288.10907,-125.121,13.52007007598877
1618826288.12469,-145.0507,13.535690069198608
1618826288.14032,-164.9721,13.55132007598877
1618826288.15594,-179.8261,13.566940069198608
1618826288.17157,-183.9054,13.58257007598877
1618826288.18719,-172.6754,13.598190069198608
1618826288.20282,-144.3878,13.61382007598877
1618826288.21845,-100.8839,13.62945008277893
1618826288.23407,-47.03482,13.64507007598877
1618826288.2497,10.75092,13.66070008277893
1618826288.26532,66.32474,13.67632007598877
1618826288.28095,114.988,13.69195008277893
1618826288.29657,153.8339,13.70757007598877
1618826288.3122,181.3804,13.72320008277893
1618826288.32783,197.0592,13.738830089569092
1618826288.34345,200.9243,13.75445008277893
1618826288.35908,193.7191,13.770080089569092
1618826288.3747,177.0303,13.78570008277893
1618826288.39033,153.3596,13.801330089569092
1618826288.40596,125.6621,13.816960096359253
1618826288.42158,96.87949,13.832580089569092
1618826288.43721,69.39221,13.848210096359253
1618826288.45283,44.75522,13.863830089569092
1618826288.46846,23.65921,13.879460096359253
1618826288.48408,6.18692,13.895080089569092
1618826288.49971,-7.772247,13.910710096359253
1618826288.51534,-18.24023,13.926340103149414
1618826288.53096,-24.99268,13.941960096359253
1618826288.54659,-27.77081,13.957590103149414
1618826288.56221,-26.65689,13.973210096359253
1618826288.57784,-22.45773,13.988840103149414
1618826288.59346,-16.77167,14.004460096359253
1618826288.60909,-11.85034,14.020090103149414
1618826288.62472,-9.906281,14.035720109939575
1618826288.64034,-12.44638,14.051340103149414
1618826288.65597,-19.75458,14.066970109939575
1618826288.67159,-30.88272,14.082590103149414
1618826288.68722,-44.05972,14.098220109939575
1618826288.70284,-57.42355,14.113840103149414
1618826288.71847,-69.70096,14.129470109939575
1618826288.7341,-80.48987,14.145100116729736
1618826288.74972,-90.32303,14.160720109939575
1618826288.76535,-100.3486,14.176350116729736
1618826288.78097,-112.0,14.191970109939575
1618826288.7966,-126.4991,14.207600116729736
1618826288.81222,-144.3032,14.223220109939575
1618826288.82785,-164.4141,14.238850116729736
1618826288.84348,-184.0398,14.254480123519897
1618826288.8591,-198.8619,14.270100116729736
1618826288.87473,-204.0473,14.285730123519897
1618826288.89035,-195.8156,14.301350116729736
1618826288.90598,-172.8477,14.316980123519897
1618826288.9216,-136.6497,14.332600116729736
1618826288.93723,-90.80777,14.348230123519897
1618826288.95286,-39.49921,14.363860130310059
1618826288.96848,13.75018,14.379480123519897
1618826288.98411,66.40472,14.395110130310059
1618826288.99973,116.3898,14.410730123519897
1618826289.01536,161.1796,14.426360130310059
1618826289.03098,197.5836,14.441980123519897
1618826289.04661,222.2156,14.457610130310059
1618826289.06224,232.7027,14.47323989868164
1618826289.07786,228.6274,14.488860130310059
1618826289.09349,211.8185,14.50448989868164
1618826289.10911,185.8124,14.520110130310059
1618826289.12474,154.8233,14.53573989868164
1618826289.14036,122.9166,14.551360130310059
1618826289.15599,93.46408,14.56698989868164
1618826289.17162,68.99582,14.582619905471802
1618826289.18724,51.13699,14.59823989868164
1618826289.20287,40.67664,14.613869905471802
1618826289.21849,37.61215,14.62948989868164
1618826289.23412,41.49051,14.645119905471802
1618826289.24974,51.68274,14.66073989868164
1618826289.26537,67.53592,14.676369905471802
1618826289.281,88.26288,14.691999912261963
1618826289.29662,112.6294,14.707619905471802
1618826289.31225,138.7815,14.723249912261963
1618826289.32787,164.2591,14.738869905471802
1618826289.3435,186.285,14.754499912261963
1618826289.35912,202.1998,14.770119905471802
1618826289.37475,209.9315,14.785749912261963
1618826289.39038,208.5134,14.801379919052124
1618826289.406,198.2536,14.816999912261963
1618826289.42163,180.8042,14.832629919052124
1618826289.43725,158.8607,14.848249912261963
1618826289.45288,135.5941,14.863879919052124
1618826289.4685,113.9181,14.879499912261963
1618826289.48413,95.90851,14.895129919052124
1618826289.49976,82.53845,14.910759925842285
1618826289.51538,73.93964,14.926379919052124
1618826289.53101,69.94501,14.942009925842285
1618826289.54663,70.32285,14.957629919052124
1618826289.56226,74.8587,14.973259925842285
1618826289.57788,82.94791,14.988879919052124
1618826289.59351,93.1123,15.004509925842285
1618826289.60914,102.9403,15.020139932632446
1618826289.62476,109.5901,15.035759925842285
1618826289.64039,110.7021,15.051389932632446
1618826289.65601,105.2737,15.067009925842285
1618826289.67164,94.00543,15.082639932632446
1618826289.68726,78.7644,15.098259925842285
1618826289.70289,61.68402,15.113889932632446
1618826289.71852,44.02014,15.129519939422607
1618826289.73414,25.53122,15.145139932632446
1618826289.74977,4.563965,15.160769939422607
1618826289.76539,-21.3316,15.176389932632446
1618826289.78102,-54.6424,15.192019939422607
1618826289.79664,-97.42712,15.207639932632446
1618826289.81227,-150.9447,15.223269939422607
1618826289.8279,-215.1786,15.238899946212769
1618826289.84352,-287.9905,15.254519939422607
1618826289.85915,-364.6196,15.270149946212769
1618826289.87477,-437.7972,15.285769939422607
1618826289.8904,-499.1677,15.301399946212769
1618826289.90602,-541.6782,15.317019939422607
1618826289.92165,-561.7922,15.332649946212769
1618826289.93728,-560.5585,15.34827995300293
1618826289.9529,-542.7375,15.363899946212769
1618826289.96853,-514.7096,15.37952995300293
1618826289.98415,-482.0563,15.395149946212769
1618826289.99978,-448.3182,15.41077995300293
1618826290.0154,-415.1862,15.426399946212769
1618826290.03103,-383.4292,15.44202995300293
1618826290.04666,-353.8919,15.45765995979309
1618826290.06228,-327.4413,15.47327995300293
1618826290.07791,-304.3149,15.48890995979309
1618826290.09353,-283.1688,15.50452995300293
1618826290.10916,-261.0549,15.52015995979309
1618826290.12478,-234.2118,15.53577995300293
1618826290.14041,-199.8511,15.55140995979309
1618826290.15604,-157.8617,15.567039966583252
1618826290.17166,-111.536,15.58265995979309
1618826290.18729,-67.25897,15.598289966583252
1618826290.20291,-32.67596,15.61390995979309
1618826290.21854,-14.18567,15.629539966583252
1618826290.23416,-14.57562,15.64515995979309
1618826290.24979,-31.71188,15.660789966583252
1618826290.26542,-58.92328,15.676419973373413
1618826290.28104,-87.03583,15.692039966583252
1618826290.29667,-107.3491,15.707669973373413
1618826290.31229,-114.1916,15.723289966583252
1618826290.32792,-106.2524,15.738919973373413
1618826290.34354,-86.02313,15.754539966583252
1618826290.35917,-58.04575,15.770169973373413
1618826290.3748,-26.81021,15.785799980163574
1618826290.39042,4.72377,15.801419973373413
1618826290.40605,35.5551,15.817049980163574
1618826290.42167,66.11546,15.832669973373413
1618826290.4373,97.23581,15.848299980163574
1618826290.45292,129.1499,15.863919973373413
1618826290.46855,160.7607,15.879549980163574
1618826290.48418,189.7061,15.895179986953735
1618826290.4998,212.9301,15.910799980163574
1618826290.51543,227.6986,15.926429986953735
1618826290.53105,232.6209,15.942049980163574
1618826290.54668,228.0937,15.957679986953735
1618826290.5623,216.1991,15.973299980163574
1618826290.57793,199.8436,15.988929986953735
1618826290.59356,181.7124,16.004559993743896
1618826290.60918,163.5924,16.020179986953735
1618826290.62481,146.4002,16.035809993743896
1618826290.64043,130.7535,16.051429986953735
1618826290.65606,117.5829,16.067059993743896
1618826290.67168,108.2472,16.082679986953735
1618826290.68731,104.006,16.098309993743896
1618826290.70294,105.0518,16.113940000534058
1618826290.71856,109.9602,16.129559993743896
1618826290.73419,115.8712,16.145190000534058
1618826290.74981,119.577,16.160809993743896
1618826290.76544,118.7682,16.176440000534058
1618826290.78106,112.8837,16.192059993743896
1618826290.79669,103.0754,16.207690000534058
1618826290.81232,91.35397,16.22332000732422
1618826290.82794,79.48349,16.238940000534058
1618826290.84357,68.17163,16.25457000732422
1618826290.85919,56.90085,16.270190000534058
1618826290.87482,44.46744,16.28582000732422
1618826290.89044,29.69803,16.301440000534058
1618826290.90607,12.15897,16.31707000732422
1618826290.9217,-7.810089,16.33270001411438
1618826290.93732,-29.44513,16.34832000732422
1618826290.95295,-52.03308,16.36395001411438
1618826290.96857,-75.07156,16.37957000732422
1618826290.9842,-97.88956,16.39520001411438
1618826290.99983,-119.0274,16.41083002090454
1618826291.01545,-135.8834,16.42645001411438
1618826291.03108,-145.0931,16.44208002090454
1618826291.0467,-143.536,16.45770001411438
1618826291.06233,-129.6483,16.47333002090454
1618826291.07795,-104.1117,16.48895001411438
1618826291.09358,-69.53357,16.50458002090454
1618826291.10921,-29.3338,16.520210027694702
1618826291.12483,13.51312,16.53583002090454
1618826291.14046,56.9541,16.551460027694702
1618826291.15608,99.51215,16.56708002090454
1618826291.17171,139.369,16.582710027694702
1618826291.18733,173.7734,16.59833002090454
1618826291.20296,199.4208,16.613960027694702
1618826291.21859,213.4907,16.629590034484863
1618826291.23421,214.9376,16.645210027694702
1618826291.24984,204.9709,16.660840034484863
1618826291.26546,186.671,16.676460027694702
1618826291.28109,163.7868,16.692090034484863
1618826291.29671,139.5767,16.707710027694702
1618826291.31234,116.1855,16.723340034484863
1618826291.32797,94.73077,16.738970041275024
1618826291.34359,75.89471,16.754590034484863
1618826291.35922,60.37427,16.770220041275024
1618826291.37484,48.96466,16.785840034484863
1618826291.39047,42.3078,16.801470041275024
1618826291.40609,40.39032,16.817090034484863
1618826291.42172,42.33472,16.832720041275024
1618826291.43735,46.45905,16.848350048065186
1618826291.45297,50.60431,16.863970041275024
1618826291.4686,52.75476,16.879600048065186
1618826291.48422,51.52582,16.895220041275024
1618826291.49985,46.48895,16.910850048065186
1618826291.51547,38.10876,16.926470041275024
1618826291.5311,27.38104,16.942100048065186
1618826291.54673,15.35693,16.957730054855347
1618826291.56235,2.809082,16.973350048065186
1618826291.57798,-9.959595,16.988980054855347
1618826291.5936,-23.04333,17.004600048065186
1618826291.60923,-36.74652,17.020230054855347
1618826291.62485,-51.44086,17.035850048065186
1618826291.64048,-67.61987,17.051480054855347
1618826291.65611,-85.75452,17.067110061645508
1618826291.67173,-105.8532,17.082730054855347
1618826291.68736,-127.0054,17.098360061645508
1618826291.70298,-146.8154,17.113980054855347
1618826291.71861,-161.4805,17.129610061645508
1618826291.73423,-166.7386,17.145230054855347
1618826291.74986,-159.2303,17.160860061645508
1618826291.76549,-137.6954,17.17649006843567
1618826291.78111,-103.4459,17.192110061645508
1618826291.79674,-59.77368,17.20774006843567
1618826291.81236,-10.7392,17.223360061645508
1618826291.82799,39.74213,17.23899006843567
1618826291.84361,88.41577,17.254610061645508
1618826291.85924,132.5274,17.27024006843567
1618826291.87487,169.4171,17.28587007522583
1618826291.89049,196.5683,17.30149006843567
1618826291.90612,212.0825,17.31712007522583
1618826291.92174,215.2814,17.33274006843567
1618826291.93737,207.1316,17.34837007522583
1618826291.95299,190.0118,17.36399006843567
1618826291.96862,166.9133,17.37962007522583
1618826291.98425,140.6907,17.39525008201599
1618826291.99987,113.6013,17.41087007522583
1618826292.0155,87.28571,17.42650008201599
1618826292.03112,63.00513,17.44212007522583
1618826292.04675,41.9599,17.45775008201599
1618826292.06237,25.26898,17.47337007522583
1618826292.078,13.75006,17.48900008201599
1618826292.09363,7.583618,17.504630088806152
1618826292.10925,6.008545,17.52025008201599
1618826292.12488,7.485046,17.535880088806152
1618826292.1405,10.00354,17.55150008201599
1618826292.15613,11.58832,17.567130088806152
1618826292.17175,10.83862,17.58275008201599
1618826292.18738,7.197144,17.598380088806152
1618826292.20301,0.8538818,17.614010095596313
1618826292.21863,-7.46936,17.629630088806152
1618826292.23426,-16.92944,17.645260095596313
1618826292.24988,-26.9259,17.660880088806152
1618826292.26551,-37.25171,17.676510095596313
1618826292.28113,-48.13831,17.692130088806152
1618826292.29676,-60.30798,17.707760095596313
1618826292.31239,-74.71027,17.723390102386475
1618826292.32801,-92.14136,17.739010095596313
1618826292.34364,-112.5729,17.754640102386475
1618826292.35926,-134.5164,17.770260095596313
1618826292.37489,-154.7278,17.785890102386475
1618826292.39051,-168.6946,17.801510095596313
1618826292.40614,-171.7561,17.817140102386475
1618826292.42177,-160.5837,17.832770109176636
1618826292.43739,-134.2994,17.848390102386475
1618826292.45302,-94.79224,17.864020109176636
1618826292.46864,-46.16492,17.879640102386475
1618826292.48427,6.403198,17.895270109176636
1618826292.49989,57.85919,17.910890102386475
1618826292.51552,104.0797,17.926520109176636
1618826292.53115,142.1207,17.942150115966797
1618826292.54677,170.1417,17.957770109176636
1618826292.5624,187.249,17.973400115966797
1618826292.57802,193.4007,17.989020109176636
1618826292.59365,189.3563,18.004650115966797
1618826292.60927,176.6469,18.020270109176636
1618826292.6249,157.3009,18.035900115966797
1618826292.64053,133.597,18.051530122756958
1618826292.65615,107.7448,18.067150115966797
1618826292.67178,81.70081,18.082780122756958
1618826292.6874,57.15167,18.098400115966797
1618826292.70303,35.52637,18.114030122756958
1618826292.71865,18.0022,18.129650115966797
1618826292.73428,5.319458,18.145280122756958
1618826292.74991,-2.427246,18.16091012954712
1618826292.76553,-5.950562,18.176530122756958
1618826292.78116,-6.704346,18.19216012954712
1618826292.79678,-6.585205,18.207780122756958
1618826292.81241,-7.400391,18.22341012954712
1618826292.82803,-10.39502,18.239030122756958
1618826292.84366,-15.96228,18.25466012954712
1618826292.85929,-23.71863,18.2702898979187
1618826292.87491,-32.95862,18.28591012954712
1618826292.89054,-43.08179,18.3015398979187
1618826292.90616,-53.93811,18.31716012954712
1618826292.92179,-65.82251,18.3327898979187
1618826292.93741,-79.23682,18.34841012954712
1618826292.95304,-94.79163,18.3640398979187
1618826292.96867,-112.9865,18.379669904708862
1618826292.98429,-134.1442,18.3952898979187
1618826292.99992,-158.0186,18.410919904708862
1618826293.01554,-183.3013,18.4265398979187
1618826293.03117,-207.2098,18.442169904708862
1618826293.04679,-225.6725,18.4577898979187
1618826293.06242,-234.2433,18.473419904708862
1618826293.07805,-229.4445,18.489049911499023
1618826293.09367,-210.1195,18.504669904708862
1618826293.1093,-177.8495,18.520299911499023
1618826293.12492,-136.2937,18.535919904708862
1618826293.14055,-89.70984,18.551549911499023
1618826293.15617,-41.54944,18.567169904708862
1618826293.1718,6.097778,18.582799911499023
1618826293.18743,52.08276,18.598429918289185
1618826293.20305,95.1521,18.614049911499023
1618826293.21868,133.3197,18.629679918289185
1618826293.2343,163.9384,18.645299911499023
1618826293.24993,184.5371,18.660929918289185
1618826293.26556,193.8872,18.676559925079346
1618826293.28118,192.4904,18.692179918289185
1618826293.29681,182.3315,18.707809925079346
1618826293.31243,166.0369,18.723429918289185
1618826293.32806,146.0701,18.739059925079346
1618826293.34368,124.2336,18.754679918289185
1618826293.35931,101.9017,18.770309925079346
1618826293.37494,80.37952,18.785939931869507
1618826293.39056,61.24158,18.801559925079346
1618826293.40619,46.2218,18.817189931869507
1618826293.42181,36.67297,18.832809925079346
1618826293.43744,33.00122,18.848439931869507
1618826293.45306,34.2644,18.864059925079346
1618826293.46869,38.33691,18.879689931869507
1618826293.48432,42.45532,18.895319938659668
1618826293.49994,44.07727,18.910939931869507
1618826293.51557,41.62402,18.926569938659668
1618826293.53119,34.83789,18.942189931869507
1618826293.54682,24.66589,18.957819938659668
1618826293.56244,12.57581,18.973439931869507
1618826293.57807,-0.1043701,18.989069938659668
1618826293.5937,-12.69165,19.00469994544983
1618826293.60932,-25.30896,19.020319938659668
1618826293.62495,-38.66064,19.03594994544983
1618826293.64057,-53.68079,19.051569938659668
1618826293.6562,-71.13989,19.06719994544983
1618826293.67182,-91.32739,19.082819938659668
1618826293.68745,-113.7769,19.09844994544983
1618826293.70308,-137.004,19.11407995223999
1618826293.7187,-158.3304,19.12969994544983
1618826293.73433,-174.1239,19.14532995223999
1618826293.74995,-180.5745,19.16094994544983
1618826293.76558,-174.7197,19.17657995223999
1618826293.7812,-155.5031,19.19219994544983
1618826293.79683,-124.0889,19.20782995223999
1618826293.81246,-83.29016,19.22345995903015
1618826293.82808,-36.29065,19.23907995223999
1618826293.84371,14.37585,19.25470995903015
1618826293.85933,67.11243,19.27032995223999
1618826293.87496,120.522,19.28595995903015
1618826293.89058,172.1644,19.30157995223999
1618826293.90621,218.0582,19.31720995903015
1618826293.92184,253.2047,19.332839965820312
1618826293.93746,273.3306,19.34845995903015
1618826293.95309,276.6443,19.364089965820312
1618826293.96871,264.7545,19.37970995903015
1618826293.98434,241.9558,19.395339965820312
1618826293.99996,213.4723,19.41095995903015
1618826294.01559,183.6188,19.426589965820312
1618826294.03122,154.7386,19.442219972610474
1618826294.04684,127.5792,19.457839965820312
1618826294.06247,102.2445,19.473469972610474
1618826294.07809,79.30396,19.489089965820312
1618826294.09372,60.0813,19.504719972610474
1618826294.10934,46.1051,19.520339965820312
1618826294.12497,38.21802,19.535969972610474
1618826294.1406,35.83154,19.551599979400635
1618826294.15622,36.91675,19.567219972610474
1618826294.17185,38.60742,19.582849979400635
1618826294.18747,38.19739,19.598469972610474
1618826294.2031,33.87012,19.614099979400635
1618826294.21872,25.23303,19.629719972610474
1618826294.23435,13.08752,19.645349979400635
1618826294.24998,-1.123413,19.660979986190796
1618826294.2656,-15.96814,19.676599979400635
1618826294.28123,-30.66528,19.692229986190796
1618826294.29685,-45.22864,19.707849979400635
1618826294.31248,-60.26733,19.723479986190796
1618826294.3281,-76.46057,19.739099979400635
1618826294.34373,-94.22058,19.754729986190796
1618826294.35936,-113.5292,19.770359992980957
1618826294.37498,-134.0598,19.785979986190796
1618826294.39061,-155.426,19.801609992980957
1618826294.40623,-177.0181,19.817229986190796
1618826294.42186,-197.6248,19.832859992980957
1618826294.43748,-214.9989,19.848479986190796
1618826294.45311,-225.8472,19.864109992980957
1618826294.46874,-226.4386,19.879739999771118
1618826294.48436,-213.8658,19.895359992980957
1618826294.49999,-187.1652,19.910989999771118
1618826294.51561,-147.6232,19.926609992980957
1618826294.53124,-98.20947,19.942239999771118
1618826294.54686,-42.35828,19.957859992980957
1618826294.56249,16.89111,19.973489999771118
1618826294.57812,76.95764,19.98912000656128
1618826294.59374,135.0037,20.004739999771118
1618826294.60937,187.345,20.02037000656128
1618826294.62499,229.4706,20.035989999771118
1618826294.64062,257.2314,20.05162000656128
1618826294.65624,268.3417,20.067239999771118
1618826294.67187,263.402,20.08287000656128
1618826294.6875,245.7845,20.09850001335144
1618826294.70312,220.3085,20.11412000656128
1618826294.71875,191.5863,20.12975001335144
1618826294.73437,162.8514,20.14537000656128
1618826294.75,135.7952,20.16100001335144
1618826294.76562,111.1128,20.17662000656128
1618826294.78125,89.36157,20.19225001335144
1618826294.79688,71.35376,20.2078800201416
1618826294.8125,57.95874,20.22350001335144
1618826294.82813,49.67139,20.2391300201416
1618826294.84375,46.1416,20.25475001335144
1618826294.85938,46.20459,20.2703800201416
1618826294.875,48.11743,20.28600001335144
1618826294.89063,50.05896,20.3016300201416
1618826294.90626,50.47888,20.317260026931763
1618826294.92188,48.42871,20.3328800201416
1618826294.93751,43.59473,20.348510026931763
1618826294.95313,36.17932,20.3641300201416
1618826294.96876,26.72327,20.379760026931763
1618826294.98438,15.80066,20.3953800201416
1618826295.00001,3.885132,20.411010026931763
1618826295.01564,-8.738281,20.426640033721924
1618826295.03126,-21.80603,20.442260026931763
1618826295.04689,-35.00354,20.457890033721924
1618826295.06251,-47.91016,20.473510026931763
1618826295.07814,-59.91534,20.489140033721924
1618826295.09376,-70.41321,20.504760026931763
1618826295.10939,-78.9447,20.520390033721924
1618826295.12502,-85.50116,20.536020040512085
1618826295.14064,-90.69885,20.551640033721924
1618826295.15627,-95.9248,20.567270040512085
1618826295.17189,-103.0985,20.582890033721924
1618826295.18752,-113.956,20.598520040512085
1618826295.20314,-129.0463,20.614140033721924
1618826295.21877,-146.8561,20.629770040512085
1618826295.2344,-163.5114,20.645400047302246
1618826295.25002,-173.5381,20.661020040512085
1618826295.26565,-171.4627,20.676650047302246
1618826295.28127,-153.4536,20.692270040512085
1618826295.2969,-118.2852,20.707900047302246
1618826295.31252,-67.33569,20.723520040512085
1618826295.32815,-4.082825,20.739150047302246
1618826295.34378,66.33685,20.754780054092407
1618826295.3594,137.3519,20.770400047302246
1618826295.37503,201.1725,20.786030054092407
1618826295.39065,249.7094,20.801650047302246
1618826295.40628,276.4374,20.817280054092407
1618826295.4219,278.5605,20.832900047302246
1618826295.43753,258.3675,20.848530054092407
1618826295.45316,222.8456,20.86416006088257
1618826295.46878,181.4539,20.879780054092407
1618826295.48441,143.0936,20.89541006088257
1618826295.50003,113.8032,20.911030054092407
1618826295.51566,95.98773,20.92666006088257
1618826295.53129,89.30676,20.94229006767273
1618826295.54691,92.09814,20.95791006088257
1618826295.56254,102.4749,20.97354006767273
1618826295.57816,118.6215,20.98916006088257
1618826295.59379,138.5464,21.00479006767273
1618826295.60941,159.957,21.02041006088257
1618826295.62504,180.5137,21.03604006767273
1618826295.64067,198.5385,21.05167007446289
1618826295.65629,213.3914,21.06729006767273
1618826295.67192,225.3831,21.08292007446289
1618826295.68754,235.1485,21.09854006767273
1618826295.70317,242.8887,21.11417007446289
1618826295.71879,247.8549,21.12979006767273
1618826295.73442,248.4533,21.14542007446289
1618826295.75005,242.9326,21.16105008125305
1618826295.76567,230.185,21.17667007446289
1618826295.7813,210.3079,21.19230008125305
1618826295.79692,184.4011,21.20792007446289
1618826295.81255,154.1323,21.22355008125305
1618826295.82817,120.842,21.23917007446289
1618826295.8438,84.96378,21.25480008125305
1618826295.85943,45.88315,21.270430088043213
1618826295.87505,2.213165,21.28605008125305
1618826295.89068,-47.82504,21.301680088043213
1618826295.9063,-106.0667,21.31730008125305
1618826295.92193,-173.8976,21.332930088043213
1618826295.93755,-251.2762,21.34855008125305
1618826295.95318,-335.5872,21.364180088043213
1618826295.96881,-421.0146,21.379810094833374
1618826295.98443,-499.2653,21.395430088043213
1618826296.00006,-561.6712,21.411060094833374
1618826296.01568,-601.8911,21.426680088043213
1618826296.03131,-617.9264,21.442310094833374
1618826296.04693,-612.4088,21.457930088043213
1618826296.06256,-590.9384,21.473560094833374
1618826296.07819,-559.5482,21.489190101623535
1618826296.09381,-522.6429,21.504810094833374
1618826296.10944,-482.4022,21.520440101623535
1618826296.12506,-439.6748,21.536060094833374
1618826296.14069,-395.257,21.551690101623535
1618826296.15631,-350.5778,21.567310094833374
1618826296.17194,-307.2664,21.582940101623535
1618826296.18757,-266.2092,21.598570108413696
1618826296.20319,-226.7248,21.614190101623535
1618826296.21882,-186.5677,21.629820108413696
1618826296.23444,-142.7963,21.645440101623535
1618826296.25007,-93.21751,21.661070108413696
1618826296.26569,-37.71101,21.676690101623535
1618826296.28132,21.19445,21.692320108413696
1618826296.29695,78.38179,21.707950115203857
1618826296.31257,127.5736,21.723570108413696
1618826296.3282,163.251,21.739200115203857
1618826296.34382,182.6677,21.754820108413696
1618826296.35945,186.825,21.770450115203857
1618826296.37507,179.968,21.786070108413696
1618826296.3907,167.8098,21.801700115203857
1618826296.40633,155.3862,21.81733012199402
1618826296.42195,145.5056,21.832950115203857
1618826296.43758,138.6365,21.84858012199402
1618826296.4532,133.8888,21.864200115203857
1618826296.46883,130.2901,21.87983012199402
1618826296.48445,127.5844,21.895450115203857
1618826296.50008,126.079,21.91108012199402
1618826296.51571,125.9475,21.92671012878418
1618826296.53133,126.5986,21.94233012199402
1618826296.54696,126.6183,21.95796012878418
1618826296.56258,124.3196,21.97358012199402
1618826296.57821,118.438,21.98921012878418
1618826296.59383,108.7121,22.00483012199402
1618826296.60946,95.80352,22.02046012878418
1618826296.62509,80.9588,22.03608989715576
1618826296.64071,65.30755,22.05171012878418
1618826296.65634,49.47224,22.06733989715576
1618826296.67196,33.47917,22.08296012878418
1618826296.68759,16.95284,22.09858989715576
1618826296.70321,-0.5061722,22.11421012878418
1618826296.71884,-19.04325,22.12983989715576
1618826296.73447,-38.34415,22.145469903945923
1618826296.75009,-57.70447,22.16108989715576
1618826296.76572,-76.30531,22.176719903945923
1618826296.78134,-93.61469,22.19233989715576
1618826296.79697,-109.6972,22.207969903945923
1618826296.81259,-125.2574,22.22358989715576
1618826296.82822,-141.4208,22.239219903945923
1618826296.84385,-158.9925,22.254849910736084
1618826296.85947,-177.6669,22.270469903945923
1618826296.8751,-195.4025,22.286099910736084
1618826296.89072,-208.5535,22.301719903945923
1618826296.90635,-212.715,22.317349910736084
1618826296.92197,-204.1283,22.332969903945923
1618826296.9376,-180.9324,22.348599910736084
1618826296.95323,-143.604,22.364229917526245
1618826296.96885,-94.64465,22.379849910736084
1618826296.98448,-37.8229,22.395479917526245
1618826297.0001,22.68111,22.411099910736084
1618826297.01573,82.53159,22.426729917526245
1618826297.03135,137.3052,22.442349910736084
1618826297.04698,182.7393,22.457979917526245
1618826297.06261,215.2223,22.473609924316406
1618826297.07823,232.67,22.489229917526245
1618826297.09386,235.1436,22.504859924316406
1618826297.10948,224.8025,22.520479917526245
1618826297.12511,205.1337,22.536109924316406
1618826297.14073,179.8731,22.551729917526245
1618826297.15636,152.0691,22.567359924316406
1618826297.17199,123.9002,22.582989931106567
1618826297.18761,96.86175,22.598609924316406
1618826297.20324,72.27551,22.614239931106567
1618826297.21886,51.42387,22.629859924316406
1618826297.23449,35.39073,22.645489931106567
1618826297.25011,24.73344,22.661109924316406
1618826297.26574,19.29562,22.676739931106567
1618826297.28137,18.18834,22.69236993789673
1618826297.29699,20.07261,22.707989931106567
1618826297.31262,23.51062,22.72361993789673
1618826297.32824,27.20212,22.739239931106567
1618826297.34387,30.15213,22.75486993789673
1618826297.35949,31.6796,22.770489931106567
1618826297.37512,31.34897,22.78611993789673
1618826297.39075,28.85398,22.80174994468689
1618826297.40637,23.98933,22.81736993789673
1618826297.422,16.63667,22.83299994468689
1618826297.43762,6.822498,22.84861993789673
1618826297.45325,-5.175295,22.86424994468689
1618826297.46887,-18.7974,22.87986993789673
1618826297.4845,-33.36069,22.89549994468689
1618826297.50013,-48.11543,22.91112995147705
1618826297.51575,-62.48582,22.92674994468689
1618826297.53138,-76.1757,22.94237995147705
1618826297.547,-89.24132,22.95799994468689
1618826297.56263,-102.0779,22.97362995147705
1618826297.57825,-115.4269,22.98924994468689
1618826297.59388,-130.1897,23.00487995147705
1618826297.60951,-146.9481,23.020509958267212
1618826297.62513,-165.4989,23.03612995147705
1618826297.64076,-184.2101,23.051759958267212
1618826297.65638,-199.9798,23.06737995147705
1618826297.67201,-208.6827,23.083009958267212
1618826297.68763,-206.3022,23.09862995147705
1618826297.70326,-190.0048,23.114259958267212
1618826297.71889,-158.9887,23.129889965057373
1618826297.73451,-114.5946,23.145509958267212
1618826297.75014,-59.9406,23.161139965057373
1618826297.76576,0.7077332,23.176759958267212
1618826297.78139,62.53351,23.192389965057373
1618826297.79701,120.5613,23.208009958267212
1618826297.81264,170.1314,23.223639965057373
1618826297.82827,207.4443,23.239269971847534
1618826297.84389,230.2074,23.254889965057373
1618826297.85952,238.051,23.270519971847534
1618826297.87514,232.5182,23.286139965057373
1618826297.89077,216.5107,23.301769971847534
1618826297.90639,193.4576,23.317389965057373
1618826297.92202,166.5365,23.333019971847534
1618826297.93765,138.2806,23.348649978637695
1618826297.95327,110.5902,23.364269971847534
1618826297.9689,84.91118,23.379899978637695
1618826297.98452,62.32731,23.395519971847534
1618826298.00015,43.57041,23.411149978637695
1618826298.01577,28.89926,23.426769971847534
1618826298.0314,18.16783,23.442399978637695
1618826298.04703,10.94271,23.458029985427856
1618826298.06265,6.726837,23.473649978637695
1618826298.07828,5.120434,23.489279985427856
1618826298.0939,5.690811,23.504899978637695
1618826298.10953,7.892174,23.520529985427856
1618826298.12516,10.73576,23.536159992218018
1618826298.14078,12.78381,23.551779985427856
1618826298.15641,12.37689,23.567409992218018
1618826298.17203,8.133919,23.583029985427856
1618826298.18766,-0.616539,23.598659992218018
1618826298.20328,-13.48396,23.614279985427856
1618826298.21891,-29.22713,23.629909992218018
1618826298.23454,-46.19371,23.64553999900818
1618826298.25016,-62.87985,23.661159992218018
1618826298.26579,-78.35815,23.67678999900818
1618826298.28141,-92.34669,23.692409992218018
1618826298.29704,-105.0886,23.70803999900818
1618826298.31266,-117.1805,23.723659992218018
1618826298.32829,-129.6243,23.73928999900818
1618826298.34392,-143.666,23.75492000579834
1618826298.35954,-160.4725,23.77053999900818
1618826298.37517,-180.3945,23.78617000579834
1618826298.39079,-202.0799,23.80178999900818
1618826298.40642,-222.0727,23.81742000579834
1618826298.42204,-235.3413,23.83303999900818
1618826298.43767,-236.6814,23.84867000579834
1618826298.4533,-222.4939,23.8643000125885
1618826298.46892,-191.9272,23.87992000579834
1618826298.48455,-146.9661,23.8955500125885
1618826298.50017,-91.56847,23.91117000579834
1618826298.5158,-30.45973,23.9268000125885
1618826298.53142,31.76145,23.94242000579834
1618826298.54705,90.91289,23.9580500125885
1618826298.56268,143.0163,23.973680019378662
1618826298.5783,184.3942,23.9893000125885
1618826298.59393,212.0266,24.004930019378662
1618826298.60955,224.3528,24.0205500125885
1618826298.62518,221.9182,24.036180019378662
1618826298.6408,207.2849,24.0518000125885
1618826298.65643,184.2859,24.067430019378662
1618826298.67206,156.9585,24.083060026168823
1618826298.68768,128.5647,24.098680019378662
1618826298.70331,101.1523,24.114310026168823
1618826298.71893,75.75464,24.129930019378662
1618826298.73456,52.78793,24.145560026168823
1618826298.75018,32.56583,24.161180019378662
1618826298.76581,15.55991,24.176810026168823
1618826298.78144,2.327927,24.192440032958984
1618826298.79706,-6.692963,24.208060026168823
1618826298.81269,-11.44586,24.223690032958984
1618826298.82831,-12.4957,24.239310026168823
1618826298.84394,-11.0489,24.254940032958984
1618826298.85956,-8.69664,24.270560026168823
1618826298.87519,-7.072968,24.286190032958984
1618826298.89082,-7.491928,24.301820039749146
1618826298.90644,-10.65399,24.317440032958984
1618826298.92207,-16.68694,24.333070039749146
1618826298.93769,-25.27761,24.348690032958984
1618826298.95332,-35.92043,24.364320039749146
1618826298.96894,-48.15721,24.379940032958984
1618826298.98457,-61.63457,24.395570039749146
1618826299.0002,-76.04932,24.411200046539307
1618826299.01582,-91.14621,24.426820039749146
1618826299.03145,-106.7552,24.442450046539307
1618826299.04707,-122.9075,24.458070039749146
1618826299.0627,-139.9846,24.473700046539307
1618826299.07832,-158.4254,24.489320039749146
1618826299.09395,-178.1203,24.504950046539307
1618826299.10958,-197.7159,24.520580053329468
1618826299.1252,-214.2394,24.536200046539307
1618826299.14083,-223.4616,24.551830053329468
1618826299.15645,-221.1814,24.567450046539307
1618826299.17208,-204.706,24.583080053329468
1618826299.1877,-173.7622,24.598700046539307
1618826299.20333,-130.5139,24.614330053329468
1618826299.21896,-78.51854,24.62996006011963
1618826299.23458,-21.56859,24.645580053329468
1618826299.25021,36.9345,24.66121006011963
1618826299.26583,93.88985,24.676830053329468
1618826299.28146,145.9444,24.69246006011963
1618826299.29708,189.2257,24.708080053329468
1618826299.31271,219.9367,24.72371006011963
1618826299.32834,235.5132,24.73934006690979
1618826299.34396,235.6812,24.75496006011963
1618826299.35959,222.7286,24.77059006690979
1618826299.37521,200.6616,24.78621006011963
1618826299.39084,173.7078,24.80184006690979
1618826299.40646,145.1639,24.81746006011963
1618826299.42209,116.8766,24.83309006690979
1618826299.43772,89.65944,24.84872007369995
1618826299.45334,64.06274,24.86434006690979
1618826299.46897,40.94785,24.87997007369995
1618826299.48459,21.56057,24.89559006690979
1618826299.50022,7.076813,24.91122007369995
1618826299.51584,-1.939491,24.92684006690979
1618826299.53147,-5.922592,24.94247007369995
1618826299.5471,-6.212112,24.958100080490112
1618826299.56272,-4.764885,24.97372007369995
1618826299.57835,-3.644669,24.989350080490112
1618826299.59397,-4.446777,25.00497007369995
1618826299.6096,-8.013702,25.020600080490112
1618826299.62522,-14.32551,25.03622007369995
1618826299.64085,-22.74248,25.051850080490112
1618826299.65648,-32.39505,25.067480087280273
1618826299.6721,-42.63598,25.083100080490112
1618826299.68773,-53.30512,25.098730087280273
1618826299.70335,-64.73508,25.114350080490112
1618826299.71898,-77.48926,25.129980087280273
1618826299.7346,-92.03244,25.145600080490112
1618826299.75023,-108.5561,25.161230087280273
1618826299.76586,-127.0051,25.176860094070435
1618826299.78148,-147.1601,25.192480087280273
1618826299.79711,-168.5584,25.208110094070435
1618826299.81273,-190.0249,25.223730087280273
1618826299.82836,-209.2746,25.239360094070435
1618826299.84398,-222.9195,25.254980087280273
1618826299.85961,-227.036,25.270610094070435
1618826299.87524,-218.4175,25.286240100860596
1618826299.89086,-195.7792,25.301860094070435
1618826299.90649,-160.2874,25.317490100860596
1618826299.92211,-114.9894,25.333110094070435
1618826299.93774,-63.55602,25.348740100860596
1618826299.95336,-9.06906,25.364360094070435
1618826299.96899,46.26323,25.379990100860596
1618826299.98462,100.5108,25.395620107650757
1618826300.00024,151.0647,25.411240100860596
1618826300.01587,194.2277,25.426870107650757
1618826300.03149,225.8863,25.442490100860596
1618826300.04712,242.872,25.458120107650757
1618826300.06274,244.3228,25.473740100860596
1618826300.07837,232.1746,25.489370107650757
1618826300.094,210.3086,25.505000114440918
1618826300.10962,183.1267,25.520620107650757
1618826300.12525,154.1311,25.536250114440918
1618826300.14087,125.3898,25.551870107650757
1618826300.1565,97.8298,25.567500114440918
1618826300.17212,72.0488,25.583120107650757
1618826300.18775,48.9629,25.598750114440918
1618826300.20338,29.83013,25.61438012123108
1618826300.219,15.90444,25.630000114440918
1618826300.23463,7.717262,25.64563012123108
1618826300.25025,4.665573,25.661250114440918
1618826300.26588,5.037308,25.67688012123108
1618826300.2815,6.479767,25.692500114440918
1618826300.29713,6.635887,25.70813012123108
1618826300.31276,3.895897,25.72376012802124
1618826300.32838,-2.224113,25.73938012123108
1618826300.34401,-11.17695,25.75501012802124
1618826300.35963,-21.70254,25.77063012123108
1618826300.37526,-32.56783,25.78626012802124
1618826300.39089,-43.05116,25.801889896392822
1618826300.40651,-53.19032,25.81751012802124
1618826300.42214,-63.6428,25.833139896392822
1618826300.43776,-75.30507,25.84876012802124
1618826300.45339,-88.88165,25.864389896392822
1618826300.46901,-104.7275,25.88001012802124
1618826300.48464,-122.8171,25.895639896392822
1618826300.50027,-142.6936,25.911269903182983
1618826300.51589,-163.3992,25.926889896392822
1618826300.53152,-183.0125,25.942519903182983
1618826300.54714,-198.6287,25.958139896392822
1618826300.56277,-206.6494,25.973769903182983
1618826300.57839,-203.7158,25.989389896392822
1618826300.59402,-187.8202,26.005019903182983
1618826300.60965,-159.0953,26.020649909973145
1618826300.62527,-119.6971,26.036269903182983
1618826300.6409,-72.80681,26.051899909973145
1618826300.65652,-21.48041,26.067519903182983
1618826300.67215,32.08904,26.083149909973145
1618826300.68777,86.23912,26.098769903182983
1618826300.7034,138.8435,26.114399909973145
1618826300.71903,186.5466,26.130029916763306
1618826300.73465,224.9359,26.145649909973145
1618826300.75028,249.7268,26.161279916763306
1618826300.7659,258.4312,26.176899909973145
1618826300.78153,251.4637,26.192529916763306
1618826300.79715,232.0462,26.208149909973145
1618826300.81278,204.9703,26.223779916763306
1618826300.82841,174.8512,26.239409923553467
1618826300.84403,144.8923,26.255029916763306
1618826300.85966,116.6434,26.270659923553467
1618826300.87528,90.64601,26.286279916763306
1618826300.89091,67.32607,26.301909923553467
1618826300.90653,47.49879,26.317529916763306
1618826300.92216,32.26556,26.333159923553467
1618826300.93779,22.45505,26.348789930343628
1618826300.95341,18.00546,26.364409923553467
1618826300.96904,17.69191,26.380039930343628
1618826300.98466,19.4064,26.395659923553467
1618826301.00029,20.72662,26.411289930343628
1618826301.01591,19.67014,26.426909923553467
1618826301.03154,15.23199,26.442539930343628
1618826301.04717,7.48468,26.45816993713379
1618826301.06279,-2.694534,26.473789930343628
1618826301.07842,-14.15269,26.48941993713379
1618826301.09404,-25.98398,26.505039930343628
1618826301.10967,-37.92026,26.52066993713379
1618826301.12529,-50.28801,26.536289930343628
1618826301.14092,-63.69014,26.55191993713379
1618826301.15655,-78.71187,26.56754994392395
1618826301.17217,-95.59039,26.58316993713379
1618826301.1878,-114.1814,26.59879994392395
1618826301.20342,-134.1603,26.61441993713379
1618826301.21905,-155.0628,26.63004994392395
1618826301.23467,-176.0142,26.64566993713379
1618826301.2503,-195.3158,26.66129994392395
1618826301.26593,-210.1947,26.67692995071411
1618826301.28155,-217.0844,26.69254994392395
1618826301.29718,-212.5689,26.70817995071411
1618826301.3128,-194.6027,26.72379994392395
1618826301.32843,-163.2999,26.73942995071411
1618826301.34405,-120.8511,26.75504994392395
1618826301.35968,-70.59872,26.77067995071411
1618826301.37531,-15.83517,26.786309957504272
1618826301.39093,40.82581,26.80192995071411
1618826301.40656,97.06763,26.817559957504272
1618826301.42218,150.1364,26.83317995071411
1618826301.43781,196.2036,26.848809957504272
1618826301.45343,230.8577,26.86442995071411
1618826301.46906,250.3804,26.880059957504272
1618826301.48469,253.2941,26.895689964294434
1618826301.50031,241.1511,26.911309957504272
1618826301.51594,218.0385,26.926939964294434
1618826301.53156,189.0757,26.942559957504272
1618826301.54719,158.6886,26.958189964294434
1618826301.56281,129.622,26.973809957504272
1618826301.57844,102.9564,26.989439964294434
1618826301.59407,78.94104,27.005069971084595
1618826301.60969,57.79913,27.020689964294434
1618826301.62532,40.23737,27.036319971084595
1618826301.64094,27.19455,27.051939964294434
1618826301.65657,19.33591,27.067569971084595
1618826301.67219,16.44485,27.083189964294434
1618826301.68782,17.2753,27.098819971084595
1618826301.70345,19.81677,27.114449977874756
1618826301.71907,21.80905,27.130069971084595
1618826301.7347,21.3847,27.145699977874756
1618826301.75032,17.5535,27.161319971084595
1618826301.76595,10.27509,27.176949977874756
1618826301.78157,0.2445984,27.192569971084595
1618826301.7972,-11.51929,27.208199977874756
1618826301.81283,-24.20425,27.223829984664917
1618826301.82845,-37.42126,27.239449977874756
1618826301.84408,-51.21893,27.255079984664917
1618826301.8597,-65.82013,27.270699977874756
1618826301.87533,-81.35999,27.286329984664917
1618826301.89095,-97.76236,27.301949977874756
1618826301.90658,-114.9025,27.317579984664917
1618826301.92221,-132.8123,27.333209991455078
1618826301.93783,-151.6905,27.348829984664917
1618826301.95346,-171.3806,27.364459991455078
1618826301.96908,-190.7512,27.380079984664917
1618826301.98471,-207.1732,27.395709991455078
1618826302.00033,-216.7695,27.411329984664917
1618826302.01596,-215.4699,27.426959991455078
1618826302.03159,-200.4762,27.44258999824524
1618826302.04721,-171.2763,27.458209991455078
1618826302.06284,-129.7576,27.47383999824524
1618826302.07846,-79.29813,27.489459991455078
1618826302.09409,-23.42108,27.50508999824524
1618826302.10971,34.81213,27.520709991455078
1618826302.12534,92.72614,27.53633999824524
1618826302.14097,147.2524,27.5519700050354
1618826302.15659,194.5151,27.56758999824524
1618826302.17222,230.163,27.5832200050354
1618826302.18784,250.6191,27.59883999824524
1618826302.20347,254.465,27.6144700050354
1618826302.21909,243.1446,27.63008999824524
1618826302.23472,220.5211,27.6457200050354
1618826302.25035,191.4212,27.66135001182556
1618826302.26597,160.2016,27.6769700050354
1618826302.2816,129.7873,27.69260001182556
1618826302.29722,101.7394,27.7082200050354
1618826302.31285,76.79343,27.72385001182556
1618826302.32847,55.53033,27.7394700050354
1618826302.3441,38.67651,27.75510001182556
1618826302.35973,26.91183,27.770730018615723
1618826302.37535,20.50427,27.78635001182556
1618826302.39098,18.92682,27.801980018615723
1618826302.4066,20.94778,27.81760001182556
1618826302.42223,24.73856,27.833230018615723
1618826302.43785,28.28317,27.84885001182556
1618826302.45348,29.80362,27.864480018615723
1618826302.46911,28.08798,27.880110025405884
1618826302.48473,22.64639,27.895730018615723
1618826302.50036,13.69547,27.911360025405884
1618826302.51598,2.002533,27.926980018615723
1618826302.53161,-11.55145,27.942610025405884
1618826302.54723,-26.17957,27.958230018615723
1618826302.56286,-41.4115,27.973860025405884
1618826302.57849,-57.07767,27.989490032196045
1618826302.59411,-73.11072,28.005110025405884
1618826302.60974,-89.371,28.020740032196045
1618826302.62536,-105.7015,28.036360025405884
1618826302.64099,-122.1201,28.051990032196045
1618826302.65662,-138.924,28.067620038986206
1618826302.67224,-156.6262,28.083240032196045
1618826302.68787,-175.2843,28.098870038986206
1618826302.70349,-193.8269,28.114490032196045
1618826302.71912,-209.5753,28.130120038986206
1618826302.73474,-218.4966,28.145740032196045
1618826302.75037,-216.3943,28.161370038986206
1618826302.766,-200.3206,28.177000045776367
1618826302.78162,-169.6844,28.192620038986206
1618826302.79725,-126.2657,28.208250045776367
1618826302.81287,-73.44083,28.223870038986206
1618826302.8285,-15.0531,28.239500045776367
1618826302.84412,45.21591,28.255120038986206
1618826302.85975,103.8151,28.270750045776367
1618826302.87538,156.9847,28.28638005256653
1618826302.891,200.6016,28.302000045776367
1618826302.90663,230.774,28.31763005256653
1618826302.92225,244.9818,28.333250045776367
1618826302.93788,243.0432,28.34888005256653
1618826302.9535,227.3177,28.364500045776367
1618826302.96913,201.9713,28.38013005256653
1618826302.98476,171.6081,28.39576005935669
1618826303.00038,140.0979,28.41138005256653
1618826303.01601,110.0748,28.42701005935669
1618826303.03163,83.07907,28.44263005256653
1618826303.04726,60.07861,28.45826005935669
1618826303.06288,41.82462,28.47388005256653
1618826303.07851,28.87842,28.48951005935669
1618826303.09414,21.36026,28.50514006614685
1618826303.10976,18.79623,28.52076005935669
1618826303.12539,20.07715,28.53639006614685
1618826303.14101,23.70044,28.55201005935669
1618826303.15664,28.06464,28.56764006614685
1618826303.17226,31.63846,28.58326005935669
1618826303.18789,33.22302,28.59889006614685
1618826303.20352,31.93909,28.61452007293701
1618826303.21914,27.30182,28.63014006614685
1618826303.23477,19.2308,28.64577007293701
1618826303.25039,8.038849,28.66139006614685
1618826303.26602,-5.666412,28.67702007293701
1618826303.28164,-21.12909,28.69264006614685
1618826303.29727,-37.55048,28.70827007293701
1618826303.3129,-54.28351,28.723900079727173
1618826303.32852,-70.83075,28.73952007293701
1618826303.34415,-86.9408,28.755150079727173
1618826303.35977,-102.5852,28.77077007293701
1618826303.3754,-118.1123,28.786400079727173
1618826303.39102,-134.1786,28.80202007293701
1618826303.40665,-151.5372,28.817650079727173
1618826303.42228,-170.4692,28.833280086517334
1618826303.4379,-190.0374,28.848900079727173
1618826303.45353,-207.7259,28.864530086517334
1618826303.46915,-219.529,28.880150079727173
1618826303.48478,-221.0736,28.895780086517334
1618826303.5004,-208.9276,28.911400079727173
1618826303.51603,-181.7657,28.927030086517334
1618826303.53166,-140.7496,28.942660093307495
1618826303.54728,-89.03482,28.958280086517334
1618826303.56291,-30.88681,28.973910093307495
1618826303.57853,29.1315,28.989530086517334
1618826303.59416,86.56296,29.005160093307495
1618826303.60978,137.1648,29.020780086517334
1618826303.62541,177.0555,29.036410093307495
1618826303.64104,203.1924,29.052040100097656
1618826303.65666,214.031,29.067660093307495
1618826303.67229,210.0312,29.083290100097656
1618826303.68791,193.6416,29.098910093307495
1618826303.70354,168.5662,29.114540100097656
1618826303.71916,138.8219,29.130160093307495
1618826303.73479,107.8941,29.145790100097656
1618826303.75042,78.30951,29.161420106887817
1618826303.76604,51.74738,29.177040100097656
1618826303.78167,29.22144,29.192670106887817
1618826303.79729,11.34018,29.208290100097656
1618826303.81292,-1.634308,29.223920106887817
1618826303.82854,-9.713684,29.239540100097656
1618826303.84417,-13.27911,29.255170106887817
1618826303.8598,-12.94479,29.27080011367798
1618826303.87542,-9.625183,29.286420106887817
1618826303.89105,-4.533783,29.30205011367798
1618826303.90667,0.8989868,29.317670106887817
1618826303.9223,5.204712,29.33330011367798
1618826303.93792,7.190094,29.348920106887817
1618826303.95355,6.114838,29.36455011367798
1618826303.96918,1.831696,29.38018012046814
1618826303.9848,-5.341736,29.39580011367798
1618826304.00043,-14.79684,29.41143012046814
1618826304.01605,-25.8866,29.42705011367798
1618826304.03168,-38.07874,29.44268012046814
1618826304.0473,-50.94168,29.45830011367798
1618826304.06293,-64.14713,29.47393012046814
1618826304.07856,-77.42096,29.4895601272583
1618826304.09418,-90.61465,29.50518012046814
1618826304.10981,-103.8958,29.5208101272583
1618826304.12543,-117.7648,29.53643012046814
1618826304.14106,-132.8563,29.5520601272583
1618826304.15668,-149.3925,29.56768012046814
1618826304.17231,-166.4972,29.5833101272583
1618826304.18794,-181.7622,29.598939895629883
1618826304.20356,-191.4377,29.6145601272583
1618826304.21919,-191.435,29.630189895629883
1618826304.23481,-178.643,29.6458101272583
1618826304.25044,-151.9599,29.661439895629883
1618826304.26606,-112.5257,29.6770601272583
1618826304.28169,-63.24033,29.692689895629883
1618826304.29732,-7.843414,29.708319902420044
1618826304.31294,49.72705,29.723939895629883
1618826304.32857,105.5916,29.739569902420044
1618826304.34419,155.7686,29.755189895629883
1618826304.35982,196.2951,29.770819902420044
1618826304.37544,223.7635,29.786439895629883
1618826304.39107,236.1565,29.802069902420044
1618826304.4067,233.6956,29.817699909210205
1618826304.42232,218.7537,29.833319902420044
1618826304.43795,195.1786,29.848949909210205
1618826304.45357,167.1641,29.864569902420044
1618826304.4692,138.1581,29.880199909210205
1618826304.48482,110.4766,29.895819902420044
1618826304.50045,85.48065,29.911449909210205
1618826304.51608,63.9884,29.927079916000366
1618826304.5317,46.56537,29.942699909210205
1618826304.54733,33.63129,29.958329916000366
1618826304.56295,25.224,29.973949909210205
1618826304.57858,20.91016,29.989579916000366
1618826304.5942,19.86707,30.005199909210205
1618826304.60983,20.98178,30.020829916000366
1618826304.62546,23.07056,30.036459922790527
1618826304.64108,25.01212,30.052079916000366
1618826304.65671,25.82715,30.067709922790527
1618826304.67233,24.67456,30.083329916000366
1618826304.68796,20.91049,30.098959922790527
1618826304.70358,14.20767,30.114579916000366
1618826304.71921,4.539581,30.130209922790527
1618826304.73484,-7.714172,30.14583992958069
1618826304.75046,-21.96057,30.161459922790527
1618826304.76609,-37.46112,30.17708992958069
1618826304.78171,-53.48672,30.192709922790527
1618826304.79734,-69.42706,30.20833992958069
1618826304.81296,-84.8732,30.223959922790527
1618826304.82859,-99.6355,30.23958992958069
1618826304.84422,-113.8855,30.25521993637085
1618826304.85984,-128.2535,30.27083992958069
1618826304.87547,-143.607,30.28646993637085
1618826304.89109,-160.5553,30.30208992958069
1618826304.90672,-178.6331,30.31771993637085
1618826304.92234,-195.6997,30.33333992958069
1618826304.93797,-207.9636,30.34896993637085
1618826304.9536,-210.8903,30.36459994316101
1618826304.96922,-200.6703,30.38021993637085
1618826304.98485,-175.5821,30.39584994316101
1618826305.00047,-136.5251,30.41146993637085
1618826305.0161,-86.47946,30.42709994316101
1618826305.03172,-29.49832,30.44271993637085
1618826305.04735,30.24835,30.45834994316101
1618826305.06298,88.80264,30.473979949951172
1618826305.0786,142.2924,30.48959994316101
1618826305.09423,186.8336,30.505229949951172
1618826305.10985,218.9529,30.52084994316101
1618826305.12548,236.3983,30.536479949951172
1618826305.1411,238.9765,30.55209994316101
1618826305.15673,228.7428,30.567729949951172
1618826305.17236,209.2964,30.583359956741333
1618826305.18798,184.6096,30.598979949951172
1618826305.20361,157.9693,30.614609956741333
1618826305.21923,131.5226,30.630229949951172
1618826305.23486,106.5381,30.645859956741333
1618826305.25049,83.93881,30.661489963531494
1618826305.26611,64.64304,30.677109956741333
1618826305.28174,49.54407,30.692739963531494
1618826305.29736,39.2388,30.708359956741333
1618826305.31299,33.69873,30.723989963531494
1618826305.32861,32.25302,30.739609956741333
1618826305.34424,33.76642,30.755239963531494
1618826305.35987,36.88104,30.770869970321655
1618826305.37549,40.22348,30.786489963531494
1618826305.39112,42.53812,30.802119970321655
1618826305.40674,42.71814,30.817739963531494
1618826305.42237,39.9162,30.833369970321655
1618826305.43799,33.60318,30.848989963531494
1618826305.45362,23.68073,30.864619970321655
1618826305.46925,10.5144,30.880249977111816
1618826305.48487,-5.104248,30.895869970321655
1618826305.5005,-22.13467,30.911499977111816
1618826305.51612,-39.57431,30.927119970321655
1618826305.53175,-56.68976,30.942749977111816
1618826305.54737,-73.08826,30.958369970321655
1618826305.563,-88.65137,30.973999977111816
1618826305.57863,-103.4,30.989629983901978
1618826305.59425,-117.4798,31.005249977111816
1618826305.60988,-131.1922,31.020879983901978
1618826305.6255,-145.1816,31.036499977111816
1618826305.64113,-160.325,31.052129983901978
1618826305.65675,-177.2842,31.067749977111816
1618826305.67238,-195.7449,31.083379983901978
1618826305.68801,-213.6982,31.09900999069214
1618826305.70363,-227.4257,31.114629983901978
1618826305.71926,-232.2721,31.13025999069214
1618826305.73488,-224.2008,31.145879983901978
1618826305.75051,-201.1447,31.16150999069214
1618826305.76613,-163.6959,31.177129983901978
1618826305.78176,-114.6406,31.19275999069214
1618826305.79739,-57.87802,31.2083899974823
1618826305.81301,2.52652,31.22400999069214
1618826305.82864,62.81024,31.2396399974823
1618826305.84426,119.2518,31.25525999069214
1618826305.85989,167.9951,31.2708899974823
1618826305.87551,205.2419,31.28650999069214
1618826305.89114,228.163,31.3021399974823
1618826305.90677,235.8394,31.31777000427246
1618826305.92239,229.7382,31.3333899974823
1618826305.93802,213.2655,31.34902000427246
1618826305.95364,190.5812,31.3646399974823
1618826305.96927,165.3347,31.38027000427246
1618826305.98489,139.9101,31.3958899974823
1618826306.00052,115.5836,31.41152000427246
1618826306.01615,93.06247,31.427150011062622
1618826306.03177,73.11169,31.44277000427246
1618826306.0474,56.64514,31.458400011062622
1618826306.06302,44.49881,31.47402000427246
1618826306.07865,37.00858,31.489650011062622
1618826306.09427,33.75204,31.50527000427246
1618826306.1099,33.63028,31.520900011062622
1618826306.12553,35.1489,31.536530017852783
1618826306.14115,36.87354,31.552150011062622
1618826306.15678,37.72513,31.567780017852783
1618826306.1724,37.05728,31.583400011062622
1618826306.18803,34.5545,31.599030017852783
1618826306.20365,30.05386,31.614650011062622
1618826306.21928,23.39575,31.630280017852783
1618826306.23491,14.37134,31.645910024642944
1618826306.25053,2.924271,31.661530017852783
1618826306.26616,-10.82468,31.677160024642944
1618826306.28178,-26.38268,31.692780017852783
1618826306.29741,-42.95184,31.708410024642944
1618826306.31303,-59.6339,31.724030017852783
1618826306.32866,-75.66718,31.739660024642944
1618826306.34429,-90.64473,31.755290031433105
1618826306.35991,-104.534,31.770910024642944
1618826306.37554,-117.6506,31.786540031433105
1618826306.39116,-130.5371,31.802160024642944
1618826306.40679,-143.928,31.817790031433105
1618826306.42241,-158.5721,31.833410024642944
1618826306.43804,-174.9291,31.849040031433105
1618826306.45367,-192.5955,31.864670038223267
1618826306.46929,-209.8109,31.880290031433105
1618826306.48492,-223.2885,31.895920038223267
1618826306.50054,-228.7676,31.911540031433105
1618826306.51617,-222.2433,31.927170038223267
1618826306.53179,-201.1995,31.942790031433105
1618826306.54742,-165.4853,31.958420038223267
1618826306.56305,-117.2412,31.974050045013428
1618826306.57867,-60.26364,31.989670038223267
1618826306.5943,0.978714,32.00530004501343
1618826306.60992,62.04701,32.02092003822327
1618826306.62555,118.6963,32.03655004501343
1618826306.64117,167.0645,32.05217003822327
1618826306.6568,203.8189,32.06780004501343
1618826306.67243,226.7204,32.08343005180359
1618826306.68805,235.1329,32.09905004501343
1618826306.70368,230.4331,32.11468005180359
1618826306.7193,215.7253,32.13030004501343
1618826306.73493,195.0611,32.14593005180359
1618826306.75055,172.4985,32.16155004501343
1618826306.76618,151.2535,32.17718005180359
1618826306.78181,133.4939,32.19281005859375
1618826306.79743,120.2804,32.20843005180359
1618826306.81306,111.9073,32.22406005859375
1618826306.82868,107.9948,32.23968005180359
1618826306.84431,107.697,32.25531005859375
1618826306.85993,109.8132,32.27093005180359
1618826306.87556,113.078,32.28656005859375
1618826306.89119,116.5033,32.30219006538391
1618826306.90681,119.6355,32.31781005859375
1618826306.92244,122.6612,32.33344006538391
1618826306.93806,126.0943,32.34906005859375
1618826306.95369,130.3828,32.36469006538391
1618826306.96931,135.3564,32.38031005859375
1618826306.98494,140.0697,32.39594006538391
1618826307.00057,142.9776,32.41157007217407
1618826307.01619,142.5123,32.42719006538391
1618826307.03182,137.8009,32.44282007217407
1618826307.04744,129.0907,32.45844006538391
1618826307.06307,117.9226,32.47407007217407
1618826307.07869,106.8155,32.48969006538391
1618826307.09432,98.64121,32.50532007217407
1618826307.10995,95.70107,32.52095007896423
1618826307.12557,98.6806,32.53657007217407
1618826307.1412,105.9545,32.55220007896423
1618826307.15682,113.4924,32.56782007217407
1618826307.17245,115.8992,32.58345007896423
1618826307.18807,108.119,32.59907007217407
1618826307.2037,87.71329,32.61470007896423
1618826307.21933,56.19595,32.630330085754395
1618826307.23495,19.24756,32.64595007896423
1618826307.25058,-14.85777,32.661580085754395
1618826307.2662,-37.82294,32.67720007896423
1618826307.28183,-43.98899,32.692830085754395
1618826307.29745,-32.27533,32.70845007896423
1618826307.31308,-6.299408,32.724080085754395
1618826307.32871,26.79509,32.739710092544556
1618826307.34433,58.82242,32.755330085754395
1618826307.35996,82.84497,32.770960092544556
1618826307.37558,95.00705,32.786580085754395
1618826307.39121,94.93677,32.802210092544556
1618826307.40683,85.04373,32.817830085754395
1618826307.42246,69.22534,32.833460092544556
1618826307.43809,51.47525,32.84909009933472
1618826307.45371,35.14639,32.864710092544556
1618826307.46934,22.68558,32.88034009933472
1618826307.48496,15.84949,32.895960092544556
1618826307.50059,15.5726,32.91159009933472
1618826307.51622,21.78152,32.92722010612488
1618826307.53184,33.08743,32.94284009933472
1618826307.54747,46.78159,32.95847010612488
1618826307.56309,59.44772,32.97409009933472
1618826307.57872,68.03433,32.98972010612488
1618826307.59434,71.00708,33.00534009933472
1618826307.60997,68.75787,33.02097010612488
1618826307.6256,63.27075,33.03660011291504
1618826307.64122,56.9342,33.05222010612488
1618826307.65685,51.36334,33.06785011291504
1618826307.67247,46.60345,33.08347010612488
1618826307.6881,41.14911,33.09910011291504
1618826307.70372,32.85059,33.11472010612488
1618826307.71935,20.02789,33.13035011291504
1618826307.73498,2.321899,33.1459801197052
1618826307.7506,-19.33057,33.16160011291504
1618826307.76623,-43.17157,33.1772301197052
1618826307.78185,-67.70868,33.19285011291504
1618826307.79748,-92.54907,33.2084801197052
1618826307.8131,-118.6,33.22410011291504
1618826307.82873,-147.9013,33.2397301197052
1618826307.84436,-183.1357,33.25536012649536
1618826307.85998,-227.1694,33.2709801197052
1618826307.87561,-282.1783,33.28661012649536
1618826307.89123,-348.582,33.3022301197052
1618826307.90686,-423.6836,33.31786012649536
1618826307.92248,-501.0536,33.3334801197052
1618826307.93811,-571.3175,33.34911012649536
1618826307.95374,-624.4883,33.36473989486694
1618826307.96936,-653.3317,33.38036012649536
1618826307.98499,-655.8529,33.39598989486694
1618826308.00061,-635.9747,33.41161012649536
1618826308.01624,-601.6444,33.42723989486694
1618826308.03186,-561.6349,33.44286012649536
1618826308.04749,-522.4847,33.45848989486694
1618826308.06312,-487.1186,33.474119901657104
1618826308.07874,-455.4791,33.48973989486694
1618826308.09437,-426.1194,33.505369901657104
1618826308.10999,-397.8831,33.52098989486694
1618826308.12562,-370.3021,33.536619901657104
1618826308.14124,-343.2086,33.55223989486694
1618826308.15687,-315.9857,33.567869901657104
1618826308.1725,-287.4213,33.583499908447266
1618826308.18812,-256.1298,33.599119901657104
1618826308.20375,-221.3941,33.614749908447266
1618826308.21937,-183.6052,33.630369901657104
1618826308.235,-144.0399,33.645999908447266
1618826308.25062,-104.4854,33.661619901657104
1618826308.26625,-66.16742,33.677249908447266
1618826308.28188,-29.23712,33.69287991523743
1618826308.2975,7.368225,33.708499908447266
1618826308.31313,45.35156,33.72412991523743
1618826308.32875,85.99207,33.739749908447266
1618826308.34438,129.0087,33.75537991523743
1618826308.36,172.0588,33.770999908447266
1618826308.37563,211.1514,33.78662991523743
1618826308.39126,242.0026,33.80225992202759
1618826308.40688,261.7814,33.81787991523743
1618826308.42251,270.2202,33.83350992202759
1618826308.43813,269.6454,33.84912991523743
1618826308.45376,263.7028,33.86475992202759
1618826308.46938,255.6801,33.88037991523743
1618826308.48501,247.0216,33.89600992202759
1618826308.50064,237.1252,33.91163992881775
1618826308.51626,224.2449,33.92725992202759
1618826308.53189,206.8302,33.94288992881775
1618826308.54751,184.7305,33.95850992202759
1618826308.56314,159.3155,33.97413992881775
1618826308.57876,132.8009,33.98975992202759
1618826308.59439,107.0938,34.00538992881775
1618826308.61002,83.00342,34.02101993560791
1618826308.62564,60.12103,34.03663992881775
1618826308.64127,37.23502,34.05226993560791
1618826308.65689,13.12759,34.06788992881775
1618826308.67252,-13.05518,34.08351993560791
1618826308.68814,-41.45676,34.09913992881775
1618826308.70377,-71.52597,34.11476993560791
1618826308.7194,-101.9045,34.13039994239807
1618826308.73502,-130.3525,34.14601993560791
1618826308.75065,-153.692,34.16164994239807
1618826308.76627,-168.3437,34.17726993560791
1618826308.7819,-171.2461,34.19289994239807
1618826308.79752,-160.8663,34.20851993560791
1618826308.81315,-137.8648,34.22414994239807
1618826308.82878,-104.9776,34.23977994918823
1618826308.8444,-65.87508,34.25539994239807
1618826308.86003,-23.74187,34.27102994918823
1618826308.87565,19.60588,34.28664994239807
1618826308.89128,63.6689,34.30227994918823
1618826308.9069,108.2116,34.31789994239807
1618826308.92253,151.9063,34.33352994918823
1618826308.93816,191.7019,34.349159955978394
1618826308.95378,223.3683,34.36477994918823
1618826308.96941,242.9747,34.380409955978394
1618826308.98503,248.5103,34.39602994918823
1618826309.00066,240.7132,34.411659955978394
1618826309.01628,222.6769,34.42727994918823
1618826309.03191,198.6031,34.442909955978394
1618826309.04754,172.3501,34.458539962768555
1618826309.06316,146.5888,34.474159955978394
1618826309.07879,122.7562,34.489789962768555
1618826309.09441,101.6393,34.505409955978394
1618826309.11004,83.94512,34.521039962768555
1618826309.12566,70.51261,34.536659955978394
1618826309.14129,62.01474,34.552289962768555
1618826309.15692,58.4761,34.567919969558716
1618826309.17254,59.06116,34.583539962768555
1618826309.18817,62.11597,34.599169969558716
1618826309.20379,65.71514,34.614789962768555
1618826309.21942,68.13732,34.630419969558716
1618826309.23504,68.17274,34.646039962768555
1618826309.25067,65.21444,34.661669969558716
1618826309.2663,59.09236,34.67729997634888
1618826309.28192,49.85954,34.692919969558716
1618826309.29755,37.7103,34.70854997634888
1618826309.31317,22.99472,34.724169969558716
1618826309.3288,6.281128,34.73979997634888
1618826309.34442,-11.69604,34.755419969558716
1618826309.36005,-30.08075,34.77104997634888
1618826309.37568,-48.16521,34.78667998313904
1618826309.3913,-65.66994,34.80229997634888
1618826309.40693,-82.78825,34.81792998313904
1618826309.42255,-100.1467,34.83354997634888
1618826309.43818,-118.5181,34.84917998313904
1618826309.4538,-138.5468,34.86479997634888
1618826309.46943,-160.3107,34.88042998313904
1618826309.48506,-182.9961,34.8960599899292
1618826309.50068,-204.5943,34.91167998313904
1618826309.51631,-222.0213,34.9273099899292
1618826309.53193,-231.6016,34.94292998313904
1618826309.54756,-230.0951,34.9585599899292
1618826309.56318,-215.7511,34.97417998313904
1618826309.57881,-188.9931,34.9898099899292
1618826309.59444,-152.3689,35.00543999671936
1618826309.61006,-109.5329,35.0210599899292
1618826309.62569,-63.86191,35.03668999671936
1618826309.64131,-17.29233,35.0523099899292
1618826309.65694,29.77158,35.06793999671936
1618826309.67256,77.51788,35.0835599899292
1618826309.68819,125.244,35.09918999671936
1618826309.70382,170.3088,35.11482000350952
1618826309.71944,208.355,35.13043999671936
1618826309.73507,234.6685,35.14607000350952
1618826309.75069,246.1433,35.16168999671936
1618826309.76632,242.6238,35.17732000350952
1618826309.78194,226.9431,35.19293999671936
1618826309.79757,203.7317,35.20857000350952
1618826309.8132,177.649,35.22420001029968
1618826309.82882,152.0302,35.23982000350952
1618826309.84445,128.4801,35.25545001029968
1618826309.86007,107.4352,35.27107000350952
1618826309.8757,89.11191,35.28670001029968
1618826309.89133,74.09314,35.302330017089844
1618826309.90695,63.33307,35.31795001029968
1618826309.92258,57.52408,35.333580017089844
1618826309.9382,56.47549,35.34920001029968
1618826309.95383,58.79257,35.364830017089844
1618826309.96945,62.22308,35.38045001029968
1618826309.98508,64.2673,35.396080017089844
1618826310.00071,63.00708,35.411710023880005
1618826310.01633,57.58221,35.427330017089844
1618826310.03196,48.35947,35.442960023880005
1618826310.04758,36.52838,35.458580017089844
1618826310.06321,23.53992,35.474210023880005
1618826310.07883,10.47769,35.489830017089844
1618826310.09446,-2.376495,35.505460023880005
1618826310.11009,-15.48746,35.521090030670166
1618826310.12571,-29.7399,35.536710023880005
1618826310.14134,-45.83041,35.552340030670166
1618826310.15696,-63.9292,35.567960023880005
1618826310.17259,-83.59204,35.583590030670166
1618826310.18821,-104.1979,35.599210023880005
1618826310.20384,-125.3233,35.614840030670166
1618826310.21947,-146.8254,35.63047003746033
1618826310.23509,-168.4005,35.646090030670166
1618826310.25072,-188.7675,35.66172003746033
1618826310.26634,-205.243,35.677340030670166
1618826310.28197,-213.9928,35.69297003746033
1618826310.29759,-211.2119,35.708590030670166
1618826310.31322,-194.6194,35.72422003746033
1618826310.32885,-164.4812,35.73985004425049
1618826310.34447,-123.3901,35.75547003746033
1618826310.3601,-75.13727,35.77110004425049
1618826310.37572,-23.24805,35.78672003746033
1618826310.39135,29.71631,35.80235004425049
1618826310.40697,81.86841,35.81797003746033
1618826310.4226,130.9509,35.83360004425049
1618826310.43823,173.6567,35.84923005104065
1618826310.45385,205.9214,35.86485004425049
1618826310.46948,224.232,35.88048005104065
1618826310.4851,227.1569,35.89610004425049
1618826310.50073,216.1183,35.91173005104065
1618826310.51635,194.9625,35.92735004425049
1618826310.53198,168.4183,35.94298005104065
1618826310.54761,140.5707,35.95861005783081
1618826310.56323,113.9017,35.97423005104065
1618826310.57886,89.45123,35.98986005783081
1618826310.59448,67.60602,36.00548005104065
1618826310.61011,48.90747,36.02111005783081
1618826310.62573,34.31641,36.03673005104065
1618826310.64136,24.87854,36.05236005783081
1618826310.65699,21.11127,36.06799006462097
1618826310.67261,22.47327,36.08361005783081
1618826310.68824,27.34155,36.09924006462097
1618826310.70386,33.43896,36.11486005783081
1618826310.71949,38.40143,36.13049006462097
1618826310.73511,40.46979,36.14611005783081
1618826310.75074,38.78967,36.16174006462097
1618826310.76637,33.44287,36.17737007141113
1618826310.78199,25.10388,36.19299006462097
1618826310.79762,14.67401,36.20862007141113
1618826310.81324,2.884644,36.22424006462097
1618826310.82887,-9.862305,36.23987007141113
1618826310.84449,-23.44965,36.25549006462097
1618826310.86012,-37.91321,36.27112007141113
1618826310.87575,-53.23383,36.286750078201294
1618826310.89137,-69.37933,36.30237007141113
1618826310.907,-86.36023,36.318000078201294
1618826310.92262,-104.4186,36.33362007141113
1618826310.93825,-123.8561,36.349250078201294
1618826310.95387,-144.5168,36.36487007141113
1618826310.9695,-165.1907,36.380500078201294
1618826310.98513,-183.1427,36.396130084991455
1618826311.00075,-194.5013,36.411750078201294
1618826311.01638,-195.1703,36.427380084991455
1618826311.032,-182.3161,36.443000078201294
1618826311.04763,-155.2227,36.458630084991455
1618826311.06325,-115.5101,36.474250078201294
1618826311.07888,-66.42889,36.489880084991455
1618826311.09451,-11.85004,36.505510091781616
1618826311.11013,44.39453,36.521130084991455
1618826311.12576,98.63983,36.536760091781616
1618826311.14138,147.1789,36.552380084991455
1618826311.15701,186.3254,36.568010091781616
1618826311.17263,212.8729,36.583630084991455
1618826311.18826,225.0479,36.599260091781616
1618826311.20389,223.2152,36.61489009857178
1618826311.21951,209.8056,36.630510091781616
1618826311.23514,188.5637,36.64614009857178
1618826311.25076,163.3152,36.661760091781616
1618826311.26639,137.0452,36.67739009857178
1618826311.28201,111.5679,36.693010091781616
1618826311.29764,87.87933,36.70864009857178
1618826311.31327,66.6394,36.72427010536194
1618826311.32889,48.57355,36.73989009857178
1618826311.34452,34.47858,36.75552010536194
1618826311.36014,24.92334,36.77114009857178
1618826311.37577,19.99567,36.78677010536194
1618826311.39139,19.12195,36.80239009857178
1618826311.40702,21.17261,36.81802010536194
1618826311.42265,24.60602,36.8336501121521
1618826311.43827,27.74323,36.84927010536194
1618826311.4539,29.11804,36.8649001121521
1618826311.46952,27.69208,36.88052010536194
1618826311.48515,22.96765,36.8961501121521
1618826311.50077,15.03271,36.91177010536194
1618826311.5164,4.351868,36.9274001121521
1618826311.53203,-8.423645,36.94303011894226
1618826311.54765,-22.69421,36.9586501121521
1618826311.56328,-37.99371,36.97428011894226
1618826311.5789,-53.98883,36.9899001121521
1618826311.59453,-70.41888,37.00553011894226
1618826311.61015,-87.07483,37.0211501121521
1618826311.62578,-103.9446,37.03678011894226
1618826311.64141,-121.3505,37.05241012573242
1618826311.65703,-139.8565,37.06803011894226
1618826311.67266,-159.7413,37.08366012573242
1618826311.68828,-180.3586,37.09928011894226
1618826311.70391,-199.4095,37.11491012573242
1618826311.71953,-213.0519,37.13053011894226
1618826311.73516,-216.8123,37.14616012573242
1618826311.75079,-207.043,37.16179013252258
1618826311.76641,-182.3096,37.17741012573242
1618826311.78204,-143.8312,37.19304013252258
1618826311.79766,-94.89514,37.20866012573242
1618826311.81329,-39.70404,37.22429013252258
1618826311.82891,17.63159,37.23991012573242
1618826311.84454,73.47327,37.25554013252258
1618826311.86017,124.4279,37.271169900894165
1618826311.87579,167.1519,37.28679013252258
1618826311.89142,198.4959,37.302419900894165
1618826311.90704,216.2598,37.31804013252258
1618826311.92267,220.0613,37.333669900894165
1618826311.93829,211.6358,37.34929013252258
1618826311.95392,194.3549,37.364919900894165
1618826311.96955,172.1879,37.380549907684326
1618826311.98517,148.4919,37.396169900894165
1618826312.0008,125.4211,37.411799907684326
1618826312.01642,104.0018,37.427419900894165
1618826312.03205,84.60455,37.443049907684326
1618826312.04767,67.44037,37.458669900894165
1618826312.0633,52.92352,37.474299907684326
1618826312.07893,41.60004,37.48992991447449
1618826312.09455,33.9375,37.505549907684326
1618826312.11018,30.05481,37.52117991447449
1618826312.1258,29.52911,37.536799907684326
1618826312.14143,31.35632,37.55242991447449
1618826312.15705,34.05438,37.568049907684326
1618826312.17268,36.00574,37.58367991447449
1618826312.18831,35.77747,37.59930992126465
1618826312.20393,32.38257,37.61492991447449
1618826312.21956,25.42578,37.63055992126465
1618826312.23518,15.07825,37.64617991447449
1618826312.25081,1.919067,37.66180992126465
1618826312.26643,-13.28485,37.67742991447449
1618826312.28206,-29.72913,37.69305992126465
1618826312.29769,-46.67236,37.70868992805481
1618826312.31331,-63.51385,37.72430992126465
1618826312.32894,-79.91333,37.73993992805481
1618826312.34456,-95.91553,37.75555992126465
1618826312.36019,-112.097,37.77118992805481
1618826312.37582,-129.4233,37.78681993484497
1618826312.39144,-148.7018,37.80243992805481
1618826312.40707,-169.832,37.81806993484497
1618826312.42269,-191.0611,37.83368992805481
1618826312.43832,-208.7766,37.84931993484497
1618826312.45394,-218.2261,37.86493992805481
1618826312.46957,-214.894,37.88056993484497
1618826312.4852,-195.9521,37.89619994163513
1618826312.50082,-161.2784,37.91181993484497
1618826312.51645,-113.3871,37.92744994163513
1618826312.53207,-56.65601,37.94306993484497
1618826312.5477,3.708496,37.95869994163513
1618826312.56332,62.53784,37.97431993484497
1618826312.57895,115.2225,37.98994994163513
1618826312.59458,158.0318,38.00557994842529
1618826312.6102,188.4373,38.02119994163513
1618826312.62583,205.5106,38.03682994842529
1618826312.64145,210.1353,38.05244994163513
1618826312.65708,204.8174,38.06807994842529
1618826312.6727,193.0131,38.08369994163513
1618826312.68833,178.173,38.09932994842529
1618826312.70396,163.0146,38.114959955215454
1618826312.71958,149.2415,38.13057994842529
1618826312.73521,137.7678,38.146209955215454
1618826312.75083,129.0683,38.16182994842529
1618826312.76646,123.5142,38.177459955215454
1618826312.78208,121.3975,38.19307994842529
1618826312.79771,122.8923,38.208709955215454
1618826312.81334,127.898,38.224339962005615
1618826312.82896,135.9065,38.239959955215454
1618826312.84459,146.0406,38.255589962005615
1618826312.86021,157.1032,38.271209955215454
1618826312.87584,167.811,38.286839962005615
1618826312.89146,177.0085,38.302459955215454
1618826312.90709,184.0024,38.318089962005615
1618826312.92272,188.6681,38.333719968795776
1618826312.93834,191.4195,38.349339962005615
1618826312.95397,193.0847,38.364969968795776
1618826312.96959,194.5462,38.380589962005615
1618826312.98522,196.5841,38.396219968795776
1618826313.00084,199.4703,38.411839962005615
1618826313.01647,202.8184,38.427469968795776
1618826313.0321,205.3689,38.44309997558594
1618826313.04772,205.179,38.458719968795776
1618826313.06335,200.0239,38.47434997558594
1618826313.07897,188.1462,38.489969968795776
1618826313.0946,169.0171,38.50559997558594
1618826313.11022,143.6576,38.521219968795776
1618826313.12585,114.5241,38.53684997558594
1618826313.14148,84.77917,38.5524799823761
1618826313.1571,57.4389,38.56809997558594
1618826313.17273,34.71692,38.5837299823761
1618826313.18835,17.68564,38.59934997558594
1618826313.20398,6.36618,38.6149799823761
1618826313.2196,-0.01754761,38.63059997558594
1618826313.23523,-2.717926,38.6462299823761
1618826313.25086,-3.15921,38.66185998916626
1618826313.26648,-2.577515,38.6774799823761
1618826313.28211,-1.731964,38.69310998916626
1618826313.29773,-0.6351929,38.7087299823761
1618826313.31336,1.441025,38.72435998916626
1618826313.32898,5.56665,38.7399799823761
1618826313.34461,12.56744,38.75560998916626
1618826313.36024,22.40532,38.77123999595642
1618826313.37586,34.0121,38.78685998916626
1618826313.39149,45.54001,38.80248999595642
1618826313.40711,55.0677,38.81810998916626
1618826313.42274,61.30089,38.83373999595642
1618826313.43836,63.97372,38.84935998916626
1618826313.45399,63.61858,38.86498999595642
1618826313.46962,61.01899,38.88062000274658
1618826313.48524,56.46653,38.89623999595642
1618826313.50087,49.18488,38.91187000274658
1618826313.51649,37.32497,38.92748999595642
1618826313.53212,18.22292,38.94312000274658
1618826313.54774,-11.08273,38.95873999595642
1618826313.56337,-53.27433,38.97437000274658
1618826313.579,-109.804,38.99000000953674
1618826313.59462,-179.5678,39.00562000274658
1618826313.61025,-257.9017,39.02125000953674
1618826313.62587,-336.3994,39.03687000274658
1618826313.6415,-404.531,39.05250000953674
1618826313.65712,-452.6285,39.06812000274658
1618826313.67275,-475.249,39.08375000953674
1618826313.68838,-473.0856,39.099380016326904
1618826313.704,-452.4317,39.11500000953674
1618826313.71963,-422.4894,39.130630016326904
1618826313.73525,-391.5894,39.14625000953674
1618826313.75088,-364.743,39.161880016326904
1618826313.7665,-343.088,39.17750000953674
1618826313.78213,-325.4521,39.193130016326904
1618826313.79776,-310.5253,39.208760023117065
1618826313.81338,-298.263,39.224380016326904
1618826313.82901,-289.7296,39.240010023117065
1618826313.84463,-285.9771,39.255630016326904
1618826313.86026,-286.9622,39.271260023117065
1618826313.87588,-291.2627,39.286880016326904
1618826313.89151,-296.6139,39.302510023117065
1618826313.90714,-300.6388,39.31814002990723
1618826313.92276,-301.2916,39.333760023117065
1618826313.93839,-296.7951,39.34939002990723
1618826313.95401,-285.7014,39.365010023117065
1618826313.96964,-266.7522,39.38064002990723
1618826313.98526,-239.2494,39.396260023117065
1618826314.00089,-203.3907,39.41189002990723
1618826314.01652,-160.2863,39.42752003669739
1618826314.03214,-111.6249,39.44314002990723
1618826314.04777,-59.09024,39.45877003669739
1618826314.06339,-4.151306,39.47439002990723
1618826314.07902,51.64417,39.49002003669739
1618826314.09464,106.0781,39.50564002990723
1618826314.11027,155.8996,39.52127003669739
1618826314.1259,197.1522,39.53690004348755
1618826314.14152,226.2363,39.55252003669739
1618826314.15715,241.2427,39.56815004348755
1618826314.17277,242.6776,39.58377003669739
1618826314.1884,233.2643,39.59940004348755
1618826314.20402,216.8212,39.61502003669739
1618826314.21965,196.8982,39.63065004348755
1618826314.23528,175.9371,39.64628005027771
1618826314.2509,155.2322,39.66190004348755
1618826314.26653,135.4256,39.67753005027771
1618826314.28215,117.3166,39.69315004348755
1618826314.29778,102.1134,39.70878005027771
1618826314.3134,91.10123,39.72440004348755
1618826314.32903,85.0511,39.74003005027771
1618826314.34466,83.69109,39.75566005706787
1618826314.36028,85.62024,39.77128005027771
1618826314.37591,88.79762,39.78691005706787
1618826314.39153,91.14145,39.80253005027771
1618826314.40716,91.0648,39.81816005706787
1618826314.42278,87.76881,39.83378005027771
1618826314.43841,81.1656,39.84941005706787
1618826314.45404,71.55428,39.86504006385803
1618826314.46966,59.40431,39.88066005706787
1618826314.48529,45.17824,39.89629006385803
1618826314.50091,29.25687,39.91191005706787
1618826314.51654,12.02583,39.92754006385803
1618826314.53217,-6.113571,39.94317007064819
1618826314.54779,-24.68381,39.95879006385803
1618826314.56342,-43.22491,39.97442007064819
1618826314.57904,-61.31177,39.99004006385803
1618826314.59467,-78.71854,40.00567007064819
1618826314.61029,-95.46489,40.02129006385803
1618826314.62592,-111.9546,40.03692007064819
1618826314.64155,-128.948,40.052550077438354
1618826314.65717,-147.2312,40.06817007064819
1618826314.6728,-166.9675,40.083800077438354
1618826314.68842,-186.9727,40.09942007064819
1618826314.70405,-204.3745,40.115050077438354
1618826314.71967,-215.0214,40.13067007064819
1618826314.7353,-214.6686,40.146300077438354
1618826314.75093,-200.3942,40.161930084228516
1618826314.76655,-171.627,40.177550077438354
1618826314.78218,-130.2341,40.193180084228516
1618826314.7978,-79.73098,40.208800077438354
1618826314.81343,-24.24802,40.224430084228516
1618826314.82905,32.27663,40.240050077438354
1618826314.84468,86.20953,40.255680084228516
1618826314.86031,134.0344,40.27131009101868
1618826314.87593,172.3098,40.286930084228516
1618826314.89156,198.1141,40.30256009101868
1618826314.90718,209.8253,40.318180084228516
1618826314.92281,207.8136,40.33381009101868
1618826314.93843,194.425,40.349430084228516
1618826314.95406,173.2317,40.36506009101868
1618826314.96969,147.9756,40.38069009780884
1618826314.98531,121.6645,40.39631009101868
1618826315.00094,96.30317,40.41194009780884
1618826315.01656,73.10373,40.42756009101868
1618826315.03219,52.88399,40.44319009780884
1618826315.04781,36.34537,40.45881009101868
1618826315.06344,24.145,40.47444009780884
1618826315.07907,16.66216,40.490070104599
1618826315.09469,13.82968,40.50569009780884
1618826315.11032,15.02259,40.521320104599
1618826315.12594,19.11187,40.53694009780884
1618826315.14157,24.57101,40.552570104599
1618826315.15719,29.69184,40.56819009780884
1618826315.17282,32.91161,40.583820104599
1618826315.18845,33.0684,40.59945011138916
1618826315.20407,29.63821,40.615070104599
1618826315.2197,22.75123,40.63070011138916
1618826315.23532,12.98649,40.646320104599
1618826315.25095,1.092461,40.66195011138916
1618826315.26657,-12.25999,40.677570104599
1618826315.2822,-26.54841,40.69320011138916
1618826315.29783,-41.401,40.70883011817932
1618826315.31345,-56.51153,40.72445011138916
1618826315.32908,-71.74767,40.74008011817932
1618826315.3447,-87.23973,40.75570011138916
1618826315.36033,-103.5008,40.77133011817932
1618826315.37595,-121.0973,40.78695011138916
1618826315.39158,-140.0555,40.80258011817932
1618826315.40721,-159.0879,40.81821012496948
1618826315.42283,-175.2613,40.83383011817932
1618826315.43846,-184.4348,40.84946012496948
1618826315.45408,-182.3919,40.86508011817932
1618826315.46971,-166.2789,40.88071012496948
1618826315.48533,-135.5272,40.89633011817932
1618826315.50096,-92.00498,40.91196012496948
1618826315.51659,-39.40314,40.927590131759644
1618826315.53221,17.62704,40.94321012496948
1618826315.54784,74.24746,40.958840131759644
1618826315.56346,125.8781,40.97446012496948
1618826315.57909,168.4273,40.990090131759644
1618826315.59471,198.7175,41.00571012496948
1618826315.61034,214.9224,41.021340131759644
1618826315.62597,217.004,41.036969900131226
1618826315.64159,206.7686,41.052590131759644
1618826315.65722,187.3345,41.068219900131226
1618826315.67284,162.2431,41.083840131759644
1618826315.68847,134.6034,41.099469900131226
1618826315.70409,106.6498,41.115090131759644
1618826315.71972,79.83001,41.130719900131226
