timestamp,value,norm_ts
1617967407.63897,-49.92261,1.4690299034118652
1617967407.6546,-56.39185,1.4846599102020264
1617967407.67023,-62.72412,1.5002899169921875
1617967407.68585,-67.67749,1.5159099102020264
1617967407.70148,-69.69873,1.5315399169921875
1617967407.7171,-67.32617,1.5471599102020264
1617967407.73273,-59.75415,1.5627899169921875
1617967407.74835,-47.22852,1.5784099102020264
1617967407.76398,-31.11157,1.5940399169921875
1617967407.77961,-13.56055,1.6096699237823486
1617967407.79523,3.142578,1.6252899169921875
1617967407.81086,17.22656,1.6409199237823486
1617967407.82648,27.8269,1.6565399169921875
1617967407.84211,35.01001,1.6721699237823486
1617967407.85773,39.39551,1.6877899169921875
1617967407.87336,41.74268,1.7034199237823486
1617967407.88899,42.53784,1.7190499305725098
1617967407.90461,41.9729,1.7346699237823486
1617967407.92024,40.02539,1.7502999305725098
1617967407.93586,36.77393,1.7659199237823486
1617967407.95149,32.57861,1.7815499305725098
1617967407.96711,28.12036,1.7971699237823486
1617967407.98274,24.23193,1.8127999305725098
1617967407.99837,21.60474,1.828429937362671
1617967408.01399,20.55591,1.8440499305725098
1617967408.02962,20.94141,1.859679937362671
1617967408.04524,22.25586,1.8752999305725098
1617967408.06087,23.8269,1.890929937362671
1617967408.07649,25.05615,1.9065499305725098
1617967408.09212,25.54956,1.922179937362671
1617967408.10775,25.15918,1.937809944152832
1617967408.12337,23.88428,1.953429937362671
1617967408.139,21.7915,1.969059944152832
1617967408.15462,18.95532,1.984679937362671
1617967408.17025,15.45166,2.000309944152832
1617967408.18587,11.38843,2.015929937362671
1617967408.2015,6.908691,2.031559944152832
1617967408.21713,2.178955,2.047189950942993
1617967408.23275,-2.682617,2.062809944152832
1617967408.24838,-7.636963,2.078439950942993
1617967408.264,-12.70801,2.094059944152832
1617967408.27963,-17.92139,2.109689950942993
1617967408.29525,-23.21655,2.125309944152832
1617967408.31088,-28.43042,2.140939950942993
1617967408.32651,-33.34424,2.1565699577331543
1617967408.34213,-37.80737,2.172189950942993
1617967408.35776,-41.8501,2.1878199577331543
1617967408.37338,-45.74487,2.203439950942993
1617967408.38901,-49.93042,2.2190699577331543
1617967408.40463,-54.82397,2.234689950942993
1617967408.42026,-60.53979,2.2503199577331543
1617967408.43589,-66.62915,2.2659499645233154
1617967408.45151,-72.00562,2.2815699577331543
1617967408.46714,-75.02905,2.2971999645233154
1617967408.48276,-73.93286,2.3128199577331543
1617967408.49839,-67.41406,2.3284499645233154
1617967408.51401,-55.14551,2.3440699577331543
1617967408.52964,-38.07056,2.3596999645233154
1617967408.54527,-18.2251,2.3753299713134766
1617967408.56089,1.852295,2.3909499645233154
1617967408.57652,19.79736,2.4065799713134766
1617967408.59214,34.03735,2.4221999645233154
1617967408.60777,44.0625,2.4378299713134766
1617967408.62339,50.2334,2.4534499645233154
1617967408.63902,53.3999,2.4690799713134766
1617967408.65465,54.44482,2.4847099781036377
1617967408.67027,54.00903,2.5003299713134766
1617967408.6859,52.46582,2.5159599781036377
1617967408.70152,50.05664,2.5315799713134766
1617967408.71715,47.03296,2.5472099781036377
1617967408.73277,43.77393,2.5628299713134766
1617967408.7484,40.75732,2.5784599781036377
1617967408.76403,38.44482,2.594089984893799
1617967408.77965,37.17651,2.6097099781036377
1617967408.79528,37.10938,2.625339984893799
1617967408.8109,38.24609,2.6409599781036377
1617967408.82653,40.44482,2.656589984893799
1617967408.84215,43.41943,2.6722099781036377
1617967408.85778,46.72144,2.687839984893799
1617967408.87341,49.71143,2.70346999168396
1617967408.88903,51.61206,2.719089984893799
1617967408.90466,51.65918,2.73471999168396
1617967408.92028,49.35791,2.750339984893799
1617967408.93591,44.69507,2.76596999168396
1617967408.95153,38.22681,2.781589984893799
1617967408.96716,30.90918,2.79721999168396
1617967408.98279,23.82715,2.812849998474121
1617967408.99841,17.84814,2.82846999168396
1617967409.01404,13.43164,2.844099998474121
1617967409.02966,10.54272,2.85971999168396
1617967409.04529,8.795166,2.875349998474121
1617967409.06091,7.682129,2.89096999168396
1617967409.07654,6.794189,2.906599998474121
1617967409.09217,5.98999,2.9222300052642822
1617967409.10779,5.349121,2.937849998474121
1617967409.12342,5.043945,2.9534800052642822
1617967409.13904,5.082275,2.969099998474121
1617967409.15467,5.150146,2.9847300052642822
1617967409.1703,4.522217,3.0003600120544434
1617967409.18592,2.187012,3.0159800052642822
1617967409.20155,-2.844971,3.0316100120544434
1617967409.21717,-11.1582,3.0472300052642822
1617967409.2328,-22.51514,3.0628600120544434
1617967409.24842,-35.6394,3.0784800052642822
1617967409.26405,-48.28174,3.0941100120544434
1617967409.27968,-57.74487,3.1097400188446045
1617967409.2953,-61.67017,3.1253600120544434
1617967409.31093,-58.83105,3.1409900188446045
1617967409.32655,-49.66919,3.1566100120544434
1617967409.34218,-36.20532,3.1722400188446045
1617967409.3578,-21.43188,3.1878600120544434
1617967409.37343,-8.405762,3.2034900188446045
1617967409.38906,0.5998535,3.2191200256347656
1617967409.40468,4.532227,3.2347400188446045
1617967409.42031,3.484863,3.2503700256347656
1617967409.43593,-1.67334,3.2659900188446045
1617967409.45156,-9.740479,3.2816200256347656
1617967409.46718,-19.53491,3.2972400188446045
1617967409.48281,-30.02295,3.3128700256347656
1617967409.49844,-40.31787,3.3285000324249268
1617967409.51406,-49.73291,3.3441200256347656
1617967409.52969,-57.80884,3.3597500324249268
1617967409.54531,-64.38281,3.3753700256347656
1617967409.56094,-69.60571,3.3910000324249268
1617967409.57656,-73.86523,3.4066200256347656
1617967409.59219,-77.59351,3.4222500324249268
1617967409.60782,-81.11792,3.437880039215088
1617967409.62344,-84.5625,3.4535000324249268
1617967409.63907,-87.8064,3.469130039215088
1617967409.65469,-90.59229,3.4847500324249268
1617967409.67032,-92.67285,3.500380039215088
1617967409.68594,-93.97314,3.5160000324249268
1617967409.70157,-94.66602,3.531630039215088
1617967409.7172,-95.13574,3.547260046005249
1617967409.73282,-95.8457,3.562880039215088
1617967409.74845,-97.18555,3.578510046005249
1617967409.76407,-99.39746,3.594130039215088
1617967409.7797,-102.6079,3.609760046005249
1617967409.79532,-106.8982,3.625380039215088
1617967409.81095,-112.3032,3.641010046005249
1617967409.82658,-118.7114,3.65664005279541
1617967409.8422,-125.6687,3.672260046005249
1617967409.85783,-132.2903,3.68789005279541
1617967409.87345,-137.3562,3.703510046005249
1617967409.88908,-139.6416,3.71914005279541
1617967409.9047,-138.3005,3.734760046005249
1617967409.92033,-133.145,3.75039005279541
1617967409.93596,-124.5857,3.7660200595855713
1617967409.95158,-113.3235,3.78164005279541
1617967409.96721,-99.96729,3.7972700595855713
1617967409.98283,-84.80054,3.81289005279541
1617967409.99846,-67.8269,3.8285200595855713
1617967410.01408,-48.97266,3.84414005279541
1617967410.02971,-28.26733,3.8597700595855713
1617967410.04534,-5.885498,3.8754000663757324
1617967410.06096,17.84692,3.8910200595855713
1617967410.07659,42.43726,3.9066500663757324
1617967410.09221,66.98071,3.9222700595855713
1617967410.10784,89.95361,3.9379000663757324
1617967410.12346,109.2815,3.9535200595855713
1617967410.13909,122.8687,3.9691500663757324
1617967410.15472,129.4688,3.9847800731658936
1617967410.17034,129.4749,4.000400066375732
1617967410.18597,125.0239,4.0160300731658936
1617967410.20159,119.2466,4.031650066375732
1617967410.21722,114.9565,4.0472800731658936
1617967410.23284,113.4343,4.062900066375732
1617967410.24847,114.0286,4.0785300731658936
1617967410.2641,114.6953,4.094160079956055
1617967410.27972,113.1409,4.1097800731658936
1617967410.29535,107.9978,4.125410079956055
1617967410.31097,99.28784,4.1410300731658936
1617967410.3266,88.17456,4.156660079956055
1617967410.34222,76.2019,4.1722800731658936
1617967410.35785,64.58667,4.187910079956055
1617967410.37348,53.94556,4.203540086746216
1617967410.3891,44.49854,4.219160079956055
1617967410.40473,36.43726,4.234790086746216
1617967410.42035,30.12988,4.250410079956055
1617967410.43598,26.05713,4.266040086746216
1617967410.4516,24.43262,4.281660079956055
1617967410.46723,24.90308,4.297290086746216
1617967410.48286,26.48853,4.312920093536377
1617967410.49848,27.87793,4.328540086746216
1617967410.51411,27.89087,4.344170093536377
1617967410.52973,25.92236,4.359790086746216
1617967410.54536,22.13623,4.375420093536377
1617967410.56098,17.22729,4.391040086746216
1617967410.57661,12.05371,4.406670093536377
1617967410.59224,7.19751,4.422300100326538
1617967410.60786,2.723389,4.437920093536377
1617967410.62349,-1.726318,4.453550100326538
1617967410.63911,-6.656006,4.469170093536377
1617967410.65474,-12.41357,4.484800100326538
1617967410.67036,-18.96753,4.500420093536377
1617967410.68599,-25.89746,4.516050100326538
1617967410.70162,-32.56396,4.531680107116699
1617967410.71724,-38.35229,4.547300100326538
1617967410.73287,-42.90649,4.562930107116699
1617967410.74849,-46.24072,4.578550100326538
1617967410.76412,-48.75171,4.594180107116699
1617967410.77974,-51.11328,4.609800100326538
1617967410.79537,-54.0459,4.625430107116699
1617967410.811,-58.08203,4.64106011390686
1617967410.82662,-63.23755,4.656680107116699
1617967410.84225,-68.79224,4.67231011390686
1617967410.85787,-73.28589,4.687930107116699
1617967410.8735,-74.83569,4.70356011390686
1617967410.88912,-71.69214,4.719180107116699
1617967410.90475,-62.89282,4.73481011390686
1617967410.92038,-48.73706,4.7504401206970215
1617967410.936,-30.77661,4.76606011390686
1617967410.95163,-11.40674,4.7816901206970215
1617967410.96725,6.914063,4.79731011390686
1617967410.98288,22.37305,4.8129401206970215
1617967410.9985,34.17578,4.82856011390686
1617967411.01413,42.46362,4.8441901206970215
1617967411.02976,47.875,4.8598198890686035
1617967411.04538,51.05103,4.8754401206970215
1617967411.06101,52.34863,4.8910698890686035
1617967411.07663,51.85962,4.9066901206970215
1617967411.09226,49.62695,4.9223198890686035
1617967411.10788,45.88306,4.9379401206970215
1617967411.12351,41.11841,4.9535698890686035
1617967411.13914,36.02539,4.969199895858765
1617967411.15476,31.28076,4.9848198890686035
1617967411.17039,27.40747,5.000449895858765
1617967411.18601,24.70557,5.0160698890686035
1617967411.20164,23.25586,5.031699895858765
1617967411.21726,22.94946,5.0473198890686035
1617967411.23289,23.51953,5.062949895858765
1617967411.24852,24.59033,5.078579902648926
1617967411.26414,25.71021,5.094199895858765
1617967411.27977,26.44995,5.109829902648926
1617967411.29539,26.4729,5.125449895858765
1617967411.31102,25.58301,5.141079902648926
1617967411.32664,23.73706,5.156699895858765
1617967411.34227,20.99023,5.172329902648926
1617967411.3579,17.42114,5.187959909439087
1617967411.37352,13.09912,5.203579902648926
1617967411.38915,8.071289,5.219209909439087
1617967411.40477,2.394287,5.234829902648926
1617967411.4204,-3.825928,5.250459909439087
1617967411.43602,-10.42041,5.266079902648926
1617967411.45165,-17.1814,5.281709909439087
1617967411.46728,-23.88306,5.297339916229248
1617967411.4829,-30.302,5.312959909439087
1617967411.49853,-36.29907,5.328589916229248
1617967411.51415,-41.82227,5.344209909439087
1617967411.52978,-47.00586,5.359839916229248
1617967411.54541,-52.14697,5.375469923019409
1617967411.56103,-57.68872,5.391089916229248
1617967411.57666,-64.09155,5.406719923019409
1617967411.59228,-71.58789,5.422339916229248
1617967411.60791,-79.93335,5.437969923019409
1617967411.62353,-88.20459,5.453589916229248
1617967411.63916,-94.87476,5.469219923019409
1617967411.65479,-98.15137,5.48484992980957
1617967411.67041,-96.62207,5.500469923019409
1617967411.68604,-89.80615,5.51609992980957
1617967411.70166,-78.46875,5.531719923019409
1617967411.71729,-64.41528,5.54734992980957
1617967411.73291,-49.89819,5.562969923019409
1617967411.74854,-36.8252,5.57859992980957
1617967411.76417,-26.2511,5.5942299365997314
1617967411.77979,-18.28577,5.60984992980957
1617967411.79542,-12.3667,5.6254799365997314
1617967411.81104,-7.814209,5.64109992980957
1617967411.82667,-4.145508,5.6567299365997314
1617967411.84229,-1.189331,5.67234992980957
1617967411.85792,1.098755,5.6879799365997314
1617967411.87355,2.875,5.703609943389893
1617967411.88917,4.525635,5.7192299365997314
1617967411.9048,6.551514,5.734859943389893
1617967411.92042,9.29834,5.7504799365997314
1617967411.93605,12.74695,5.766109943389893
1617967411.95167,16.42456,5.7817299365997314
1617967411.9673,19.53967,5.797359943389893
1617967411.98293,21.28735,5.812989950180054
1617967411.99855,21.14355,5.828609943389893
1617967412.01418,19.14001,5.844239950180054
1617967412.0298,15.875,5.859859943389893
1617967412.04543,12.35828,5.875489950180054
1617967412.06105,9.657593,5.891109943389893
1617967412.07668,8.56604,5.906739950180054
1617967412.09231,9.34021,5.922369956970215
1617967412.10793,11.65271,5.937989950180054
1617967412.12356,14.77332,5.953619956970215
1617967412.13918,17.85632,5.969239950180054
1617967412.15481,20.29224,5.984869956970215
1617967412.17043,21.87988,6.000489950180054
1617967412.18606,22.86389,6.016119956970215
1617967412.20169,23.71631,6.031749963760376
1617967412.21731,24.86865,6.047369956970215
1617967412.23294,26.41357,6.062999963760376
1617967412.24856,27.99866,6.078619956970215
1617967412.26419,28.93323,6.094249963760376
1617967412.27981,28.43164,6.109869956970215
1617967412.29544,26.02039,6.125499963760376
1617967412.31107,21.85938,6.141129970550537
1617967412.32669,16.95532,6.156749963760376
1617967412.34232,13.06763,6.172379970550537
1617967412.35794,12.41345,6.187999963760376
1617967412.37357,17.09998,6.203629970550537
1617967412.38919,28.48694,6.219249963760376
1617967412.40482,46.61462,6.234879970550537
1617967412.42045,69.78223,6.250509977340698
1617967412.43607,94.48975,6.266129970550537
1617967412.4517,115.9916,6.281759977340698
1617967412.46732,129.4335,6.297379970550537
1617967412.48295,131.3278,6.313009977340698
1617967412.49857,120.8718,6.328629970550537
1617967412.5142,100.4032,6.344259977340698
1617967412.52983,74.69495,6.359889984130859
1617967412.54545,49.30212,6.375509977340698
1617967412.56108,28.56689,6.391139984130859
1617967412.5767,14.37646,6.406759977340698
1617967412.59233,5.962891,6.422389984130859
1617967412.60795,0.9396973,6.438009977340698
1617967412.62358,-3.263428,6.453639984130859
1617967412.63921,-8.220093,6.4692699909210205
1617967412.65483,-14.21838,6.484889984130859
1617967412.67046,-20.67163,6.5005199909210205
1617967412.68608,-26.82373,6.516139984130859
1617967412.70171,-32.25159,6.5317699909210205
1617967412.71733,-36.83813,6.547389984130859
1617967412.73296,-40.51575,6.5630199909210205
1617967412.74859,-43.00891,6.578649997711182
1617967412.76421,-43.91089,6.5942699909210205
1617967412.77984,-42.88892,6.609899997711182
1617967412.79546,-40.04358,6.6255199909210205
1617967412.81109,-36.0304,6.641149997711182
1617967412.82671,-31.89148,6.6567699909210205
1617967412.84234,-28.80469,6.672399997711182
1617967412.85797,-27.69397,6.688030004501343
1617967412.87359,-28.98108,6.703649997711182
1617967412.88922,-32.48645,6.719280004501343
1617967412.90484,-37.50403,6.734899997711182
1617967412.92047,-43.0177,6.750530004501343
1617967412.93609,-48.05835,6.766149997711182
1617967412.95172,-51.98303,6.781780004501343
1617967412.96735,-54.64539,6.797410011291504
1617967412.98297,-56.36255,6.813030004501343
1617967412.9986,-57.73132,6.828660011291504
1617967413.01422,-59.37708,6.844280004501343
1617967413.02985,-61.75354,6.859910011291504
1617967413.04547,-65.0741,6.875530004501343
1617967413.0611,-69.32104,6.891160011291504
1617967413.07673,-74.24963,6.906790018081665
1617967413.09235,-79.35461,6.922410011291504
1617967413.10798,-83.53577,6.938040018081665
1617967413.1236,-85.37427,6.953660011291504
1617967413.13923,-83.40247,6.969290018081665
1617967413.15485,-76.56641,6.984910011291504
1617967413.17048,-64.63318,7.000540018081665
1617967413.18611,-48.40991,7.016170024871826
1617967413.20173,-29.68372,7.031790018081665
1617967413.21736,-10.74585,7.047420024871826
1617967413.23298,6.184204,7.063040018081665
1617967413.24861,19.81677,7.078670024871826
1617967413.26423,29.71851,7.094290018081665
1617967413.27986,36.151,7.109920024871826
1617967413.29549,39.65466,7.125550031661987
1617967413.31111,40.79395,7.141170024871826
1617967413.32674,40.02039,7.156800031661987
1617967413.34236,37.73682,7.172420024871826
1617967413.35799,34.44409,7.188050031661987
1617967413.37361,30.78235,7.203670024871826
1617967413.38924,28.01294,7.219300031661987
1617967413.40487,27.18994,7.234930038452148
1617967413.42049,28.72449,7.250550031661987
1617967413.43612,32.21265,7.266180038452148
1617967413.45174,36.70068,7.281800031661987
1617967413.46737,41.13684,7.297430038452148
1617967413.48299,44.77844,7.313050031661987
1617967413.49862,47.39319,7.328680038452148
1617967413.51425,49.22192,7.34431004524231
1617967413.52987,52.1637,7.359930038452148
1617967413.5455,57.63599,7.37556004524231
1617967413.56112,65.67664,7.391180038452148
1617967413.57675,74.79492,7.40681004524231
1617967413.59237,82.77441,7.422430038452148
1617967413.608,87.83032,7.43806004524231
1617967413.62363,89.29724,7.453690052032471
1617967413.63925,87.6582,7.46931004524231
1617967413.65488,84.09534,7.484940052032471
1617967413.6705,82.79932,7.50056004524231
1617967413.68613,86.80945,7.516190052032471
1617967413.70175,96.55933,7.53181004524231
1617967413.71738,109.8491,7.547440052032471
1617967413.73301,123.2661,7.563070058822632
1617967413.74863,134.0767,7.578690052032471
1617967413.76426,141.0282,7.594320058822632
1617967413.77988,144.1985,7.609940052032471
1617967413.79551,144.3936,7.625570058822632
1617967413.81114,147.4036,7.641200065612793
1617967413.82676,157.993,7.656820058822632
1617967413.84239,177.895,7.672450065612793
1617967413.85801,205.4646,7.688070058822632
1617967413.87364,237.178,7.703700065612793
1617967413.88926,269.6597,7.719320058822632
1617967413.90489,300.4733,7.734950065612793
1617967413.92052,327.8671,7.750580072402954
1617967413.93614,350.3782,7.766200065612793
1617967413.95177,372.8491,7.781830072402954
1617967413.96739,399.1289,7.797450065612793
1617967413.98302,429.5543,7.813080072402954
1617967413.99864,460.6845,7.828700065612793
1617967414.01427,487.288,7.844330072402954
1617967414.0299,505.2376,7.859960079193115
1617967414.04552,512.9527,7.875580072402954
1617967414.06115,511.2419,7.891210079193115
1617967414.07677,465.578,7.906830072402954
1617967414.0924,359.5536,7.922460079193115
1617967414.10802,200.2649,7.938080072402954
1617967414.12365,17.8045,7.953710079193115
1617967414.13928,-151.9833,7.969340085983276
1617967414.1549,-286.2281,7.984960079193115
1617967414.17053,-379.3162,8.000590085983276
1617967414.18615,-436.6871,8.016210079193115
1617967414.20178,-467.705,8.031840085983276
1617967414.2174,-481.4554,8.047460079193115
1617967414.23303,-479.3187,8.063090085983276
1617967414.24866,-460.1583,8.078720092773438
1617967414.26428,-428.0997,8.094340085983276
1617967414.27991,-389.9779,8.109970092773438
1617967414.29553,-353.209,8.125590085983276
1617967414.31116,-323.135,8.141220092773438
1617967414.32678,-301.8908,8.156840085983276
1617967414.34241,-289.0659,8.172470092773438
1617967414.35804,-282.9629,8.188100099563599
1617967414.37366,-276.9351,8.203720092773438
1617967414.38929,-265.7325,8.219350099563599
1617967414.40491,-247.9122,8.234970092773438
1617967414.42054,-226.6678,8.250600099563599
1617967414.43616,-206.1129,8.266220092773438
1617967414.45179,-189.4406,8.281850099563599
1617967414.46742,-177.929,8.29748010635376
1617967414.48304,-171.3348,8.313100099563599
1617967414.49867,-168.7667,8.32873010635376
1617967414.51429,-166.3794,8.344350099563599
1617967414.52992,-161.1041,8.35998010635376
1617967414.54554,-151.9728,8.375600099563599
1617967414.56117,-139.6823,8.39123010635376
1617967414.5768,-125.4727,8.406860113143921
1617967414.59242,-110.0853,8.42248010635376
1617967414.60805,-93.37608,8.438110113143921
1617967414.62367,-74.93733,8.45373010635376
1617967414.6393,-54.79964,8.469360113143921
1617967414.65492,-32.47473,8.48498010635376
1617967414.67055,-8.558254,8.500610113143921
1617967414.68618,14.96645,8.516240119934082
1617967414.7018,35.54191,8.531860113143921
1617967414.71743,51.06074,8.547490119934082
1617967414.73305,60.51761,8.563110113143921
1617967414.74868,64.25912,8.578740119934082
1617967414.7643,63.36803,8.594360113143921
1617967414.77993,59.04127,8.609990119934082
1617967414.79556,52.67696,8.625619888305664
1617967414.81118,45.26076,8.641240119934082
1617967414.82681,37.32106,8.656869888305664
1617967414.84243,29.2675,8.672490119934082
1617967414.85806,21.60022,8.688119888305664
1617967414.87368,14.72241,8.703740119934082
1617967414.88931,8.767517,8.719369888305664
1617967414.90494,3.355469,8.734999895095825
1617967414.92056,-2.280746,8.750619888305664
1617967414.93619,-8.893631,8.766249895095825
1617967414.95181,-16.81796,8.781869888305664
1617967414.96744,-25.88487,8.797499895095825
1617967414.98306,-35.58321,8.813119888305664
1617967414.99869,-45.45662,8.828749895095825
1617967415.01432,-55.46686,8.844379901885986
1617967415.02994,-65.98361,8.859999895095825
1617967415.04557,-77.52844,8.875629901885986
1617967415.06119,-90.3887,8.891249895095825
1617967415.07682,-104.3631,8.906879901885986
1617967415.09244,-118.7635,8.922499895095825
1617967415.10807,-132.5925,8.938129901885986
1617967415.1237,-145.0359,8.953759908676147
1617967415.13932,-155.679,8.969379901885986
1617967415.15495,-164.4932,8.985009908676147
1617967415.17057,-171.6934,9.000629901885986
1617967415.1862,-177.5026,9.016259908676147
1617967415.20182,-181.9895,9.031879901885986
1617967415.21745,-185.0809,9.047509908676147
1617967415.23308,-186.5789,9.063139915466309
1617967415.2487,-186.0852,9.078759908676147
1617967415.26433,-182.9699,9.094389915466309
1617967415.27995,-176.3477,9.110009908676147
1617967415.29558,-165.1863,9.125639915466309
1617967415.3112,-148.701,9.141259908676147
1617967415.32683,-126.7722,9.156889915466309
1617967415.34246,-100.204,9.17251992225647
1617967415.35808,-70.80676,9.188139915466309
1617967415.37371,-41.0451,9.20376992225647
1617967415.38933,-13.33453,9.219389915466309
1617967415.40496,10.61053,9.23501992225647
1617967415.42058,30.16571,9.250639915466309
1617967415.43621,45.80402,9.26626992225647
1617967415.45184,58.68347,9.28189992904663
1617967415.46746,70.14499,9.29751992225647
1617967415.48309,81.23001,9.31314992904663
1617967415.49871,92.42426,9.32876992225647
1617967415.51434,103.7726,9.34439992904663
1617967415.52996,115.2182,9.36001992225647
1617967415.54559,126.9023,9.37564992904663
1617967415.56122,139.2883,9.391279935836792
1617967415.57684,152.9708,9.40689992904663
1617967415.59247,168.2039,9.422529935836792
1617967415.60809,184.6083,9.43814992904663
1617967415.62372,201.0764,9.453779935836792
1617967415.63934,215.9218,9.46939992904663
1617967415.65497,227.3976,9.485029935836792
1617967415.6706,234.1458,9.500659942626953
1617967415.68622,235.4075,9.516279935836792
1617967415.70185,230.9925,9.531909942626953
1617967415.71747,220.9977,9.547529935836792
1617967415.7331,205.5307,9.563159942626953
1617967415.74872,184.6597,9.578779935836792
1617967415.76435,158.5906,9.594409942626953
1617967415.77998,127.8727,9.610039949417114
1617967415.7956,93.59274,9.625659942626953
1617967415.81123,57.26523,9.641289949417114
1617967415.82685,20.46579,9.656909942626953
1617967415.84248,-15.34766,9.672539949417114
1617967415.8581,-48.91867,9.688159942626953
1617967415.87373,-79.08633,9.703789949417114
1617967415.88936,-104.5684,9.719419956207275
1617967415.90498,-123.9296,9.735039949417114
1617967415.92061,-135.8214,9.750669956207275
1617967415.93623,-139.453,9.766289949417114
1617967415.95186,-135.0072,9.781919956207275
1617967415.96748,-123.8073,9.797539949417114
1617967415.98311,-108.0571,9.813169956207275
1617967415.99874,-90.27008,9.828799962997437
1617967416.01436,-72.70514,9.844419956207275
1617967416.02999,-56.90686,9.860049962997437
1617967416.04561,-43.65906,9.875669956207275
1617967416.06124,-33.1391,9.891299962997437
1617967416.07686,-25.16602,9.906919956207275
1617967416.09249,-19.35779,9.922549962997437
1617967416.10812,-15.19141,9.938179969787598
1617967416.12374,-12.02484,9.953799962997437
1617967416.13937,-9.166443,9.969429969787598
1617967416.15499,-6.093628,9.985049962997437
1617967416.17062,-2.614563,10.000679969787598
1617967416.18624,1.045166,10.016299962997437
1617967416.20187,4.428833,10.031929969787598
1617967416.2175,7.114624,10.047559976577759
1617967416.23312,9.073242,10.063179969787598
1617967416.24875,10.73999,10.078809976577759
1617967416.26437,12.77155,10.094429969787598
1617967416.28,15.62897,10.110059976577759
1617967416.29562,19.1626,10.125679969787598
1617967416.31125,22.5423,10.141309976577759
1617967416.32688,24.48383,10.15693998336792
1617967416.3425,23.7832,10.172559976577759
1617967416.35813,19.78845,10.18818998336792
1617967416.37375,12.66504,10.203809976577759
1617967416.38938,3.313538,10.21943998336792
1617967416.405,-7.015442,10.235059976577759
1617967416.42063,-17.1286,10.25068998336792
1617967416.43626,-26.27161,10.266319990158081
1617967416.45188,-34.21722,10.28193998336792
1617967416.46751,-41.16638,10.297569990158081
1617967416.48313,-47.46588,10.31318998336792
1617967416.49876,-53.32843,10.328819990158081
1617967416.51439,-58.68512,10.344449996948242
1617967416.53001,-63.21442,10.360069990158081
1617967416.54564,-66.59058,10.375699996948242
1617967416.56126,-68.65179,10.391319990158081
1617967416.57689,-69.53949,10.406949996948242
1617967416.59251,-69.58685,10.422569990158081
1617967416.60814,-69.13373,10.438199996948242
1617967416.62377,-68.35602,10.453830003738403
1617967416.63939,-67.22833,10.469449996948242
1617967416.65502,-65.56854,10.485080003738403
1617967416.67064,-63.14398,10.500699996948242
1617967416.68627,-59.64911,10.516330003738403
1617967416.70189,-54.59229,10.531949996948242
1617967416.71752,-47.26227,10.547580003738403
1617967416.73315,-36.78253,10.563210010528564
1617967416.74877,-22.47113,10.578830003738403
1617967416.7644,-4.224731,10.594460010528564
1617967416.78002,17.22559,10.610080003738403
1617967416.79565,40.48615,10.625710010528564
1617967416.81127,63.93402,10.641330003738403
1617967416.8269,86.24359,10.656960010528564
1617967416.84253,106.7385,10.672590017318726
1617967416.85815,125.2726,10.688210010528564
1617967416.87378,141.8533,10.703840017318726
1617967416.8894,156.1674,10.719460010528564
1617967416.90503,167.4406,10.735090017318726
1617967416.92065,174.8165,10.750710010528564
1617967416.93628,178.1092,10.766340017318726
1617967416.95191,178.3895,10.781970024108887
1617967416.96753,177.8716,10.797590017318726
1617967416.98316,179.0962,10.813220024108887
1617967416.99878,183.6343,10.828840017318726
1617967417.01441,191.1716,10.844470024108887
1617967417.03003,199.4568,10.860090017318726
1617967417.04566,205.153,10.875720024108887
1617967417.06129,205.3291,10.891350030899048
1617967417.07691,198.7041,10.906970024108887
1617967417.09254,186.0673,10.922600030899048
1617967417.10816,169.5575,10.938220024108887
1617967417.12379,151.4982,10.953850030899048
1617967417.13941,133.3694,10.969470024108887
1617967417.15504,115.5691,10.985100030899048
1617967417.17067,97.8866,11.000730037689209
1617967417.18629,80.22839,11.016350030899048
1617967417.20192,63.08484,11.031980037689209
1617967417.21754,47.27979,11.047600030899048
1617967417.23317,33.43127,11.063230037689209
1617967417.24879,21.42029,11.078850030899048
1617967417.26442,10.3103,11.094480037689209
1617967417.28005,-1.310425,11.11011004447937
1617967417.29567,-14.73035,11.125730037689209
1617967417.3113,-30.68384,11.14136004447937
1617967417.32692,-49.24585,11.156980037689209
1617967417.34255,-69.87073,11.17261004447937
1617967417.35817,-91.58496,11.188230037689209
1617967417.3738,-113.1185,11.20386004447937
1617967417.38943,-132.9956,11.219490051269531
1617967417.40505,-149.7084,11.23511004447937
1617967417.42068,-162.121,11.250740051269531
1617967417.4363,-169.8662,11.26636004447937
1617967417.45193,-173.4999,11.281990051269531
1617967417.46755,-174.356,11.29761004447937
1617967417.48318,-174.0316,11.313240051269531
1617967417.49881,-173.7864,11.328870058059692
1617967417.51443,-174.1,11.344490051269531
1617967417.53006,-174.4896,11.360120058059692
1617967417.54568,-173.7106,11.375740051269531
1617967417.56131,-170.2726,11.391370058059692
1617967417.57693,-163.0063,11.406990051269531
1617967417.59256,-151.458,11.422620058059692
1617967417.60819,-136.0728,11.438250064849854
1617967417.62381,-118.0894,11.453870058059692
1617967417.63944,-99.16284,11.469500064849854
1617967417.65506,-80.92236,11.485120058059692
1617967417.67069,-64.52222,11.500750064849854
1617967417.68631,-50.51892,11.516370058059692
1617967417.70194,-38.8927,11.532000064849854
1617967417.71757,-29.31763,11.547630071640015
1617967417.73319,-21.35645,11.563250064849854
1617967417.74882,-14.55371,11.578880071640015
1617967417.76444,-8.401123,11.594500064849854
1617967417.78007,-2.241699,11.610130071640015
1617967417.79569,4.702515,11.625750064849854
1617967417.81132,13.13342,11.641380071640015
1617967417.82695,23.36389,11.657010078430176
1617967417.84257,35.06018,11.672630071640015
1617967417.8582,47.21021,11.688260078430176
1617967417.87382,58.45117,11.703880071640015
1617967417.88945,67.5769,11.719510078430176
1617967417.90507,74.05811,11.735130071640015
1617967417.9207,78.2677,11.750760078430176
1617967417.93633,81.26746,11.766390085220337
1617967417.95195,84.33789,11.782010078430176
1617967417.96758,88.41809,11.797640085220337
1617967417.9832,93.8241,11.813260078430176
1617967417.99883,100.2664,11.828890085220337
1617967418.01445,107.1815,11.844510078430176
1617967418.03008,113.9916,11.860140085220337
1617967418.04571,120.1674,11.875770092010498
1617967418.06133,125.1047,11.891390085220337
1617967418.07696,127.9677,11.907020092010498
1617967418.09258,127.7743,11.922640085220337
1617967418.10821,123.8796,11.938270092010498
1617967418.12383,116.4653,11.953890085220337
1617967418.13946,106.7939,11.969520092010498
1617967418.15509,96.95483,11.98515009880066
1617967418.17071,89.13184,12.000770092010498
1617967418.18634,84.81274,12.01640009880066
1617967418.20196,84.35205,12.032020092010498
1617967418.21759,87.1499,12.04765009880066
1617967418.23321,92.24512,12.063270092010498
1617967418.24884,98.99268,12.07890009880066
1617967418.26447,107.3545,12.09453010559082
1617967418.28009,117.6719,12.11015009880066
1617967418.29572,130.009,12.12578010559082
1617967418.31134,143.6013,12.14140009880066
1617967418.32697,156.6101,12.15703010559082
1617967418.34259,166.5254,12.17265009880066
1617967418.35822,170.9509,12.18828010559082
1617967418.37385,168.5576,12.203910112380981
1617967418.38947,159.6609,12.21953010559082
1617967418.4051,146.2808,12.235160112380981
1617967418.42072,131.4763,12.25078010559082
1617967418.43635,118.2598,12.266410112380981
1617967418.45197,108.5476,12.28203010559082
1617967418.4676,102.5332,12.297660112380981
1617967418.48323,98.84595,12.313290119171143
1617967418.49885,95.45117,12.328910112380981
1617967418.51448,90.72876,12.344540119171143
1617967418.5301,84.31494,12.360160112380981
1617967418.54573,77.2627,12.375790119171143
1617967418.56135,71.55298,12.391410112380981
1617967418.57698,69.24438,12.407040119171143
1617967418.59261,71.67944,12.422669887542725
1617967418.60823,79.08228,12.438290119171143
1617967418.62386,90.53125,12.453919887542725
1617967418.63948,104.1079,12.469540119171143
1617967418.65511,117.2007,12.485169887542725
1617967418.67074,126.9072,12.500799894332886
1617967418.68636,130.604,12.516419887542725
1617967418.70199,126.6687,12.532049894332886
1617967418.71761,115.0403,12.547669887542725
1617967418.73324,97.37549,12.563299894332886
1617967418.74886,76.51392,12.578919887542725
1617967418.76449,55.46167,12.594549894332886
1617967418.78012,36.31836,12.610179901123047
1617967418.79574,19.62524,12.625799894332886
1617967418.81137,4.508057,12.641429901123047
1617967418.82699,-10.56201,12.657049894332886
1617967418.84262,-26.85327,12.672679901123047
1617967418.85824,-44.78394,12.688299894332886
1617967418.87387,-63.87842,12.703929901123047
1617967418.8895,-83.21021,12.719559907913208
1617967418.90512,-101.8928,12.735179901123047
1617967418.92075,-119.405,12.750809907913208
1617967418.93637,-135.5728,12.766429901123047
1617967418.952,-150.4126,12.782059907913208
1617967418.96762,-163.9426,12.797679901123047
1617967418.98325,-176.1362,12.813309907913208
1617967418.99888,-186.916,12.82893991470337
1617967419.0145,-196.072,12.844559907913208
1617967419.03013,-203.2366,12.86018991470337
1617967419.04575,-207.8711,12.875809907913208
1617967419.06138,-209.4421,12.89143991470337
1617967419.077,-207.7524,12.907059907913208
1617967419.09263,-203.2693,12.92268991470337
1617967419.10826,-197.198,12.93831992149353
1617967419.12388,-191.1692,12.95393991470337
1617967419.13951,-186.7378,12.96956992149353
1617967419.15513,-184.8667,12.98518991470337
1617967419.17076,-185.7939,13.00081992149353
1617967419.18638,-189.2275,13.01643991470337
1617967419.20201,-194.5522,13.03206992149353
1617967419.21764,-200.9517,13.047699928283691
1617967419.23326,-207.312,13.06331992149353
1617967419.24889,-212.2764,13.078949928283691
1617967419.26451,-214.6118,13.09456992149353
1617967419.28014,-213.8462,13.110199928283691
1617967419.29576,-210.7593,13.12581992149353
1617967419.31139,-207.2388,13.141449928283691
1617967419.32702,-205.3467,13.157079935073853
1617967419.34264,-206.1001,13.172699928283691
1617967419.35827,-208.7114,13.188329935073853
1617967419.37389,-210.9077,13.203949928283691
1617967419.38952,-210.2222,13.219579935073853
1617967419.40514,-205.4668,13.235199928283691
1617967419.42077,-197.5684,13.250829935073853
1617967419.4364,-189.1543,13.266459941864014
1617967419.45202,-183.3159,13.282079935073853
1617967419.46765,-182.2583,13.297709941864014
1617967419.48327,-186.6631,13.313329935073853
1617967419.4989,-195.855,13.328959941864014
1617967419.51452,-208.3979,13.344579935073853
1617967419.53015,-222.644,13.360209941864014
1617967419.54578,-236.8643,13.375839948654175
1617967419.5614,-249.1636,13.391459941864014
1617967419.57703,-257.5205,13.407089948654175
1617967419.59265,-260.1592,13.422709941864014
1617967419.60828,-256.1348,13.438339948654175
1617967419.6239,-245.7524,13.453959941864014
1617967419.63953,-230.6416,13.469589948654175
1617967419.65516,-213.2295,13.485219955444336
1617967419.67078,-196.0327,13.500839948654175
1617967419.68641,-180.9404,13.516469955444336
1617967419.70203,-168.8228,13.532089948654175
1617967419.71766,-159.4536,13.547719955444336
1617967419.73328,-151.7832,13.563339948654175
1617967419.74891,-144.4004,13.578969955444336
1617967419.76454,-136.0669,13.594599962234497
1617967419.78016,-126.1748,13.610219955444336
1617967419.79579,-114.9043,13.625849962234497
1617967419.81141,-103.1826,13.641469955444336
1617967419.82704,-92.28467,13.657099962234497
1617967419.84266,-83.3623,13.672719955444336
1617967419.85829,-76.9624,13.688349962234497
1617967419.87392,-72.79346,13.703979969024658
1617967419.88954,-69.74902,13.719599962234497
1617967419.90517,-66.24756,13.735229969024658
1617967419.92079,-60.77637,13.750849962234497
1617967419.93642,-52.43018,13.766479969024658
1617967419.95204,-41.35742,13.782099962234497
1617967419.96767,-28.71533,13.797729969024658
1617967419.9833,-16.35498,13.81335997581482
1617967419.99892,-6.066895,13.828979969024658
1617967420.01455,1.016113,13.84460997581482
1617967420.03017,4.831055,13.860229969024658
1617967420.0458,6.274902,13.87585997581482
1617967420.06142,6.723633,13.891479969024658
1617967420.07705,7.404297,13.90710997581482
1617967420.09268,8.979492,13.92273998260498
1617967420.1083,11.5293,13.93835997581482
1617967420.12393,14.70947,13.95398998260498
1617967420.13955,18.08472,13.96960997581482
1617967420.15518,21.30249,13.98523998260498
1617967420.1708,24.11035,14.00085997581482
1617967420.18643,26.37134,14.01648998260498
1617967420.20206,28.03125,14.032119989395142
1617967420.21768,29.12695,14.04773998260498
1617967420.23331,29.76782,14.063369989395142
1617967420.24893,30.0813,14.07898998260498
1617967420.26456,30.11108,14.094619989395142
1617967420.28018,29.75488,14.11023998260498
1617967420.29581,28.8042,14.125869989395142
1617967420.31144,27.02222,14.141499996185303
1617967420.32706,24.30176,14.157119989395142
1617967420.34269,20.74414,14.172749996185303
1617967420.35831,16.66943,14.188369989395142
1617967420.37394,12.51709,14.203999996185303
1617967420.38956,8.762207,14.219619989395142
1617967420.40519,5.792725,14.235249996185303
1617967420.42082,3.835205,14.250880002975464
1617967420.43644,2.967773,14.266499996185303
1617967420.45207,3.162109,14.282130002975464
1617967420.46769,4.289307,14.297749996185303
1617967420.48332,6.114502,14.313380002975464
1617967420.49894,8.373535,14.328999996185303
1617967420.51457,10.80713,14.344630002975464
1617967420.5302,13.28516,14.360260009765625
1617967420.54582,15.86841,14.375880002975464
1617967420.56145,18.83765,14.391510009765625
1617967420.57707,22.56812,14.407130002975464
1617967420.5927,27.31494,14.422760009765625
1617967420.60832,33.00928,14.438380002975464
1617967420.62395,39.1687,14.454010009765625
1617967420.63958,44.9668,14.469640016555786
1617967420.6552,49.52515,14.485260009765625
1617967420.67083,52.15674,14.500890016555786
1617967420.68645,52.56519,14.516510009765625
1617967420.70208,50.78857,14.532140016555786
1617967420.7177,47.04297,14.547760009765625
1617967420.73333,41.59131,14.563390016555786
1617967420.74896,34.73657,14.579020023345947
1617967420.76458,26.90845,14.594640016555786
1617967420.78021,18.7876,14.610270023345947
1617967420.79583,11.30518,14.625890016555786
1617967420.81146,5.393799,14.641520023345947
1617967420.82708,1.785645,14.657140016555786
1617967420.84271,0.7236328,14.672770023345947
1617967420.85834,1.839355,14.688400030136108
1617967420.87396,4.312988,14.704020023345947
1617967420.88959,7.049316,14.719650030136108
1617967420.90521,9.047363,14.735270023345947
1617967420.92084,9.62915,14.750900030136108
1617967420.93647,8.552734,14.76653003692627
1617967420.95209,5.979004,14.782150030136108
1617967420.96772,2.234619,14.79778003692627
1617967420.98334,-2.373291,14.813400030136108
1617967420.99897,-7.736816,14.82903003692627
1617967421.01459,-13.85034,14.844650030136108
1617967421.03022,-20.65894,14.86028003692627
1617967421.04585,-27.89917,14.87591004371643
1617967421.06147,-35.05078,14.89153003692627
1617967421.0771,-41.43384,14.90716004371643
1617967421.09272,-46.35254,14.92278003692627
1617967421.10835,-49.14624,14.93841004371643
1617967421.12397,-49.1604,14.95403003692627
1617967421.1396,-45.84326,14.96966004371643
1617967421.15523,-38.90259,14.985290050506592
1617967421.17085,-28.62354,15.00091004371643
1617967421.18648,-16.03003,15.016540050506592
1617967421.2021,-2.748047,15.03216004371643
1617967421.21773,9.522217,15.047790050506592
1617967421.23335,19.62793,15.06341004371643
1617967421.24898,27.3667,15.079040050506592
1617967421.26461,33.3291,15.094670057296753
1617967421.28023,38.354,15.110290050506592
1617967421.29586,42.90405,15.125920057296753
1617967421.31148,46.74341,15.141540050506592
1617967421.32711,49.1748,15.157170057296753
1617967421.34273,49.56567,15.172790050506592
1617967421.35836,47.84448,15.188420057296753
1617967421.37399,44.56738,15.204050064086914
1617967421.38961,40.61255,15.219670057296753
1617967421.40524,36.823,15.235300064086914
1617967421.42086,33.65601,15.250920057296753
1617967421.43649,31.24048,15.266550064086914
1617967421.45211,29.44653,15.282170057296753
1617967421.46774,28.01855,15.297800064086914
1617967421.48337,26.63745,15.313430070877075
1617967421.49899,25.00122,15.329050064086914
1617967421.51462,22.89575,15.344680070877075
1617967421.53024,20.36011,15.360300064086914
1617967421.54587,17.74097,15.375930070877075
1617967421.56149,15.63379,15.391550064086914
1617967421.57712,14.6106,15.407180070877075
1617967421.59275,14.98315,15.422810077667236
1617967421.60837,16.59619,15.438430070877075
1617967421.624,18.86182,15.454060077667236
1617967421.63962,21.01978,15.469680070877075
1617967421.65525,22.3667,15.485310077667236
1617967421.67087,22.4729,15.500930070877075
1617967421.6865,21.26025,15.516560077667236
1617967421.70213,18.88086,15.532190084457397
1617967421.71775,15.58643,15.547810077667236
1617967421.73338,11.66162,15.563440084457397
1617967421.749,7.291016,15.579060077667236
1617967421.76463,2.532227,15.594690084457397
1617967421.78025,-2.651123,15.610310077667236
1617967421.79588,-8.311279,15.625940084457397
1617967421.81151,-14.36499,15.641570091247559
1617967421.82713,-20.46631,15.657190084457397
1617967421.84276,-26.06763,15.672820091247559
1617967421.85838,-30.52222,15.688440084457397
1617967421.87401,-33.25073,15.704070091247559
1617967421.88963,-33.89111,15.719690084457397
1617967421.90526,-32.33936,15.735320091247559
1617967421.92089,-28.71411,15.75095009803772
1617967421.93651,-23.31299,15.766570091247559
1617967421.95214,-16.59741,15.78220009803772
1617967421.96776,-9.113525,15.797820091247559
1617967421.98339,-1.506104,15.81345009803772
1617967421.99901,5.640137,15.829070091247559
1617967422.01464,11.96411,15.84470009803772
1617967422.03027,17.42236,15.86033010482788
1617967422.04589,22.33203,15.87595009803772
1617967422.06152,27.26733,15.89158010482788
1617967422.07714,32.75146,15.90720009803772
1617967422.09277,39.00024,15.92283010482788
1617967422.10839,45.74805,15.93845009803772
1617967422.12402,52.25781,15.95408010482788
1617967422.13965,57.57593,15.969710111618042
1617967422.15527,60.88818,15.98533010482788
1617967422.1709,61.85718,16.000960111618042
1617967422.18652,60.76611,16.01658010482788
1617967422.20215,58.48389,16.032210111618042
1617967422.21777,56.1853,16.04783010482788
1617967422.2334,55.02979,16.063460111618042
1617967422.24903,55.88501,16.079090118408203
1617967422.26465,59.16968,16.094710111618042
1617967422.28028,64.79517,16.110340118408203
1617967422.2959,72.25464,16.125960111618042
1617967422.31153,80.68555,16.141590118408203
1617967422.32715,89.03516,16.157210111618042
1617967422.34278,96.19312,16.172840118408203
1617967422.35841,101.1846,16.188469886779785
1617967422.37403,103.4026,16.204090118408203
1617967422.38966,102.7119,16.219719886779785
1617967422.40528,99.49194,16.235340118408203
1617967422.42091,94.44128,16.250969886779785
1617967422.43653,88.31042,16.266590118408203
1617967422.45216,81.62231,16.282219886779785
1617967422.46779,74.61084,16.297849893569946
1617967422.48341,67.28931,16.313469886779785
1617967422.49904,59.75391,16.329099893569946
1617967422.51466,52.3916,16.344719886779785
1617967422.53029,45.91931,16.360349893569946
1617967422.54591,41.21326,16.375969886779785
1617967422.56154,38.95117,16.391599893569946
1617967422.57717,39.36572,16.407229900360107
1617967422.59279,42.17627,16.422849893569946
1617967422.60842,46.75122,16.438479900360107
1617967422.62404,52.3772,16.454099893569946
1617967422.63967,58.40198,16.469729900360107
1617967422.65529,64.23193,16.485349893569946
1617967422.67092,69.17712,16.500979900360107
1617967422.68655,72.36145,16.51660990715027
1617967422.70217,72.83252,16.532229900360107
1617967422.7178,69.86145,16.54785990715027
1617967422.73342,63.25244,16.563479900360107
1617967422.74905,53.55566,16.57910990715027
1617967422.76467,41.93469,16.594729900360107
1617967422.7803,29.86206,16.61035990715027
1617967422.79593,18.69727,16.62598991394043
1617967422.81155,9.463379,16.64160990715027
1617967422.82718,2.765747,16.65723991394043
1617967422.8428,-1.181396,16.67285990715027
1617967422.85843,-2.424438,16.68848991394043
1617967422.87405,-1.172363,16.70410990715027
1617967422.88968,2.195557,16.71973991394043
1617967422.90531,7.224731,16.73536992073059
1617967422.92093,13.46387,16.75098991394043
1617967422.93656,20.53894,16.76661992073059
1617967422.95218,28.13489,16.78223991394043
1617967422.96781,35.92468,16.79786992073059
1617967422.98343,43.44434,16.81348991394043
1617967422.99906,50.02661,16.82911992073059
1617967423.01469,54.96338,16.844749927520752
1617967423.03031,57.68555,16.86036992073059
1617967423.04594,57.90881,16.875999927520752
1617967423.06156,55.72607,16.89161992073059
1617967423.07719,51.5094,16.907249927520752
1617967423.09281,45.77917,16.92286992073059
1617967423.10844,39.09497,16.938499927520752
1617967423.12407,31.98877,16.954129934310913
1617967423.13969,24.91626,16.969749927520752
1617967423.15532,18.21875,16.985379934310913
1617967423.17094,12.12671,17.000999927520752
1617967423.18657,6.737549,17.016629934310913
1617967423.20219,2.097656,17.032249927520752
1617967423.21782,-1.785645,17.047879934310913
1617967423.23345,-4.940186,17.063509941101074
1617967423.24907,-7.49292,17.079129934310913
1617967423.2647,-9.799805,17.094759941101074
1617967423.28032,-12.37769,17.110379934310913
1617967423.29595,-15.81445,17.126009941101074
1617967423.31157,-20.45581,17.141629934310913
1617967423.3272,-26.19531,17.157259941101074
1617967423.34283,-32.47778,17.172889947891235
1617967423.35845,-38.51196,17.188509941101074
1617967423.37408,-43.67065,17.204139947891235
1617967423.3897,-47.69312,17.219759941101074
1617967423.40533,-50.77637,17.235389947891235
1617967423.42095,-53.27319,17.251009941101074
1617967423.43658,-55.43896,17.266639947891235
1617967423.45221,-57.26074,17.282269954681396
1617967423.46783,-58.50488,17.297889947891235
1617967423.48346,-58.98364,17.313519954681396
1617967423.49908,-58.69702,17.329139947891235
1617967423.51471,-57.95386,17.344769954681396
1617967423.53034,-57.1123,17.360399961471558
1617967423.54596,-56.45459,17.376019954681396
1617967423.56159,-55.97632,17.391649961471558
1617967423.57721,-55.48364,17.407269954681396
1617967423.59284,-54.71118,17.422899961471558
1617967423.60846,-53.52173,17.438519954681396
1617967423.62409,-51.99951,17.454149961471558
1617967423.63972,-50.34106,17.46977996826172
1617967423.65534,-48.78516,17.485399961471558
1617967423.67097,-47.43433,17.50102996826172
1617967423.68659,-46.3103,17.516649961471558
1617967423.70222,-45.37695,17.53227996826172
1617967423.71784,-44.62817,17.547899961471558
1617967423.73347,-44.05566,17.56352996826172
1617967423.7491,-43.58301,17.57915997505188
1617967423.76472,-43.05518,17.59477996826172
1617967423.78035,-42.25391,17.61040997505188
1617967423.79597,-41.0498,17.62602996826172
1617967423.8116,-39.47021,17.64165997505188
1617967423.82722,-37.73267,17.65727996826172
1617967423.84285,-36.09863,17.67290997505188
1617967423.85848,-34.65894,17.68853998184204
1617967423.8741,-33.28687,17.70415997505188
1617967423.88973,-31.63867,17.71978998184204
1617967423.90535,-29.4187,17.73540997505188
1617967423.92098,-26.57715,17.75103998184204
1617967423.9366,-23.44434,17.76665997505188
1617967423.95223,-20.59204,17.78228998184204
1617967423.96786,-18.57446,17.797919988632202
1617967423.98348,-17.61694,17.81353998184204
1617967423.99911,-17.53564,17.829169988632202
1617967424.01473,-17.82666,17.84478998184204
1617967424.03036,-17.87695,17.860419988632202
1617967424.04598,-17.27417,17.87603998184204
1617967424.06161,-15.93335,17.891669988632202
1617967424.07724,-14.03064,17.907299995422363
1617967424.09286,-11.89185,17.922919988632202
1617967424.10849,-9.79187,17.938549995422363
1617967424.12411,-7.891235,17.954169988632202
1617967424.13974,-6.217041,17.969799995422363
1617967424.15536,-4.717773,17.985419988632202
1617967424.17099,-3.310791,18.001049995422363
1617967424.18662,-1.919312,18.016680002212524
1617967424.20224,-0.5150146,18.032299995422363
1617967424.21787,0.8771973,18.047930002212524
1617967424.23349,2.175171,18.063549995422363
1617967424.24912,3.250244,18.079180002212524
1617967424.26474,3.990234,18.094799995422363
1617967424.28037,4.384766,18.110430002212524
1617967424.296,4.491089,18.126060009002686
1617967424.31162,4.502808,18.141680002212524
1617967424.32725,4.583374,18.157310009002686
1617967424.34287,4.823608,18.172930002212524
1617967424.3585,5.202393,18.188560009002686
1617967424.37412,5.581543,18.204180002212524
1617967424.38975,5.827637,18.219810009002686
1617967424.40538,5.922852,18.235440015792847
1617967424.421,6.023193,18.251060009002686
1617967424.43663,6.358521,18.266690015792847
1617967424.45225,7.077637,18.282310009002686
1617967424.46788,8.096802,18.297940015792847
1617967424.4835,9.134521,18.313560009002686
1617967424.49913,9.85144,18.329190015792847
1617967424.51476,10.01477,18.344820022583008
1617967424.53038,9.696045,18.360440015792847
1617967424.54601,9.216797,18.376070022583008
1617967424.56163,8.975586,18.391690015792847
1617967424.57726,9.215088,18.407320022583008
1617967424.59288,9.854614,18.422940015792847
1617967424.60851,10.57483,18.438570022583008
1617967424.62414,11.00549,18.45420002937317
1617967424.63976,10.93542,18.469820022583008
1617967424.65539,10.46143,18.48545002937317
1617967424.67101,9.865967,18.501070022583008
1617967424.68664,9.459717,18.51670002937317
1617967424.70226,9.390381,18.532320022583008
1617967424.71789,9.560791,18.54795002937317
1617967424.73352,9.74646,18.56358003616333
1617967424.74914,9.677856,18.57920002937317
1617967424.76477,9.21814,18.59483003616333
1617967424.78039,8.416626,18.61045002937317
1617967424.79602,7.437012,18.62608003616333
1617967424.81164,6.495483,18.64170002937317
1617967424.82727,5.710327,18.65733003616333
1617967424.8429,5.127441,18.67296004295349
1617967424.85852,4.682373,18.68858003616333
1617967424.87415,4.3396,18.70421004295349
1617967424.88977,4.081665,18.71983003616333
1617967424.9054,3.887207,18.73546004295349
1617967424.92102,3.707275,18.75108003616333
1617967424.93665,3.454102,18.76671004295349
1617967424.95228,3.052612,18.782340049743652
1617967424.9679,2.495972,18.79796004295349
1617967424.98353,1.926392,18.813590049743652
1617967424.99915,1.574219,18.82921004295349
1617967425.01478,1.665649,18.844840049743652
1617967425.0304,2.284424,18.86046004295349
1617967425.04603,3.324097,18.876090049743652
1617967425.06166,4.510742,18.891720056533813
1617967425.07728,5.600342,18.907340049743652
1617967425.09291,6.453369,18.922970056533813
1617967425.10853,7.124512,18.938590049743652
1617967425.12416,7.807495,18.954220056533813
1617967425.13978,8.671753,18.969840049743652
1617967425.15541,9.799683,18.985470056533813
1617967425.17104,11.13379,19.001100063323975
1617967425.18666,12.50085,19.016720056533813
1617967425.20229,13.68628,19.032350063323975
1617967425.21791,14.48608,19.047970056533813
1617967425.23354,14.76746,19.063600063323975
1617967425.24916,14.50513,19.079220056533813
1617967425.26479,13.78882,19.094850063323975
1617967425.28042,12.85681,19.110480070114136
1617967425.29604,11.99487,19.126100063323975
1617967425.31167,11.42334,19.141730070114136
1617967425.32729,11.2074,19.157350063323975
1617967425.34292,11.24255,19.172980070114136
1617967425.35854,11.2699,19.188600063323975
1617967425.37417,11.11597,19.204230070114136
1617967425.3898,10.75745,19.219860076904297
1617967425.40542,10.38501,19.235480070114136
1617967425.42105,10.30225,19.251110076904297
1617967425.43667,10.71716,19.266730070114136
1617967425.4523,11.63257,19.282360076904297
1617967425.46792,12.75195,19.297980070114136
1617967425.48355,13.68652,19.313610076904297
1617967425.49918,14.0697,19.329240083694458
1617967425.5148,13.77209,19.344860076904297
1617967425.53043,12.90747,19.360490083694458
1617967425.54605,11.76306,19.376110076904297
1617967425.56168,10.66187,19.391740083694458
1617967425.5773,9.890259,19.407360076904297
1617967425.59293,9.56897,19.422990083694458
1617967425.60856,9.681519,19.43862009048462
1617967425.62418,10.05908,19.454240083694458
1617967425.63981,10.44775,19.46987009048462
1617967425.65543,10.56958,19.485490083694458
1617967425.67106,10.27441,19.50112009048462
1617967425.68668,9.594971,19.516740083694458
1617967425.70231,8.722168,19.53237009048462
1617967425.71794,7.904175,19.54800009727478
1617967425.73356,7.297729,19.56362009048462
1617967425.74919,6.874756,19.57925009727478
1617967425.76481,6.429565,19.59487009048462
1617967425.78044,5.730469,19.61050009727478
1617967425.79607,4.632446,19.62613010406494
1617967425.81169,3.162964,19.64175009727478
1617967425.82732,1.541016,19.65738010406494
1617967425.84294,0.02319336,19.67300009727478
1617967425.85857,-1.166504,19.68863010406494
1617967425.87419,-1.902222,19.70425009727478
1617967425.88982,-2.168091,19.71988010406494
1617967425.90545,-2.007935,19.735510110855103
1617967425.92107,-1.5625,19.75113010406494
1617967425.9367,-0.9923096,19.766760110855103
1617967425.95232,-0.5125732,19.78238010406494
1617967425.96795,-0.2884521,19.798010110855103
1617967425.98357,-0.3603516,19.81363010406494
1617967425.9992,-0.6097412,19.829260110855103
1617967426.01483,-0.8057861,19.844890117645264
1617967426.03045,-0.6817627,19.860510110855103
1617967426.04608,-0.08288574,19.876140117645264
1617967426.0617,1.023438,19.891760110855103
1617967426.07733,2.497803,19.907390117645264
1617967426.09295,4.161865,19.923010110855103
1617967426.10858,5.797241,19.938640117645264
1617967426.12421,7.216553,19.954269886016846
1617967426.13983,8.311646,19.969890117645264
1617967426.15546,8.99292,19.985519886016846
1617967426.17108,9.228149,20.001140117645264
1617967426.18671,9.048218,20.016769886016846
1617967426.20233,8.551758,20.032390117645264
1617967426.21796,7.881348,20.048019886016846
1617967426.23359,7.240601,20.063649892807007
1617967426.24921,6.762329,20.079269886016846
1617967426.26484,6.468018,20.094899892807007
1617967426.28046,6.296509,20.110519886016846
1617967426.29609,6.119507,20.126149892807007
1617967426.31171,5.838013,20.141769886016846
1617967426.32734,5.436157,20.157399892807007
1617967426.34297,4.971191,20.173029899597168
1617967426.35859,4.49231,20.188649892807007
1617967426.37422,4.025269,20.204279899597168
1617967426.38984,3.522827,20.219899892807007
1617967426.40547,2.967651,20.235529899597168
1617967426.42109,2.42334,20.251149892807007
1617967426.43672,2.066162,20.266779899597168
1617967426.45235,2.055054,20.28240990638733
1617967426.46797,2.456787,20.298029899597168
1617967426.4836,3.154053,20.31365990638733
1617967426.49922,3.857788,20.329279899597168
1617967426.51485,4.263428,20.34490990638733
1617967426.53047,4.202148,20.360529899597168
1617967426.5461,3.734375,20.37615990638733
1617967426.56173,3.068726,20.39178991317749
1617967426.57735,2.47522,20.40740990638733
1617967426.59298,2.086914,20.42303991317749
1617967426.6086,1.870483,20.43865990638733
1617967426.62423,1.691406,20.45428991317749
1617967426.63985,1.47168,20.46990990638733
1617967426.65548,1.261963,20.48553991317749
1617967426.67111,1.194336,20.50116991996765
1617967426.68673,1.363647,20.51678991317749
1617967426.70236,1.694336,20.53241991996765
1617967426.71798,1.924683,20.54803991317749
1617967426.73361,1.707153,20.56366991996765
1617967426.74923,0.8199463,20.57928991317749
1617967426.76486,-0.7351074,20.59491991996765
1617967426.78049,-2.635864,20.610549926757812
1617967426.79611,-4.458618,20.62616991996765
1617967426.81174,-5.820679,20.641799926757812
1617967426.82736,-6.550293,20.65741991996765
1617967426.84299,-6.76123,20.673049926757812
1617967426.85861,-6.695801,20.68866991996765
1617967426.87424,-6.610229,20.704299926757812
1617967426.88987,-6.599243,20.719929933547974
1617967426.90549,-6.640137,20.735549926757812
1617967426.92112,-6.641602,20.751179933547974
1617967426.93674,-6.511475,20.766799926757812
1617967426.95237,-6.202393,20.782429933547974
1617967426.96799,-5.716431,20.798049926757812
1617967426.98362,-5.018188,20.813679933547974
1617967426.99925,-4.053467,20.829309940338135
1617967427.01487,-2.777466,20.844929933547974
1617967427.0305,-1.199097,20.860559940338135
1617967427.04612,0.5467529,20.876179933547974
1617967427.06175,2.21521,20.891809940338135
1617967427.07737,3.525879,20.907429933547974
1617967427.093,4.292358,20.923059940338135
1617967427.10863,4.500977,20.938689947128296
1617967427.12425,4.350464,20.954309940338135
1617967427.13988,4.179565,20.969939947128296
1617967427.1555,4.273438,20.985559940338135
1617967427.17113,4.765625,21.001189947128296
1617967427.18675,5.555176,21.016809940338135
1617967427.20238,6.361328,21.032439947128296
1617967427.21801,6.929077,21.048069953918457
1617967427.23363,7.12439,21.063689947128296
1617967427.24926,6.981445,21.079319953918457
1617967427.26488,6.638794,21.094939947128296
1617967427.28051,6.281372,21.110569953918457
1617967427.29613,5.982544,21.126189947128296
1617967427.31176,5.712524,21.141819953918457
1617967427.32739,5.397339,21.157449960708618
1617967427.34301,4.988647,21.173069953918457
1617967427.35864,4.500732,21.188699960708618
1617967427.37426,4.021362,21.204319953918457
1617967427.38989,3.664307,21.219949960708618
1617967427.40551,3.513428,21.235569953918457
1617967427.42114,3.592773,21.251199960708618
1617967427.43677,3.838867,21.26682996749878
1617967427.45239,4.116821,21.282449960708618
1617967427.46802,4.230469,21.29807996749878
1617967427.48364,4.011597,21.313699960708618
1617967427.49927,3.353027,21.32932996749878
1617967427.51489,2.300415,21.344949960708618
1617967427.53052,1.061768,21.36057996749878
1617967427.54615,-0.07946777,21.37620997428894
1617967427.56177,-0.8725586,21.39182996749878
1617967427.5774,-1.215942,21.40745997428894
1617967427.59302,-1.19812,21.42307996749878
1617967427.60865,-1.061401,21.43870997428894
1617967427.62427,-1.078125,21.45432996749878
1617967427.6399,-1.397949,21.46995997428894
1617967427.65553,-2.035767,21.4855899810791
1617967427.67115,-2.870117,21.50120997428894
1617967427.68678,-3.767212,21.5168399810791
1617967427.7024,-4.592773,21.53245997428894
1617967427.71803,-5.263916,21.5480899810791
1617967427.73365,-5.691162,21.56370997428894
1617967427.74928,-5.851807,21.5793399810791
1617967427.76491,-5.782349,21.594969987869263
1617967427.78053,-5.619873,21.6105899810791
1617967427.79616,-5.541992,21.626219987869263
1617967427.81178,-5.647827,21.6418399810791
1617967427.82741,-5.960815,21.657469987869263
1617967427.84303,-6.372681,21.6730899810791
1617967427.85866,-6.786987,21.688719987869263
1617967427.87429,-7.164185,21.704349994659424
1617967427.88991,-7.651001,21.719969987869263
1617967427.90554,-8.463135,21.735599994659424
1617967427.92116,-9.730347,21.751219987869263
1617967427.93679,-11.41345,21.766849994659424
1617967427.95241,-13.28699,21.782469987869263
1617967427.96804,-15.14099,21.798099994659424
1617967427.98367,-16.9126,21.813730001449585
1617967427.99929,-18.79431,21.829349994659424
1617967428.01492,-21.18188,21.844980001449585
1617967428.03054,-24.5863,21.860599994659424
1617967428.04617,-29.3999,21.876230001449585
1617967428.0618,-35.67981,21.891860008239746
1617967428.07742,-42.95227,21.907480001449585
1617967428.09305,-50.25635,21.923110008239746
1617967428.10867,-56.48608,21.938730001449585
1617967428.1243,-60.85742,21.954360008239746
1617967428.13992,-63.42871,21.969980001449585
1617967428.15555,-65.21729,21.985610008239746
1617967428.17118,-67.83276,22.001240015029907
1617967428.1868,-72.67578,22.016860008239746
1617967428.20243,-80.09375,22.032490015029907
1617967428.21805,-89.08142,22.048110008239746
1617967428.23368,-97.56238,22.063740015029907
1617967428.2493,-103.3523,22.079360008239746
1617967428.26493,-105.2578,22.094990015029907
1617967428.28056,-103.7076,22.11062002182007
1617967428.29618,-100.71,22.126240015029907
1617967428.31181,-98.99921,22.14187002182007
1617967428.32743,-100.9746,22.157490015029907
1617967428.34306,-107.6601,22.17312002182007
1617967428.35868,-118.144,22.188740015029907
1617967428.37431,-129.5384,22.20437002182007
1617967428.38994,-137.3449,22.22000002861023
1617967428.40556,-136.3463,22.23562002182007
1617967428.42119,-121.7845,22.25125002861023
1617967428.43681,-90.8667,22.26687002182007
1617967428.45244,-44.1405,22.28250002861023
1617967428.46806,13.71606,22.29812002182007
1617967428.48369,74.33167,22.31375002861023
1617967428.49932,127.5583,22.32938003540039
1617967428.51494,164.4203,22.34500002861023
1617967428.53057,179.9241,22.36063003540039
1617967428.54619,174.6236,22.37625002861023
1617967428.56182,153.925,22.39188003540039
1617967428.57744,125.6973,22.40750002861023
1617967428.59307,97.3219,22.42313003540039
1617967428.6087,73.58875,22.43876004219055
1617967428.62432,56.31793,22.45438003540039
1617967428.63995,45.3504,22.47001004219055
1617967428.65557,40.04108,22.48563003540039
1617967428.6712,40.07074,22.50126004219055
1617967428.68682,45.40186,22.51688003540039
1617967428.70245,55.53149,22.53251004219055
1617967428.71808,68.85925,22.548140048980713
1617967428.7337,82.81274,22.56376004219055
1617967428.74933,94.76471,22.579390048980713
1617967428.76495,103.1776,22.59501004219055
1617967428.78058,108.4024,22.610640048980713
1617967428.7962,112.5911,22.62626004219055
1617967428.81183,118.7,22.641890048980713
1617967428.82746,129.1868,22.657520055770874
1617967428.84308,144.9075,22.673140048980713
1617967428.85871,164.696,22.688770055770874
1617967428.87433,185.691,22.704390048980713
1617967428.88996,204.1542,22.720020055770874
1617967428.90558,216.347,22.735640048980713
1617967428.92121,219.2304,22.751270055770874
1617967428.93684,210.9857,22.766900062561035
1617967428.95246,191.4477,22.782520055770874
1617967428.96809,162.4027,22.798150062561035
1617967428.98371,127.6194,22.813770055770874
1617967428.99934,92.37402,22.829400062561035
1617967429.01496,62.32672,22.845020055770874
1617967429.03059,41.98181,22.860650062561035
1617967429.04622,33.37878,22.876280069351196
1617967429.06184,35.49976,22.891900062561035
1617967429.07747,44.76672,22.907530069351196
1617967429.09309,56.30426,22.923150062561035
1617967429.10872,65.46667,22.938780069351196
1617967429.12434,68.92499,22.954400062561035
1617967429.13997,65.15033,22.970030069351196
1617967429.1556,54.27679,22.985660076141357
1617967429.17122,37.6792,23.001280069351196
1617967429.18685,17.53235,23.016910076141357
1617967429.20247,-3.608093,23.032530069351196
1617967429.2181,-23.20929,23.048160076141357
1617967429.23372,-39.23279,23.063780069351196
1617967429.24935,-50.53308,23.079410076141357
1617967429.26498,-57.03967,23.09504008293152
1617967429.2806,-59.67853,23.110660076141357
1617967429.29623,-60.00726,23.12629008293152
1617967429.31185,-59.68854,23.141910076141357
1617967429.32748,-59.93884,23.15754008293152
1617967429.3431,-61.20392,23.173160076141357
1617967429.35873,-63.08636,23.18879008293152
1617967429.37436,-64.73438,23.20442008972168
1617967429.38998,-65.26019,23.22004008293152
1617967429.40561,-64.12115,23.23567008972168
1617967429.42123,-61.26984,23.25129008293152
1617967429.43686,-57.10443,23.26692008972168
1617967429.45248,-52.23401,23.28254008293152
1617967429.46811,-47.2702,23.29817008972168
1617967429.48374,-42.73578,23.31380009651184
1617967429.49936,-38.99976,23.32942008972168
1617967429.51499,-36.27905,23.34505009651184
1617967429.53061,-34.60254,23.36067008972168
1617967429.54624,-33.80658,23.37630009651184
1617967429.56186,-33.55212,23.39192008972168
1617967429.57749,-33.4303,23.40755009651184
1617967429.59312,-33.13049,23.423180103302002
1617967429.60874,-32.505,23.43880009651184
1617967429.62437,-31.66235,23.454430103302002
1617967429.63999,-30.79211,23.47005009651184
1617967429.65562,-30.00531,23.485680103302002
1617967429.67124,-29.20966,23.50130009651184
1617967429.68687,-28.14484,23.516930103302002
1617967429.7025,-26.57294,23.532560110092163
1617967429.71812,-24.3938,23.548180103302002
1617967429.73375,-21.79608,23.563810110092163
1617967429.74937,-19.09576,23.579430103302002
1617967429.765,-16.70032,23.595060110092163
1617967429.78062,-14.86951,23.610680103302002
1617967429.79625,-13.6825,23.626310110092163
1617967429.81188,-12.96777,23.641940116882324
1617967429.8275,-12.43689,23.657560110092163
1617967429.84313,-11.78223,23.673190116882324
1617967429.85875,-10.79309,23.688810110092163
1617967429.87438,-9.428833,23.704440116882324
1617967429.89,-7.764038,23.720060110092163
1617967429.90563,-5.940491,23.735690116882324
1617967429.92126,-4.08905,23.751320123672485
1617967429.93688,-2.297485,23.766940116882324
1617967429.95251,-0.6560669,23.782570123672485
1617967429.96813,0.7196045,23.798190116882324
1617967429.98376,1.686401,23.813820123672485
1617967429.99938,2.151611,23.829440116882324
1617967430.01501,2.102844,23.845070123672485
1617967430.03064,1.660583,23.860699892044067
1617967430.04626,0.9628906,23.876320123672485
1617967430.06189,0.1105347,23.891949892044067
1617967430.07751,-0.9030762,23.907570123672485
1617967430.09314,-2.189453,23.923199892044067
1617967430.10876,-3.799622,23.938820123672485
1617967430.12439,-5.658142,23.954449892044067
1617967430.14002,-7.527832,23.97007989883423
1617967430.15564,-9.174622,23.985699892044067
1617967430.17127,-10.45624,24.00132989883423
1617967430.18689,-11.4729,24.016949892044067
1617967430.20252,-12.49335,24.03257989883423
1617967430.21814,-13.80737,24.048199892044067
1617967430.23377,-15.53864,24.06382989883423
1617967430.2494,-17.53577,24.07945990562439
1617967430.26502,-19.39667,24.09507989883423
1617967430.28065,-20.61804,24.11070990562439
1617967430.29627,-20.84399,24.12632989883423
1617967430.3119,-20.00031,24.14195990562439
1617967430.32752,-18.33643,24.15757989883423
1617967430.34315,-16.26917,24.17320990562439
1617967430.35878,-14.15063,24.18883991241455
1617967430.3744,-12.12646,24.20445990562439
1617967430.39003,-10.15283,24.22008991241455
1617967430.40565,-8.12384,24.23570990562439
1617967430.42128,-6.071411,24.25133991241455
1617967430.4369,-4.171631,24.26695990562439
1617967430.45253,-2.698669,24.28258991241455
1617967430.46816,-1.843933,24.298219919204712
1617967430.48378,-1.587769,24.31383991241455
1617967430.49941,-1.711365,24.329469919204712
1617967430.51503,-1.987671,24.34508991241455
1617967430.53066,-2.259338,24.360719919204712
1617967430.54628,-2.515747,24.37633991241455
1617967430.56191,-2.84552,24.391969919204712
1617967430.57754,-3.228516,24.407599925994873
1617967430.59316,-3.532837,24.423219919204712
1617967430.60879,-3.54425,24.438849925994873
1617967430.62441,-3.15686,24.454469919204712
1617967430.64004,-2.464417,24.470099925994873
1617967430.65567,-1.7453,24.485729932785034
1617967430.67129,-1.263855,24.501349925994873
1617967430.68692,-1.131775,24.516979932785034
1617967430.70254,-1.228088,24.532599925994873
1617967430.71817,-1.270447,24.548229932785034
1617967430.73379,-0.9968872,24.563849925994873
1617967430.74942,-0.2967529,24.579479932785034
1617967430.76505,0.7009888,24.595109939575195
1617967430.78067,1.749268,24.610729932785034
1617967430.7963,2.574707,24.626359939575195
1617967430.81192,2.999634,24.641979932785034
1617967430.82755,2.969482,24.657609939575195
1617967430.84317,2.544739,24.673229932785034
1617967430.8588,1.925354,24.688859939575195
1617967430.87443,1.359741,24.704489946365356
1617967430.89005,1.091675,24.720109939575195
1617967430.90568,1.268066,24.735739946365356
1617967430.9213,1.843628,24.751359939575195
1617967430.93693,2.559875,24.766989946365356
1617967430.95255,3.053467,24.782609939575195
1617967430.96818,2.993713,24.798239946365356
1617967430.98381,2.209106,24.813869953155518
1617967430.99943,0.7680664,24.829489946365356
1617967431.01506,-1.078064,24.845119953155518
1617967431.03068,-2.994873,24.860739946365356
1617967431.04631,-4.646912,24.876369953155518
1617967431.06193,-5.769958,24.891989946365356
1617967431.07756,-6.21698,24.907619953155518
1617967431.09319,-5.973083,24.92324995994568
1617967431.10881,-5.158142,24.938869953155518
1617967431.12444,-3.994263,24.95449995994568
1617967431.14006,-2.70874,24.970119953155518
1617967431.15569,-1.493958,24.98574995994568
1617967431.17131,-0.4154053,25.001369953155518
1617967431.18694,0.5514526,25.01699995994568
1617967431.20257,1.498901,25.03262996673584
1617967431.21819,2.433838,25.04824995994568
1617967431.23382,3.322021,25.06387996673584
1617967431.24944,4.067566,25.07949995994568
1617967431.26507,4.604065,25.09512996673584
1617967431.28069,4.894104,25.11074995994568
1617967431.29632,4.936646,25.12637996673584
1617967431.31195,4.732239,25.142009973526
1617967431.32757,4.281433,25.15762996673584
1617967431.3432,3.632751,25.173259973526
1617967431.35882,2.924316,25.18887996673584
1617967431.37445,2.367004,25.204509973526
1617967431.39007,2.140137,25.22012996673584
1617967431.4057,2.326782,25.235759973526
1617967431.42133,2.809387,25.251389980316162
1617967431.43695,3.332092,25.267009973526
1617967431.45258,3.589722,25.282639980316162
1617967431.4682,3.398315,25.298259973526
1617967431.48383,2.711548,25.313889980316162
1617967431.49945,1.671753,25.329509973526
1617967431.51508,0.4852295,25.345139980316162
1617967431.53071,-0.6400757,25.360769987106323
1617967431.54633,-1.56366,25.376389980316162
1617967431.56196,-2.230042,25.392019987106323
1617967431.57758,-2.677551,25.407639980316162
1617967431.59321,-2.936829,25.423269987106323
1617967431.60883,-3.044922,25.438889980316162
1617967431.62446,-3.010742,25.454519987106323
1617967431.64009,-2.867188,25.470149993896484
1617967431.65571,-2.664063,25.485769987106323
1617967431.67134,-2.493042,25.501399993896484
1617967431.68696,-2.412842,25.517019987106323
1617967431.70259,-2.386658,25.532649993896484
1617967431.71821,-2.309937,25.548269987106323
1617967431.73384,-2.074341,25.563899993896484
1617967431.74947,-1.668152,25.579530000686646
1617967431.76509,-1.262024,25.595149993896484
1617967431.78072,-1.11731,25.610780000686646
1617967431.79634,-1.471924,25.626399993896484
1617967431.81197,-2.348511,25.642030000686646
1617967431.82759,-3.497437,25.657649993896484
1617967431.84322,-4.525696,25.673280000686646
1617967431.85885,-5.025513,25.688910007476807
1617967431.87447,-4.829895,25.704530000686646
1617967431.8901,-3.967041,25.720160007476807
1617967431.90572,-2.628906,25.735780000686646
1617967431.92135,-1.092651,25.751410007476807
1617967431.93697,0.4147339,25.767030000686646
1617967431.9526,1.705261,25.782660007476807
1617967431.96823,2.616272,25.798290014266968
1617967431.98385,3.056824,25.813910007476807
1617967431.99948,3.044922,25.829540014266968
1617967432.0151,2.744141,25.845160007476807
1617967432.03073,2.416809,25.860790014266968
1617967432.04635,2.31897,25.876410007476807
1617967432.06198,2.569458,25.892040014266968
1617967432.07761,3.123352,25.90767002105713
1617967432.09323,3.815735,25.923290014266968
1617967432.10886,4.400879,25.93892002105713
1617967432.12448,4.727173,25.954540014266968
1617967432.14011,4.719666,25.97017002105713
1617967432.15573,4.427734,25.985790014266968
1617967432.17136,3.972229,26.00142002105713
1617967432.18699,3.49353,26.01705002784729
1617967432.20261,3.091309,26.03267002105713
1617967432.21824,2.834351,26.04830002784729
1617967432.23386,2.792297,26.06392002105713
1617967432.24949,2.9776,26.07955002784729
1617967432.26511,3.368469,26.09517002105713
1617967432.28074,3.902893,26.11080002784729
1617967432.29637,4.460022,26.12643003463745
1617967432.31199,4.874207,26.14205002784729
1617967432.32762,5.032593,26.15768003463745
1617967432.34324,4.846863,26.17330002784729
1617967432.35887,4.352051,26.18893003463745
1617967432.37449,3.645935,26.20455002784729
1617967432.39012,2.888489,26.22018003463745
1617967432.40575,2.227783,26.235810041427612
1617967432.42137,1.776733,26.25143003463745
1617967432.437,1.547974,26.267060041427612
1617967432.45262,1.488403,26.28268003463745
1617967432.46825,1.471191,26.298310041427612
1617967432.48387,1.415527,26.31393003463745
1617967432.4995,1.28186,26.329560041427612
1617967432.51513,1.103882,26.345190048217773
1617967432.53075,0.9041748,26.360810041427612
1617967432.54638,0.6862793,26.376440048217773
1617967432.562,0.3817139,26.392060041427612
1617967432.57763,-0.1206055,26.407690048217773
1617967432.59325,-0.8240356,26.423310041427612
1617967432.60888,-1.55957,26.438940048217773
1617967432.62451,-2.03772,26.454570055007935
1617967432.64013,-1.961121,26.470190048217773
1617967432.65576,-1.264709,26.485820055007935
1617967432.67138,-0.223877,26.501440048217773
1617967432.68701,0.6984253,26.517070055007935
1617967432.70263,1.098633,26.532690048217773
1617967432.71826,0.8776855,26.548320055007935
1617967432.73389,0.3168335,26.563950061798096
1617967432.74951,-0.09307861,26.579570055007935
1617967432.76514,0.05963135,26.595200061798096
1617967432.78076,0.8823853,26.610820055007935
1617967432.79639,2.11377,26.626450061798096
1617967432.81202,3.273315,26.642080068588257
1617967432.82764,3.921265,26.657700061798096
1617967432.84327,3.845459,26.673330068588257
1617967432.85889,3.115234,26.688950061798096
1617967432.87452,1.999634,26.704580068588257
1617967432.89014,0.869751,26.720200061798096
1617967432.90577,0.005615234,26.735830068588257
1617967432.9214,-0.4112549,26.751460075378418
1617967432.93702,-0.326355,26.767080068588257
1617967432.95265,0.201416,26.782710075378418
1617967432.96827,1.042603,26.798330068588257
1617967432.9839,2.070007,26.813960075378418
1617967432.99952,3.1474,26.829580068588257
1617967433.01515,4.192688,26.845210075378418
1617967433.03078,5.136169,26.86084008216858
1617967433.0464,5.898193,26.876460075378418
1617967433.06203,6.390564,26.89209008216858
1617967433.07765,6.556152,26.907710075378418
1617967433.09328,6.431091,26.92334008216858
1617967433.1089,6.14093,26.938960075378418
1617967433.12453,5.816833,26.95459008216858
1617967433.14016,5.520325,26.97022008895874
1617967433.15578,5.183655,26.98584008216858
1617967433.17141,4.595764,27.00147008895874
1617967433.18703,3.567871,27.01709008216858
1617967433.20266,2.065735,27.03272008895874
1617967433.21828,0.348999,27.04834008216858
1617967433.23391,-1.145386,27.06397008895874
1617967433.24954,-1.972961,27.0796000957489
1617967433.26516,-1.907471,27.09522008895874
1617967433.28079,-1.062317,27.1108500957489
1617967433.29641,0.1643677,27.12647008895874
1617967433.31204,1.263,27.1421000957489
1617967433.32766,1.86731,27.15772008895874
1617967433.34329,1.836182,27.1733500957489
1617967433.35892,1.267822,27.188980102539062
1617967433.37454,0.3909302,27.2046000957489
1617967433.39017,-0.5908813,27.220230102539062
1617967433.40579,-1.564697,27.2358500957489
1617967433.42142,-2.543213,27.251480102539062
1617967433.43704,-3.565613,27.2671000957489
1617967433.45267,-4.585205,27.282730102539062
1617967433.4683,-5.442078,27.298360109329224
1617967433.48392,-5.877319,27.313980102539062
1617967433.49955,-5.692322,27.329610109329224
1617967433.51517,-4.867432,27.345230102539062
1617967433.5308,-3.634766,27.360860109329224
1617967433.54642,-2.385681,27.376480102539062
1617967433.56205,-1.499451,27.392110109329224
1617967433.57768,-1.179382,27.407740116119385
1617967433.5933,-1.326782,27.423360109329224
1617967433.60893,-1.653564,27.438990116119385
1617967433.62455,-1.893494,27.454610109329224
1617967433.64018,-1.992615,27.470240116119385
1617967433.6558,-2.113647,27.485860109329224
1617967433.67143,-2.544861,27.501490116119385
1617967433.68706,-3.434509,27.517120122909546
1617967433.70268,-4.654724,27.532740116119385
1617967433.71831,-5.771973,27.548370122909546
1617967433.73393,-6.278015,27.563990116119385
1617967433.74956,-5.770447,27.579620122909546
1617967433.76518,-4.227417,27.595240116119385
1617967433.78081,-1.980042,27.610870122909546
1617967433.79644,0.3862305,27.626499891281128
1617967433.81206,2.233521,27.642120122909546
1617967433.82769,3.109009,27.657749891281128
1617967433.84331,2.893188,27.673370122909546
1617967433.85894,1.852844,27.688999891281128
1617967433.87456,0.5289307,27.704620122909546
1617967433.89019,-0.5211182,27.720249891281128
1617967433.90582,-0.8876343,27.73587989807129
1617967433.92144,-0.4698486,27.751499891281128
1617967433.93707,0.5044556,27.76712989807129
1617967433.95269,1.653137,27.782749891281128
1617967433.96832,2.639832,27.79837989807129
1617967433.98394,3.354431,27.813999891281128
1617967433.99957,3.92926,27.82962989807129
1617967434.0152,4.625854,27.84525990486145
1617967434.03082,5.651611,27.86087989807129
1617967434.04645,7.026001,27.87650990486145
1617967434.06207,8.551575,27.89212989807129
1617967434.0777,9.880554,27.90775990486145
1617967434.09332,10.62378,27.92337989807129
1617967434.10895,10.5119,27.93900990486145
1617967434.12458,9.406921,27.95463991165161
1617967434.1402,7.349976,27.97025990486145
1617967434.15583,4.56311,27.98588991165161
1617967434.17145,1.399841,28.00150990486145
1617967434.18708,-1.795166,28.01713991165161
1617967434.2027,-4.884705,28.03275990486145
1617967434.21833,-8.14093,28.04838991165161
1617967434.23396,-12.29889,28.064019918441772
1617967434.24958,-18.36749,28.07963991165161
1617967434.26521,-27.36511,28.095269918441772
1617967434.28083,-39.94165,28.11088991165161
1617967434.29646,-56.08752,28.126519918441772
1617967434.31208,-75.05573,28.14213991165161
1617967434.32771,-95.59015,28.157769918441772
1617967434.34334,-116.3429,28.173399925231934
1617967434.35896,-136.2592,28.189019918441772
1617967434.37459,-154.7777,28.204649925231934
1617967434.39021,-171.6608,28.220269918441772
1617967434.40584,-186.5463,28.235899925231934
1617967434.42146,-198.2985,28.251519918441772
1617967434.43709,-204.6412,28.267149925231934
1617967434.45272,-202.2803,28.282779932022095
1617967434.46834,-187.7089,28.298399925231934
1617967434.48397,-158.5516,28.314029932022095
1617967434.49959,-114.8422,28.329649925231934
1617967434.51522,-59.53821,28.345279932022095
1617967434.53084,1.900513,28.360899925231934
1617967434.54647,62.89191,28.376529932022095
1617967434.5621,117.3918,28.392159938812256
1617967434.57772,161.2292,28.407779932022095
1617967434.59335,192.5162,28.423409938812256
1617967434.60897,211.355,28.439029932022095
1617967434.6246,219.1181,28.454659938812256
1617967434.64022,217.6298,28.470279932022095
1617967434.65585,208.6975,28.485909938812256
1617967434.67148,193.9922,28.501539945602417
1617967434.6871,175.1453,28.517159938812256
1617967434.70273,153.9854,28.532789945602417
1617967434.71835,132.6376,28.548409938812256
1617967434.73398,113.4273,28.564039945602417
1617967434.7496,98.64935,28.579659938812256
1617967434.76523,90.03397,28.595289945602417
1617967434.78086,88.09335,28.610919952392578
1617967434.79648,91.72192,28.626539945602417
1617967434.81211,98.26147,28.642169952392578
1617967434.82773,104.2426,28.657789945602417
1617967434.84336,106.6501,28.673419952392578
1617967434.85898,103.961,28.689039945602417
1617967434.87461,96.4809,28.704669952392578
1617967434.89024,85.79703,28.72029995918274
1617967434.90586,73.7149,28.735919952392578
1617967434.92149,61.36554,28.75154995918274
1617967434.93711,48.91171,28.767169952392578
1617967434.95274,36.04492,28.78279995918274
1617967434.96836,22.73026,28.798419952392578
1617967434.98399,9.671967,28.81404995918274
1617967434.99962,-1.834045,28.8296799659729
1617967435.01524,-10.56329,28.84529995918274
1617967435.03087,-16.08517,28.8609299659729
1617967435.04649,-19.0387,28.87654995918274
1617967435.06212,-20.80298,28.8921799659729
1617967435.07774,-22.74222,28.90779995918274
1617967435.09337,-25.56097,28.9234299659729
1617967435.109,-29.10898,28.93905997276306
1617967435.12462,-32.64191,28.9546799659729
1617967435.14025,-35.32831,28.97030997276306
1617967435.15587,-36.7373,28.9859299659729
1617967435.1715,-36.95181,29.00155997276306
1617967435.18712,-36.48172,29.0171799659729
1617967435.20275,-35.9191,29.03280997276306
1617967435.21838,-35.67255,29.048439979553223
1617967435.234,-35.79559,29.06405997276306
1617967435.24963,-36.01929,29.079689979553223
1617967435.26525,-35.92535,29.09530997276306
1617967435.28088,-35.14758,29.110939979553223
1617967435.2965,-33.56744,29.12655997276306
1617967435.31213,-31.35901,29.142189979553223
1617967435.32776,-28.91852,29.157819986343384
1617967435.34338,-26.67554,29.173439979553223
1617967435.35901,-24.94305,29.189069986343384
1617967435.37463,-23.7973,29.204689979553223
1617967435.39026,-23.0813,29.220319986343384
1617967435.40588,-22.51929,29.235939979553223
1617967435.42151,-21.78485,29.251569986343384
1617967435.43714,-20.70563,29.267199993133545
1617967435.45276,-19.28015,29.282819986343384
1617967435.46839,-17.66302,29.298449993133545
1617967435.48401,-16.10736,29.314069986343384
1617967435.49964,-14.8045,29.329699993133545
1617967435.51527,-13.84705,29.345329999923706
1617967435.53089,-13.15735,29.360949993133545
1617967435.54652,-12.59998,29.376579999923706
1617967435.56214,-11.96802,29.392199993133545
1617967435.57777,-11.1897,29.407829999923706
1617967435.59339,-10.22064,29.423449993133545
1617967435.60902,-9.132996,29.439079999923706
1617967435.62465,-8.028503,29.454710006713867
1617967435.64027,-6.964355,29.470329999923706
1617967435.6559,-5.987793,29.485960006713867
1617967435.67152,-5.078796,29.501579999923706
1617967435.68715,-4.261536,29.517210006713867
1617967435.70277,-3.552917,29.532829999923706
1617967435.7184,-2.978821,29.548460006713867
1617967435.73403,-2.515015,29.56409001350403
1617967435.74965,-2.062622,29.579710006713867
1617967435.76528,-1.525513,29.59534001350403
1617967435.7809,-0.880127,29.610960006713867
1617967435.79653,-0.2384033,29.62659001350403
1617967435.81215,0.2017212,29.642210006713867
1617967435.82778,0.2127075,29.65784001350403
1617967435.84341,-0.2837524,29.67347002029419
1617967435.85903,-1.20874,29.68909001350403
1617967435.87466,-2.298584,29.70472002029419
1617967435.89028,-3.243469,29.72034001350403
1617967435.90591,-3.82489,29.73597002029419
1617967435.92153,-3.987,29.75159001350403
1617967435.93716,-3.84845,29.76722002029419
1617967435.95279,-3.584717,29.78285002708435
1617967435.96841,-3.416077,29.79847002029419
1617967435.98404,-3.535522,29.81410002708435
1617967435.99966,-4.031982,29.82972002029419
1617967436.01529,-4.911865,29.84535002708435
1617967436.03091,-6.003479,29.86097002029419
1617967436.04654,-7.016296,29.87660002708435
1617967436.06217,-7.543213,29.89223003387451
1617967436.07779,-7.264832,29.90785002708435
1617967436.09342,-6.03894,29.92348003387451
1617967436.10904,-4.0354,29.93910002708435
1617967436.12467,-1.686157,29.95473003387451
1617967436.14029,0.4910278,29.97035002708435
1617967436.15592,2.025452,29.98598003387451
1617967436.17155,2.715515,30.001610040664673
1617967436.18717,2.613586,30.01723003387451
1617967436.2028,2.045776,30.032860040664673
1617967436.21842,1.385742,30.04848003387451
1617967436.23405,0.9145508,30.064110040664673
1617967436.24967,0.7388916,30.07973003387451
1617967436.2653,0.7670898,30.095360040664673
1617967436.28093,0.8461914,30.110990047454834
1617967436.29655,0.8101196,30.126610040664673
1617967436.31218,0.6134644,30.142240047454834
1617967436.3278,0.2260742,30.157860040664673
1617967436.34343,-0.3549194,30.173490047454834
1617967436.35905,-1.157959,30.189110040664673
1617967436.37468,-2.143433,30.204740047454834
1617967436.39031,-3.098328,30.220370054244995
1617967436.40593,-3.633972,30.235990047454834
1617967436.42156,-3.30249,30.251620054244995
1617967436.43718,-1.907043,30.267240047454834
1617967436.45281,0.3687134,30.282870054244995
1617967436.46843,2.906677,30.298490047454834
1617967436.48406,4.870789,30.314120054244995
1617967436.49969,5.582397,30.329750061035156
1617967436.51531,4.823364,30.345370054244995
1617967436.53094,2.918335,30.361000061035156
1617967436.54656,0.6005859,30.376620054244995
1617967436.56219,-1.321106,30.392250061035156
1617967436.57781,-2.319153,30.407870054244995
1617967436.59344,-2.30896,30.423500061035156
1617967436.60907,-1.654175,30.439130067825317
1617967436.62469,-0.9215698,30.454750061035156
1617967436.64032,-0.6270752,30.470380067825317
1617967436.65594,-1.003723,30.486000061035156
1617967436.67157,-1.980896,30.501630067825317
1617967436.68719,-3.264465,30.517250061035156
1617967436.70282,-4.483704,30.532880067825317
1617967436.71845,-5.359619,30.54851007461548
1617967436.73407,-5.737427,30.564130067825317
1617967436.7497,-5.628845,30.57976007461548
1617967436.76532,-5.144409,30.595380067825317
1617967436.78095,-4.503601,30.61101007461548
1617967436.79657,-3.99884,30.626630067825317
1617967436.8122,-3.920654,30.64226007461548
1617967436.82783,-4.418457,30.65789008140564
1617967436.84345,-5.412476,30.67351007461548
1617967436.85908,-6.535461,30.68914008140564
1617967436.8747,-7.255432,30.70476007461548
1617967436.89033,-7.088196,30.72039008140564
1617967436.90595,-5.86554,30.73601007461548
1617967436.92158,-3.797424,30.75164008140564
1617967436.93721,-1.407166,30.7672700881958
1617967436.95283,0.6889648,30.78289008140564
1617967436.96846,2.072937,30.7985200881958
1617967436.98408,2.664185,30.81414008140564
1617967436.99971,2.65387,30.8297700881958
1617967437.01533,2.401489,30.84539008140564
1617967437.03096,2.202759,30.8610200881958
1617967437.04659,2.200989,30.876650094985962
1617967437.06221,2.374023,30.8922700881958
1617967437.07784,2.627747,30.907900094985962
1617967437.09346,2.858215,30.9235200881958
1617967437.10909,3.043945,30.939150094985962
1617967437.12471,3.227234,30.9547700881958
1617967437.14034,3.435608,30.970400094985962
1617967437.15597,3.663818,30.986030101776123
1617967437.17159,3.826965,31.001650094985962
1617967437.18722,3.820984,31.017280101776123
1617967437.20284,3.588135,31.032900094985962
1617967437.21847,3.140015,31.048530101776123
1617967437.23409,2.575623,31.064150094985962
1617967437.24972,2.019592,31.079780101776123
1617967437.26535,1.606873,31.095410108566284
1617967437.28097,1.39917,31.111030101776123
1617967437.2966,1.381592,31.126660108566284
1617967437.31222,1.47998,31.142280101776123
1617967437.32785,1.557678,31.157910108566284
1617967437.34347,1.510071,31.173530101776123
1617967437.3591,1.298462,31.189160108566284
1617967437.37473,0.9678345,31.204790115356445
1617967437.39035,0.6446533,31.220410108566284
1617967437.40598,0.4602051,31.236040115356445
1617967437.4216,0.4672852,31.251660108566284
1617967437.43723,0.6313477,31.267290115356445
1617967437.45285,0.8240356,31.282910108566284
1617967437.46848,0.8772888,31.298540115356445
1617967437.48411,0.6970215,31.314170122146606
1617967437.49973,0.2726746,31.329790115356445
1617967437.51536,-0.2782288,31.345420122146606
1617967437.53098,-0.776123,31.361040115356445
1617967437.54661,-1.053528,31.376670122146606
1617967437.56223,-1.061646,31.392290115356445
1617967437.57786,-0.8398132,31.407920122146606
1617967437.59349,-0.5809631,31.42354989051819
1617967437.60911,-0.5347595,31.439170122146606
1617967437.62474,-0.9056091,31.45479989051819
1617967437.64036,-1.699707,31.470420122146606
1617967437.65599,-2.6987,31.48604989051819
1617967437.67162,-3.521332,31.50167989730835
1617967437.68724,-3.763885,31.51729989051819
1617967437.70287,-3.234131,31.53292989730835
1617967437.71849,-2.025177,31.54854989051819
1617967437.73412,-0.5187378,31.56417989730835
1617967437.74974,0.8346252,31.57979989051819
1617967437.76537,1.688385,31.59542989730835
1617967437.781,1.976898,31.61105990409851
1617967437.79662,1.818909,31.62667989730835
1617967437.81225,1.432709,31.64230990409851
1617967437.82787,0.9337158,31.65792989730835
1617967437.8435,0.2913818,31.67355990409851
1617967437.85912,-0.5230713,31.68917989730835
1617967437.87475,-1.469757,31.70480990409851
1617967437.89038,-2.295624,31.720439910888672
1617967437.906,-2.669098,31.73605990409851
1617967437.92163,-2.35022,31.751689910888672
1617967437.93725,-1.383942,31.76730990409851
1617967437.95288,-0.0953064,31.782939910888672
1617967437.9685,1.045959,31.79855990409851
1617967437.98413,1.638123,31.814189910888672
1617967437.99976,1.533478,31.829819917678833
1617967438.01538,0.7944641,31.845439910888672
1617967438.03101,-0.3043823,31.861069917678833
1617967438.04663,-1.445007,31.876689910888672
1617967438.06226,-2.342377,31.892319917678833
1617967438.07788,-2.799103,31.907939910888672
1617967438.09351,-2.714142,31.923569917678833
1617967438.10914,-2.102509,31.939199924468994
1617967438.12476,-1.190857,31.954819917678833
1617967438.14039,-0.3070068,31.970449924468994
1617967438.15601,0.118988,31.986069917678833
1617967438.17164,-0.191803,32.001699924468994
1617967438.18726,-1.264984,32.01731991767883
1617967438.20289,-2.783752,32.032949924468994
1617967438.21852,-4.240875,32.048579931259155
1617967438.23414,-5.122101,32.064199924468994
1617967438.24977,-5.142548,32.079829931259155
1617967438.26539,-4.37149,32.095449924468994
1617967438.28102,-3.171417,32.111079931259155
1617967438.29664,-2.139343,32.126699924468994
1617967438.31227,-1.811584,32.142329931259155
1617967438.3279,-2.584015,32.157959938049316
1617967438.34352,-4.501678,32.173579931259155
1617967438.35915,-7.286774,32.189209938049316
1617967438.37477,-10.35577,32.204829931259155
1617967438.3904,-13.00916,32.220459938049316
1617967438.40602,-14.686,32.236079931259155
1617967438.42165,-15.07031,32.251709938049316
1617967438.43728,-14.21954,32.26733994483948
1617967438.4529,-12.43695,32.282959938049316
1617967438.46853,-10.13907,32.29858994483948
1617967438.48415,-7.655334,32.314209938049316
1617967438.49978,-5.143677,32.32983994483948
1617967438.5154,-2.658447,32.345459938049316
1617967438.53103,-0.2094116,32.36108994483948
1617967438.54666,2.099731,32.37671995162964
1617967438.56228,4.054535,32.39233994483948
1617967438.57791,5.418457,32.40796995162964
1617967438.59353,6.093567,32.42358994483948
1617967438.60916,6.246948,32.43921995162964
1617967438.62478,6.273834,32.45483994483948
1617967438.64041,6.678375,32.47046995162964
1617967438.65604,7.697205,32.4860999584198
1617967438.67166,9.152222,32.50171995162964
1617967438.68729,10.42911,32.5173499584198
1617967438.70291,10.73386,32.53296995162964
1617967438.71854,9.532013,32.5485999584198
1617967438.73416,6.960602,32.56421995162964
1617967438.74979,3.845123,32.5798499584198
1617967438.76542,1.340546,32.59547996520996
1617967438.78104,0.3655396,32.6110999584198
1617967438.79667,1.0849,32.62672996520996
1617967438.81229,2.869995,32.6423499584198
1617967438.82792,4.633209,32.65797996520996
1617967438.84354,5.401031,32.6735999584198
1617967438.85917,4.728333,32.68922996520996
1617967438.8748,2.801208,32.70485997200012
1617967438.89042,0.2173462,32.72047996520996
1617967438.90605,-2.429535,32.73610997200012
1617967438.92167,-4.687225,32.75172996520996
1617967438.9373,-6.326263,32.76735997200012
1617967438.95292,-7.223907,32.78297996520996
1617967438.96855,-7.269867,32.79860997200012
1617967438.98418,-6.396545,32.81423997879028
1617967438.9998,-4.592194,32.82985997200012
1617967439.01543,-2.061707,32.84548997879028
1617967439.03105,0.7946167,32.86110997200012
1617967439.04668,3.498077,32.87673997879028
1617967439.0623,5.58255,32.89235997200012
1617967439.07793,6.756226,32.90798997879028
1617967439.09356,6.951324,32.923619985580444
1617967439.10918,6.464233,32.93923997879028
1617967439.12481,5.803955,32.954869985580444
1617967439.14043,5.60199,32.97048997879028
1617967439.15606,6.307526,32.986119985580444
1617967439.17168,7.98584,33.00173997879028
1617967439.18731,10.31848,33.017369985580444
1617967439.20294,12.76892,33.032999992370605
1617967439.21856,14.89133,33.048619985580444
1617967439.23419,16.60657,33.064249992370605
1617967439.24981,18.17703,33.079869985580444
1617967439.26544,19.95221,33.095499992370605
1617967439.28106,22.07727,33.111119985580444
1617967439.29669,24.29559,33.126749992370605
1617967439.31232,26.06586,33.14237999916077
1617967439.32794,26.77094,33.157999992370605
1617967439.34357,25.99521,33.17362999916077
1617967439.35919,23.61438,33.189249992370605
1617967439.37482,19.82013,33.20487999916077
1617967439.39044,15.04086,33.220499992370605
1617967439.40607,9.82724,33.23612999916077
1617967439.4217,4.794983,33.25176000595093
1617967439.43732,0.4611511,33.26737999916077
1617967439.45295,-2.946503,33.28301000595093
1617967439.46857,-5.573395,33.29862999916077
1617967439.4842,-7.859711,33.31426000595093
1617967439.49982,-10.23117,33.32987999916077
1617967439.51545,-12.79456,33.34551000595093
1617967439.53108,-15.17319,33.36114001274109
1617967439.5467,-16.71799,33.37676000595093
1617967439.56233,-16.89087,33.39239001274109
1617967439.57795,-15.70135,33.40801000595093
1617967439.59358,-13.82214,33.42364001274109
1617967439.6092,-12.24286,33.43926000595093
1617967439.62483,-11.71664,33.45489001274109
1617967439.64046,-12.29944,33.47052001953125
1617967439.65608,-13.36188,33.48614001274109
1617967439.67171,-13.91193,33.50177001953125
1617967439.68733,-13.16928,33.51739001274109
1617967439.70296,-11.00192,33.53302001953125
1617967439.71858,-7.930206,33.54864001274109
1617967439.73421,-4.777618,33.56427001953125
1617967439.74984,-2.212402,33.57990002632141
1617967439.76546,-0.4016113,33.59552001953125
1617967439.78109,0.927124,33.61115002632141
1617967439.79671,2.172333,33.62677001953125
1617967439.81234,3.592316,33.64240002632141
1617967439.82796,5.106903,33.65802001953125
1617967439.84359,6.43045,33.67365002632141
1617967439.85922,7.340393,33.68928003311157
1617967439.87484,7.881683,33.70490002632141
1617967439.89047,8.33609,33.72053003311157
1617967439.90609,8.985413,33.73615002632141
1617967439.92172,9.834381,33.75178003311157
1617967439.93735,10.48013,33.76741003990173
1617967439.95297,10.28928,33.78303003311157
1617967439.9686,8.686401,33.79866003990173
1617967439.98422,5.525757,33.81428003311157
1617967439.99985,1.243042,33.82991003990173
1617967440.01547,-3.329834,33.84553003311157
1617967440.0311,-7.241852,33.86116003990173
1617967440.04673,-9.859985,33.876790046691895
1617967440.06235,-11.02594,33.89241003990173
1617967440.07798,-11.09637,33.908040046691895
1617967440.0936,-10.76392,33.92366003990173
1617967440.10923,-10.71814,33.939290046691895
1617967440.12485,-11.34985,33.95491003990173
1617967440.14048,-12.58231,33.970540046691895
1617967440.15611,-14.02283,33.986170053482056
1617967440.17173,-15.14371,34.001790046691895
1617967440.18736,-15.64276,34.017420053482056
1617967440.20298,-15.55209,34.033040046691895
1617967440.21861,-15.19202,34.048670053482056
1617967440.23423,-14.94949,34.064290046691895
1617967440.24986,-15.0473,34.079920053482056
1617967440.26549,-15.43808,34.09555006027222
1617967440.28111,-15.85236,34.111170053482056
1617967440.29674,-16.05643,34.12680006027222
1617967440.31236,-15.98462,34.142420053482056
1617967440.32799,-15.75983,34.15805006027222
1617967440.34361,-15.57217,34.173670053482056
1617967440.35924,-15.55307,34.18930006027222
1617967440.37487,-15.67795,34.20493006706238
1617967440.39049,-15.82361,34.22055006027222
1617967440.40612,-15.85947,34.23618006706238
1617967440.42174,-15.74783,34.25180006027222
1617967440.43737,-15.5235,34.26743006706238
1617967440.45299,-15.23013,34.28305006027222
1617967440.46862,-14.94717,34.29868006706238
1617967440.48425,-14.70255,34.31431007385254
1617967440.49987,-14.49762,34.32993006706238
1617967440.5155,-14.28394,34.34556007385254
1617967440.53112,-13.92715,34.36118006706238
1617967440.54675,-13.19635,34.37681007385254
1617967440.56237,-11.79263,34.39243006706238
1617967440.578,-9.488403,34.40806007385254
1617967440.59363,-6.179169,34.4236900806427
1617967440.60925,-1.993439,34.43931007385254
1617967440.62488,2.790131,34.4549400806427
1617967440.6405,7.713593,34.47056007385254
1617967440.65613,12.27264,34.4861900806427
1617967440.67175,15.93976,34.50181007385254
1617967440.68738,18.21143,34.5174400806427
1617967440.70301,18.7308,34.53307008743286
1617967440.71863,17.30447,34.5486900806427
1617967440.73426,14.09549,34.56432008743286
1617967440.74988,9.596802,34.5799400806427
1617967440.76551,4.619873,34.59557008743286
1617967440.78113,0.06253052,34.6111900806427
1617967440.79676,-3.27887,34.62682008743286
1617967440.81239,-4.887848,34.64245009422302
1617967440.82801,-4.606659,34.65807008743286
1617967440.84364,-2.649567,34.67370009422302
1617967440.85926,0.4795532,34.68932008743286
1617967440.87489,4.172028,34.70495009422302
1617967440.89051,7.853424,34.72057008743286
1617967440.90614,11.14343,34.73620009422302
1617967440.92177,13.80429,34.751830101013184
1617967440.93739,15.79681,34.76745009422302
1617967440.95302,17.19742,34.783080101013184
1617967440.96864,18.08298,34.79870009422302
1617967440.98427,18.55182,34.814330101013184
1617967440.99989,18.68124,34.82995009422302
1617967441.01552,18.51883,34.845580101013184
1617967441.03115,18.17462,34.861210107803345
1617967441.04677,17.81561,34.876830101013184
1617967441.0624,17.69968,34.892460107803345
1617967441.07802,18.13556,34.908080101013184
1617967441.09365,19.4108,34.923710107803345
1617967441.10927,21.56384,34.939330101013184
1617967441.1249,24.45248,34.954960107803345
1617967441.14053,27.61496,34.970590114593506
1617967441.15615,30.56119,34.986210107803345
1617967441.17178,32.90231,35.001840114593506
1617967441.1874,34.55121,35.017460107803345
1617967441.20303,35.68509,35.033090114593506
1617967441.21865,36.56802,35.048710107803345
1617967441.23428,37.34915,35.064340114593506
1617967441.24991,37.94711,35.07997012138367
1617967441.26553,38.16245,35.095590114593506
1617967441.28116,37.84439,35.11122012138367
1617967441.29678,37.05249,35.126840114593506
1617967441.31241,36.07648,35.14247012138367
1617967441.32803,35.29071,35.158090114593506
1617967441.34366,34.94446,35.17372012138367
1617967441.35929,35.03763,35.18934988975525
1617967441.37491,35.34744,35.20497012138367
1617967441.39054,35.56033,35.22059988975525
1617967441.40616,35.45874,35.23622012138367
1617967441.42179,35.00183,35.25184988975525
1617967441.43741,34.34219,35.26747012138367
1617967441.45304,33.79706,35.28309988975525
1617967441.46867,33.69131,35.29872989654541
1617967441.48429,34.3566,35.31434988975525
1617967441.49992,36.05933,35.32997989654541
1617967441.51554,38.91754,35.34559988975525
1617967441.53117,42.85666,35.36122989654541
1617967441.54679,47.55618,35.37684988975525
1617967441.56242,52.48779,35.39247989654541
1617967441.57805,56.94403,35.40810990333557
1617967441.59367,60.23181,35.42372989654541
1617967441.6093,61.76077,35.43935990333557
1617967441.62492,61.28366,35.45497989654541
1617967441.64055,58.85291,35.47060990333557
1617967441.65617,54.82407,35.48622989654541
1617967441.6718,49.67496,35.50185990333557
1617967441.68743,43.85526,35.51748991012573
1617967441.70305,37.67584,35.53310990333557
1617967441.71868,31.28204,35.54873991012573
1617967441.7343,24.80655,35.56435990333557
1617967441.74993,18.34668,35.57998991012573
1617967441.76555,12.09296,35.59560990333557
1617967441.78118,6.218658,35.61123991012573
1617967441.79681,0.7737732,35.626869916915894
1617967441.81243,-4.367462,35.64248991012573
1617967441.82806,-9.545563,35.658119916915894
1617967441.84368,-15.2049,35.67373991012573
1617967441.85931,-21.8587,35.689369916915894
1617967441.87493,-29.93005,35.70498991012573
1617967441.89056,-39.72549,35.720619916915894
1617967441.90619,-51.3743,35.736249923706055
1617967441.92181,-64.77542,35.751869916915894
1617967441.93744,-79.50162,35.767499923706055
1617967441.95306,-94.83319,35.783119916915894
1617967441.96869,-109.818,35.798749923706055
1617967441.98431,-123.3983,35.814369916915894
1617967441.99994,-134.5776,35.829999923706055
1617967442.01557,-142.4635,35.845629930496216
1617967442.03119,-146.3828,35.861249923706055
1617967442.04682,-145.9469,35.876879930496216
1617967442.06244,-141.1817,35.892499923706055
1617967442.07807,-132.5218,35.908129930496216
1617967442.09369,-120.7734,35.923749923706055
1617967442.10932,-106.966,35.939379930496216
1617967442.12495,-92.09265,35.95500993728638
1617967442.14057,-76.93942,35.970629930496216
1617967442.1562,-62.03574,35.98625993728638
1617967442.17182,-47.74152,36.001879930496216
1617967442.18745,-34.40454,36.01750993728638
1617967442.20307,-22.47461,36.033129930496216
1617967442.2187,-12.49704,36.04875993728638
1617967442.23433,-4.906677,36.06438994407654
1617967442.24995,0.1026917,36.08000993728638
1617967442.26558,2.736176,36.09563994407654
1617967442.2812,3.576416,36.11125993728638
1617967442.29683,3.456696,36.12688994407654
1617967442.31245,3.315125,36.14250993728638
1617967442.32808,3.966431,36.15813994407654
1617967442.34371,6.04715,36.1737699508667
1617967442.35933,9.838074,36.18938994407654
1617967442.37496,15.2326,36.2050199508667
1617967442.39058,21.79654,36.22063994407654
1617967442.40621,28.78455,36.2362699508667
1617967442.42183,35.31577,36.25188994407654
1617967442.43746,40.6731,36.2675199508667
1617967442.45309,44.51886,36.28314995765686
1617967442.46871,46.97504,36.2987699508667
1617967442.48434,48.57355,36.31439995765686
1617967442.49996,49.96432,36.3300199508667
1617967442.51559,51.70313,36.34564995765686
1617967442.53122,54.03464,36.36127996444702
1617967442.54684,56.85342,36.37689995765686
1617967442.56247,59.81955,36.39252996444702
1617967442.57809,62.43222,36.40814995765686
1617967442.59372,64.2345,36.42377996444702
1617967442.60934,64.78888,36.43939995765686
1617967442.62497,63.81073,36.45502996444702
1617967442.6406,61.0054,36.47065997123718
1617967442.65622,56.371,36.48627996444702
1617967442.67185,50.2999,36.50190997123718
1617967442.68747,43.49014,36.51752996444702
1617967442.7031,36.70844,36.53315997123718
1617967442.71872,30.34494,36.54877996444702
1617967442.73435,24.4975,36.56440997123718
1617967442.74998,19.16895,36.580039978027344
1617967442.7656,14.33139,36.59565997123718
1617967442.78123,9.862549,36.611289978027344
1617967442.79685,5.769653,36.62690997123718
1617967442.81248,2.113617,36.642539978027344
1617967442.8281,-1.051788,36.65815997123718
1617967442.84373,-3.741425,36.673789978027344
1617967442.85936,-6.302063,36.689419984817505
1617967442.87498,-8.988495,36.705039978027344
1617967442.89061,-11.80319,36.720669984817505
1617967442.90623,-14.5127,36.736289978027344
1617967442.92186,-17.22833,36.751919984817505
1617967442.93748,-20.04977,36.767539978027344
1617967442.95311,-22.896,36.783169984817505
1617967442.96874,-25.58466,36.798799991607666
1617967442.98436,-27.72867,36.814419984817505
1617967442.99999,-29.41364,36.830049991607666
1617967443.01561,-30.57431,36.845669984817505
1617967443.03124,-30.98013,36.861299991607666
1617967443.04686,-30.38797,36.876919984817505
1617967443.06249,-29.89203,36.892549991607666
1617967443.07812,-30.42505,36.90817999839783
1617967443.09374,-31.98306,36.923799991607666
1617967443.10937,-33.612,36.93942999839783
1617967443.12499,-33.61038,36.955049991607666
1617967443.14062,-31.90668,36.97067999839783
1617967443.15624,-28.80713,36.986299991607666
1617967443.17187,-24.73401,37.00192999839783
1617967443.1875,-20.30075,37.01756000518799
1617967443.20312,-18.59842,37.03317999839783
1617967443.21875,-21.81314,37.04881000518799
1617967443.23437,-29.58136,37.06442999839783
1617967443.25,-39.12656,37.08006000518799
1617967443.26562,-46.11227,37.09567999839783
1617967443.28125,-49.9053,37.11131000518799
1617967443.29688,-51.16025,37.12694001197815
1617967443.3125,-50.9975,37.14256000518799
1617967443.32813,-50.84866,37.15819001197815
1617967443.34375,-55.66019,37.17381000518799
1617967443.35938,-68.56635,37.18944001197815
1617967443.375,-88.53427,37.20506000518799
1617967443.39063,-111.0587,37.22069001197815
1617967443.40626,-129.6578,37.23632001876831
1617967443.42188,-143.9154,37.25194001197815
1617967443.43751,-155.252,37.26757001876831
1617967443.45313,-165.183,37.28319001197815
1617967443.46876,-175.3456,37.29882001876831
1617967443.48438,-191.9823,37.31444001197815
1617967443.50001,-219.6045,37.33007001876831
1617967443.51564,-258.0655,37.34570002555847
1617967443.53126,-302.8321,37.36132001876831
1617967443.54689,-346.0113,37.37695002555847
1617967443.56251,-385.8283,37.39257001876831
1617967443.57814,-421.135,37.40820002555847
1617967443.59376,-449.8575,37.42382001876831
1617967443.60939,-437.3265,37.43945002555847
1617967443.62502,-365.6806,37.45508003234863
1617967443.64064,-246.7667,37.47070002555847
1617967443.65627,-115.3748,37.48633003234863
1617967443.67189,-19.78915,37.50195002555847
1617967443.68752,41.54016,37.51758003234863
1617967443.70314,76.66782,37.53320002555847
1617967443.71877,93.80605,37.54883003234863
1617967443.7344,105.4086,37.564460039138794
1617967443.75002,121.0429,37.58008003234863
1617967443.76565,144.8298,37.595710039138794
1617967443.78127,180.2495,37.61133003234863
1617967443.7969,230.9625,37.626960039138794
1617967443.81252,298.6842,37.64258003234863
1617967443.82815,381.5812,37.658210039138794
1617967443.84378,465.9586,37.673840045928955
1617967443.8594,534.8953,37.689460039138794
1617967443.87503,574.3005,37.705090045928955
1617967443.89065,576.2189,37.720710039138794
1617967443.90628,537.7554,37.736340045928955
1617967443.9219,465.3503,37.751960039138794
1617967443.93753,374.2051,37.767590045928955
1617967443.95316,283.7921,37.783220052719116
1617967443.96878,212.6048,37.798840045928955
1617967443.98441,167.776,37.814470052719116
1617967444.00003,148.4227,37.830090045928955
1617967444.01566,148.4736,37.845720052719116
1617967444.03128,158.6998,37.861340045928955
1617967444.04691,167.3532,37.876970052719116
1617967444.06254,165.1463,37.89260005950928
1617967444.07816,147.9287,37.908220052719116
1617967444.09379,116.8883,37.92385005950928
1617967444.10941,77.66042,37.939470052719116
1617967444.12504,34.63012,37.95510005950928
1617967444.14066,-7.620705,37.970720052719116
1617967444.15629,-44.5016,37.98635005950928
1617967444.17192,-72.60022,38.00198006629944
1617967444.18754,-91.24554,38.01760005950928
1617967444.20317,-101.4169,38.03323006629944
1617967444.21879,-104.7766,38.04885005950928
1617967444.23442,-103.1254,38.06448006629944
1617967444.25004,-97.8772,38.08010005950928
1617967444.26567,-91.57815,38.09573006629944
1617967444.2813,-86.01178,38.1113600730896
1617967444.29692,-81.66808,38.12698006629944
1617967444.31255,-78.05087,38.1426100730896
1617967444.32817,-74.5742,38.15823006629944
1617967444.3438,-70.73875,38.1738600730896
1617967444.35942,-66.27282,38.18948006629944
1617967444.37505,-61.3081,38.2051100730896
1617967444.39068,-56.22887,38.22074007987976
1617967444.4063,-52.04111,38.2363600730896
1617967444.42193,-49.3845,38.25199007987976
1617967444.43755,-48.25371,38.2676100730896
1617967444.45318,-47.98452,38.28324007987976
1617967444.4688,-47.609,38.2988600730896
1617967444.48443,-46.27937,38.31449007987976
1617967444.50006,-43.60709,38.33012008666992
1617967444.51568,-39.75489,38.34574007987976
1617967444.53131,-35.29107,38.36137008666992
1617967444.54693,-30.88995,38.37699007987976
1617967444.56256,-27.00268,38.39262008666992
1617967444.57818,-23.78891,38.40824007987976
1617967444.59381,-21.06844,38.42387008666992
1617967444.60944,-18.56754,38.43950009346008
1617967444.62506,-16.01858,38.45512008666992
1617967444.64069,-13.23798,38.47075009346008
1617967444.65631,-10.13169,38.48637008666992
1617967444.67194,-6.612297,38.50200009346008
1617967444.68756,-2.665314,38.51762008666992
1617967444.70319,1.651001,38.53325009346008
1617967444.71882,6.045448,38.548880100250244
1617967444.73444,10.04933,38.56450009346008
1617967444.75007,13.12619,38.580130100250244
1617967444.76569,14.81297,38.59575009346008
1617967444.78132,14.96198,38.611380100250244
1617967444.79695,13.69842,38.627010107040405
1617967444.81257,11.44923,38.642630100250244
1617967444.8282,8.758026,38.658260107040405
1617967444.84382,6.138092,38.673880100250244
1617967444.85945,3.973717,38.689510107040405
1617967444.87507,2.50399,38.705130100250244
1617967444.8907,1.782837,38.720760107040405
1617967444.90633,1.727219,38.736390113830566
1617967444.92195,2.125061,38.752010107040405
1617967444.93758,2.720863,38.767640113830566
1617967444.9532,3.274628,38.783260107040405
1617967444.96883,3.651482,38.798890113830566
1617967444.98445,3.862862,38.814510107040405
1617967445.00008,4.043762,38.830140113830566
1617967445.01571,4.373268,38.84577012062073
1617967445.03133,5.004036,38.861390113830566
1617967445.04696,5.994904,38.87702012062073
1617967445.06258,7.291862,38.892640113830566
1617967445.07821,8.886635,38.90827012062073
1617967445.09383,10.77555,38.923890113830566
1617967445.10946,13.05571,38.93952012062073
1617967445.12509,15.84921,38.95514988899231
1617967445.14071,19.16588,38.97077012062073
1617967445.15634,22.9075,38.98639988899231
1617967445.17196,26.74878,39.00202012062073
1617967445.18759,30.31299,39.01764988899231
1617967445.20321,33.31526,39.03327012062073
1617967445.21884,35.63509,39.04889988899231
1617967445.23447,37.39116,39.06452989578247
1617967445.25009,38.83215,39.08014988899231
1617967445.26572,40.18274,39.09577989578247
1617967445.28134,41.53706,39.11139988899231
1617967445.29697,42.86938,39.12702989578247
1617967445.31259,44.13535,39.14264988899231
1617967445.32822,45.39813,39.15827989578247
1617967445.34385,46.89612,39.17390990257263
1617967445.35947,49.01172,39.18952989578247
1617967445.3751,52.10072,39.20515990257263
1617967445.39072,56.31897,39.22077989578247
1617967445.40635,61.56374,39.23640990257263
1617967445.42197,67.35388,39.25202989578247
1617967445.4376,72.99965,39.26765990257263
1617967445.45323,77.7226,39.28328990936279
1617967445.46885,80.85536,39.29890990257263
1617967445.48448,82.04807,39.31453990936279
1617967445.5001,81.40945,39.33015990257263
1617967445.51573,79.39943,39.34578990936279
1617967445.53135,76.71266,39.36140990257263
1617967445.54698,74.00636,39.37703990936279
1617967445.56261,71.62335,39.392669916152954
1617967445.57823,69.5567,39.40828990936279
1617967445.59386,67.44734,39.423919916152954
1617967445.60948,64.85919,39.43953990936279
1617967445.62511,61.44049,39.455169916152954
1617967445.64073,57.09549,39.47078990936279
1617967445.65636,52.00781,39.486419916152954
1617967445.67199,46.48227,39.502049922943115
1617967445.68761,40.82034,39.517669916152954
1617967445.70324,35.15222,39.533299922943115
1617967445.71886,29.37469,39.548919916152954
1617967445.73449,23.12335,39.564549922943115
1617967445.75011,15.94077,39.580169916152954
1617967445.76574,7.468414,39.595799922943115
1617967445.78137,-2.293365,39.611429929733276
1617967445.79699,-12.88623,39.627049922943115
1617967445.81262,-23.49615,39.642679929733276
1617967445.82824,-33.21832,39.658299922943115
1617967445.84387,-41.40466,39.673929929733276
1617967445.85949,-47.80078,39.689549922943115
1617967445.87512,-52.59247,39.705179929733276
1617967445.89075,-56.24564,39.72080993652344
1617967445.90637,-59.3219,39.736429929733276
1617967445.922,-62.42014,39.75205993652344
1617967445.93762,-66.12537,39.767679929733276
1617967445.95325,-70.96356,39.78330993652344
1617967445.96887,-77.30518,39.798929929733276
1617967445.9845,-85.27322,39.81455993652344
1617967446.00013,-94.68018,39.8301899433136
1617967446.01575,-105.1073,39.84580993652344
1617967446.03138,-116.0391,39.8614399433136
1617967446.047,-127.1004,39.87705993652344
1617967446.06263,-138.1651,39.8926899433136
1617967446.07825,-149.3448,39.90830993652344
1617967446.09388,-160.828,39.9239399433136
1617967446.10951,-172.6909,39.93956995010376
1617967446.12513,-184.7648,39.9551899433136
1617967446.14076,-196.5872,39.97081995010376
1617967446.15638,-207.4245,39.9864399433136
1617967446.17201,-216.4737,40.00206995010376
1617967446.18763,-223.1272,40.0176899433136
1617967446.20326,-227.1633,40.03331995010376
1617967446.21889,-228.8217,40.04894995689392
1617967446.23451,-228.6539,40.06456995010376
1617967446.25014,-227.0428,40.08019995689392
1617967446.26576,-223.8344,40.09581995010376
1617967446.28139,-218.0632,40.11144995689392
1617967446.29701,-208.255,40.12706995010376
1617967446.31264,-193.066,40.14269995689392
1617967446.32827,-171.892,40.15832996368408
1617967446.34389,-145.3046,40.17394995689392
1617967446.35952,-114.9351,40.18957996368408
1617967446.37514,-82.87781,40.20519995689392
1617967446.39077,-51.05109,40.22082996368408
1617967446.40639,-20.83505,40.23644995689392
1617967446.42202,7.001282,40.25207996368408
1617967446.43765,31.99713,40.26770997047424
1617967446.45327,53.80197,40.28332996368408
1617967446.4689,72.15918,40.29895997047424
1617967446.48452,86.99756,40.31457996368408
1617967446.50015,98.60129,40.33020997047424
1617967446.51577,107.5581,40.34582996368408
1617967446.5314,114.5462,40.36145997047424
1617967446.54703,119.9781,40.377089977264404
1617967446.56265,123.8694,40.39270997047424
1617967446.57828,125.9106,40.408339977264404
1617967446.5939,125.6762,40.42395997047424
1617967446.60953,122.9669,40.439589977264404
1617967446.62515,118.0107,40.45520997047424
1617967446.64078,111.4482,40.470839977264404
1617967446.65641,104.1352,40.486469984054565
1617967446.67203,96.97057,40.502089977264404
1617967446.68766,90.60638,40.517719984054565
1617967446.70328,85.39325,40.533339977264404
1617967446.71891,81.34489,40.548969984054565
1617967446.73453,78.27017,40.564589977264404
1617967446.75016,75.93173,40.580219984054565
1617967446.76579,74.1669,40.59584999084473
1617967446.78141,72.95973,40.611469984054565
1617967446.79704,72.36205,40.62709999084473
1617967446.81266,72.40565,40.642719984054565
1617967446.82829,73.00453,40.65834999084473
1617967446.84391,73.9706,40.673969984054565
1617967446.85954,75.11496,40.68959999084473
1617967446.87517,76.24603,40.70522999763489
1617967446.89079,77.33966,40.72084999084473
1617967446.90642,78.34677,40.73647999763489
1617967446.92204,79.25822,40.75209999084473
1617967446.93767,79.93221,40.76772999763489
1617967446.95329,80.20921,40.78334999084473
1617967446.96892,79.87297,40.79897999763489
1617967446.98455,78.83882,40.81461000442505
1617967447.00017,77.20114,40.83022999763489
1617967447.0158,75.24911,40.84586000442505
1617967447.03142,73.493,40.86147999763489
1617967447.04705,72.48703,40.87711000442505
1617967447.06268,72.6682,40.89274001121521
1617967447.0783,74.17986,40.90836000442505
1617967447.09393,76.66965,40.92399001121521
1617967447.10955,79.23332,40.93961000442505
1617967447.12518,80.56976,40.95524001121521
1617967447.1408,79.36433,40.97086000442505
1617967447.15643,74.71301,40.98649001121521
1617967447.17206,66.39197,41.00212001800537
1617967447.18768,54.94016,41.01774001121521
1617967447.20331,41.37839,41.03337001800537
1617967447.21893,26.80679,41.04899001121521
1617967447.23456,12.09816,41.06462001800537
1617967447.25018,-2.309845,41.08024001121521
1617967447.26581,-16.21552,41.09587001800537
1617967447.28144,-29.54379,41.11150002479553
1617967447.29706,-42.11168,41.12712001800537
1617967447.31269,-53.57993,41.14275002479553
1617967447.32831,-63.50951,41.15837001800537
1617967447.34394,-71.51674,41.17400002479553
1617967447.35956,-77.37874,41.18962001800537
1617967447.37519,-81.15224,41.20525002479553
1617967447.39082,-83.11542,41.22088003158569
1617967447.40644,-83.72406,41.23650002479553
1617967447.42207,-83.41574,41.25213003158569
1617967447.43769,-82.52138,41.26775002479553
1617967447.45332,-81.10542,41.28338003158569
1617967447.46894,-79.02457,41.29900002479553
1617967447.48457,-75.98859,41.31463003158569
1617967447.5002,-71.86099,41.330260038375854
1617967447.51582,-66.79228,41.34588003158569
1617967447.53145,-61.30156,41.361510038375854
1617967447.54707,-56.13409,41.37713003158569
1617967447.5627,-52.0117,41.392760038375854
1617967447.57832,-49.44337,41.40838003158569
1617967447.59395,-48.51723,41.424010038375854
1617967447.60958,-48.83859,41.439640045166016
1617967447.6252,-49.52966,41.455260038375854
1617967447.64083,-49.43495,41.470890045166016
1617967447.65645,-47.3145,41.486510038375854
1617967447.67208,-42.34964,41.502140045166016
1617967447.6877,-34.39845,41.517760038375854
1617967447.70333,-24.13141,41.533390045166016
1617967447.71896,-12.82347,41.54902005195618
1617967447.73458,-1.84404,41.564640045166016
1617967447.75021,7.760132,41.58027005195618
1617967447.76583,15.53456,41.595890045166016
1617967447.78146,21.51643,41.61152005195618
1617967447.79708,25.91083,41.627140045166016
1617967447.81271,28.73051,41.64277005195618
1617967447.82834,29.7755,41.65840005874634
1617967447.84396,28.77328,41.67402005195618
1617967447.85959,25.68831,41.68965005874634
1617967447.87521,20.94461,41.70527005195618
1617967447.89084,15.35527,41.72090005874634
1617967447.90646,9.878677,41.73652005195618
1617967447.92209,5.410416,41.75215005874634
1617967447.93772,2.540863,41.7677800655365
1617967447.95334,1.513992,41.78340005874634
1617967447.96897,2.197983,41.7990300655365
1617967447.98459,4.086105,41.81465005874634
1617967448.00022,6.350998,41.8302800655365
1617967448.01584,8.020081,41.84590005874634
1617967448.03147,8.197937,41.8615300655365
1617967448.0471,6.355774,41.87716007232666
1617967448.06272,2.400177,41.8927800655365
1617967448.07835,-3.410233,41.90841007232666
1617967448.09397,-10.68922,41.9240300655365
1617967448.1096,-18.9836,41.93966007232666
1617967448.12522,-27.86877,41.9552800655365
1617967448.14085,-36.77878,41.97091007232666
1617967448.15648,-44.96924,41.98654007911682
1617967448.1721,-51.59406,42.00216007232666
1617967448.18773,-55.99031,42.01779007911682
1617967448.20335,-57.94017,42.03341007232666
1617967448.21898,-57.76503,42.04904007911682
1617967448.2346,-56.08716,42.06466007232666
1617967448.25023,-53.44244,42.08029007911682
1617967448.26586,-49.99696,42.09592008590698
1617967448.28148,-45.45238,42.11154007911682
1617967448.29711,-39.35022,42.12717008590698
1617967448.31273,-31.35051,42.14279007911682
1617967448.32836,-21.51204,42.15842008590698
1617967448.34398,-10.28299,42.17404007911682
1617967448.35961,1.708298,42.18967008590698
1617967448.37524,13.82368,42.205300092697144
1617967448.39086,25.66765,42.22092008590698
1617967448.40649,36.9973,42.236550092697144
1617967448.42211,47.76282,42.25217008590698
1617967448.43774,57.8997,42.267800092697144
1617967448.45336,67.30469,42.28342008590698
1617967448.46899,75.7002,42.299050092697144
1617967448.48462,82.57961,42.314680099487305
1617967448.50024,87.15186,42.330300092697144
1617967448.51587,88.49783,42.345930099487305
1617967448.53149,85.82126,42.361550092697144
1617967448.54712,78.73479,42.377180099487305
1617967448.56274,67.53183,42.392800092697144
1617967448.57837,53.20535,42.408430099487305
1617967448.594,37.27887,42.424060106277466
1617967448.60962,21.42201,42.439680099487305
