timestamp,value,norm_ts
1617966553.89631,-4.248425,0.9073100090026855
1617966553.91194,-5.246029,0.9229400157928467
1617966553.92756,-5.765934,0.9385600090026855
1617966553.94319,-5.839558,0.9541900157928467
1617966553.95881,-5.597725,0.9698100090026855
1617966553.97444,-5.255306,0.9854400157928467
1617966553.99006,-4.993744,1.0010600090026855
1617966554.00569,-4.933754,1.0166900157928467
1617966554.02132,-5.126343,1.0323200225830078
1617966554.03694,-5.521126,1.0479400157928467
1617966554.05257,-5.951462,1.0635700225830078
1617966554.06819,-6.177933,1.0791900157928467
1617966554.08382,-5.940918,1.0948200225830078
1617966554.09944,-5.082592,1.1104400157928467
1617966554.11507,-3.641037,1.1260700225830078
1617966554.1307,-1.839218,1.141700029373169
1617966554.14632,-0.04967117,1.1573200225830078
1617966554.16195,1.384163,1.172950029373169
1617966554.17757,2.267101,1.1885700225830078
1617966554.1932,2.59412,1.204200029373169
1617966554.20882,2.542583,1.2198200225830078
1617966554.22445,2.320164,1.235450029373169
1617966554.24008,2.078396,1.25108003616333
1617966554.2557,1.869862,1.266700029373169
1617966554.27133,1.678444,1.28233003616333
1617966554.28695,1.510052,1.297950029373169
1617966554.30258,1.431641,1.31358003616333
1617966554.3182,1.536755,1.329200029373169
1617966554.33383,1.888458,1.34483003616333
1617966554.34946,2.471188,1.360459804534912
1617966554.36508,3.170593,1.37608003616333
1617966554.38071,3.845661,1.391709804534912
1617966554.39633,4.391445,1.40733003616333
1617966554.41196,4.797401,1.422959804534912
1617966554.42758,5.103195,1.43858003616333
1617966554.44321,5.406879,1.454209804534912
1617966554.45884,5.741592,1.4698398113250732
1617966554.47446,6.054737,1.485459804534912
1617966554.49009,6.239662,1.5010898113250732
1617966554.50571,6.129345,1.516709804534912
1617966554.52134,5.631798,1.5323398113250732
1617966554.53696,4.74189,1.547959804534912
1617966554.55259,3.617191,1.5635898113250732
1617966554.56822,2.443569,1.5792198181152344
1617966554.58384,1.451145,1.5948398113250732
1617966554.59947,0.7845345,1.6104698181152344
1617966554.61509,0.4903793,1.6260898113250732
1617966554.63072,0.5596275,1.6417198181152344
1617966554.64634,0.8554878,1.6573398113250732
1617966554.66197,1.23312,1.6729698181152344
1617966554.6776,1.542252,1.6885998249053955
1617966554.69322,1.657074,1.7042198181152344
1617966554.70885,1.476093,1.7198498249053955
1617966554.72447,0.9577065,1.7354698181152344
1617966554.7401,0.1263161,1.7510998249053955
1617966554.75572,-0.9093971,1.7667198181152344
1617966554.77135,-1.988052,1.7823498249053955
1617966554.78698,-3.003124,1.7979798316955566
1617966554.8026,-3.895973,1.8135998249053955
1617966554.81823,-4.665085,1.8292298316955566
1617966554.83385,-5.353271,1.8448498249053955
1617966554.84948,-5.969658,1.8604798316955566
1617966554.8651,-6.48093,1.8760998249053955
1617966554.88073,-6.812981,1.8917298316955566
1617966554.89636,-6.914867,1.9073598384857178
1617966554.91198,-6.803917,1.9229798316955566
1617966554.92761,-6.559242,1.9386098384857178
1617966554.94323,-6.279476,1.9542298316955566
1617966554.95886,-5.983788,1.9698598384857178
1617966554.97448,-5.574562,1.9854798316955566
1617966554.99011,-4.843075,2.0011098384857178
1617966555.00574,-3.644028,2.016739845275879
1617966555.02136,-2.027733,2.0323598384857178
1617966555.03699,-0.2885551,2.047989845275879
1617966555.05261,1.170479,2.0636098384857178
1617966555.06824,1.995014,2.079239845275879
1617966555.08386,2.125351,2.0948598384857178
1617966555.09949,1.774509,2.110489845275879
1617966555.11512,1.328392,2.12611985206604
1617966555.13074,1.166653,2.141739845275879
1617966555.14637,1.458801,2.15736985206604
1617966555.16199,2.112331,2.172989845275879
1617966555.17762,2.871677,2.18861985206604
1617966555.19324,3.488346,2.204239845275879
1617966555.20887,3.824043,2.21986985206604
1617966555.2245,3.89043,2.235499858856201
1617966555.24012,3.795471,2.25111985206604
1617966555.25575,3.641735,2.266749858856201
1617966555.27137,3.504326,2.28236985206604
1617966555.287,3.409721,2.297999858856201
1617966555.30262,3.319576,2.31361985206604
1617966555.31825,3.215134,2.329249858856201
1617966555.33388,3.08704,2.3448798656463623
1617966555.3495,2.942982,2.360499858856201
1617966555.36513,2.792656,2.3761298656463623
1617966555.38075,2.631226,2.391749858856201
1617966555.39638,2.443962,2.4073798656463623
1617966555.41201,2.185822,2.4230098724365234
1617966555.42763,1.838039,2.4386298656463623
1617966555.44326,1.430893,2.4542598724365234
1617966555.45888,1.030758,2.4698798656463623
1617966555.47451,0.6940002,2.4855098724365234
1617966555.49013,0.4974747,2.5011298656463623
1617966555.50576,0.4476433,2.5167598724365234
1617966555.52139,0.4934616,2.5323898792266846
1617966555.53701,0.5364265,2.5480098724365234
1617966555.55264,0.4703598,2.5636398792266846
1617966555.56826,0.2357521,2.5792598724365234
1617966555.58389,-0.1906128,2.5948898792266846
1617966555.59951,-0.7601166,2.6105098724365234
1617966555.61514,-1.394871,2.6261398792266846
1617966555.63077,-1.990726,2.6417698860168457
1617966555.64639,-2.454788,2.6573898792266846
1617966555.66202,-2.762085,2.6730198860168457
1617966555.67764,-2.945827,2.6886398792266846
1617966555.69327,-3.103168,2.7042698860168457
1617966555.70889,-3.308308,2.7198898792266846
1617966555.72452,-3.602478,2.7355198860168457
1617966555.74015,-3.890236,2.751149892807007
1617966555.75577,-4.053051,2.7667698860168457
1617966555.7714,-3.966141,2.782399892807007
1617966555.78702,-3.589714,2.7980198860168457
1617966555.80265,-2.998608,2.813649892807007
1617966555.81827,-2.293854,2.8292698860168457
1617966555.8339,-1.551228,2.844899892807007
1617966555.84953,-0.7465057,2.860529899597168
1617966555.86515,0.2043419,2.876149892807007
1617966555.88078,1.352551,2.891779899597168
1617966555.8964,2.607361,2.907399892807007
1617966555.91203,3.716831,2.923029899597168
1617966555.92765,4.372093,2.938649892807007
1617966555.94328,4.358883,2.954279899597168
1617966555.95891,3.702572,2.969909906387329
1617966555.97453,2.64518,2.985529899597168
1617966555.99016,1.572071,3.001159906387329
1617966556.00578,0.7970543,3.016779899597168
1617966556.02141,0.4485588,3.032409906387329
1617966556.03703,0.4118004,3.048029899597168
1617966556.05266,0.4583015,3.063659906387329
1617966556.06829,0.3993111,3.0792899131774902
1617966556.08391,0.2249413,3.094909906387329
1617966556.09954,0.1050301,3.1105399131774902
1617966556.11516,0.2513924,3.126159906387329
1617966556.13079,0.7623558,3.1417899131774902
1617966556.14641,1.544495,3.157409906387329
1617966556.16204,2.335175,3.1730399131774902
1617966556.17767,2.84127,3.1886699199676514
1617966556.19329,2.940823,3.2042899131774902
1617966556.20892,2.688305,3.2199199199676514
1617966556.22454,2.273613,3.2355399131774902
1617966556.24017,1.88483,3.2511699199676514
1617966556.25579,1.589703,3.2667899131774902
1617966556.27142,1.364979,3.2824199199676514
1617966556.28705,1.131878,3.2980499267578125
1617966556.30267,0.8549423,3.3136699199676514
1617966556.3183,0.5705528,3.3292999267578125
1617966556.33392,0.3604851,3.3449199199676514
1617966556.34955,0.2098579,3.3605499267578125
1617966556.36517,0.005817413,3.3761699199676514
1617966556.3808,-0.3988609,3.3917999267578125
1617966556.39643,-1.109867,3.4074299335479736
1617966556.41205,-2.045677,3.4230499267578125
1617966556.42768,-2.941353,3.4386799335479736
1617966556.4433,-3.487041,3.4542999267578125
1617966556.45893,-3.504524,3.4699299335479736
1617966556.47455,-3.02821,3.4855499267578125
1617966556.49018,-2.319328,3.5011799335479736
1617966556.50581,-1.718185,3.5168099403381348
1617966556.52143,-1.46262,3.5324299335479736
1617966556.53706,-1.638512,3.5480599403381348
1617966556.55268,-2.114067,3.5636799335479736
1617966556.56831,-2.674477,3.5793099403381348
1617966556.58393,-3.153606,3.5949299335479736
1617966556.59956,-3.50071,3.6105599403381348
1617966556.61519,-3.751785,3.626189947128296
1617966556.63081,-3.998665,3.6418099403381348
1617966556.64644,-4.291245,3.657439947128296
1617966556.66206,-4.639606,3.6730599403381348
1617966556.67769,-5.011166,3.688689947128296
1617966556.69331,-5.337536,3.7043099403381348
1617966556.70894,-5.532032,3.719939947128296
1617966556.72457,-5.502647,3.735569953918457
1617966556.74019,-5.13063,3.751189947128296
1617966556.75582,-4.328331,3.766819953918457
1617966556.77144,-3.098804,3.782439947128296
1617966556.78707,-1.532543,3.798069953918457
1617966556.80269,0.1941185,3.813689947128296
1617966556.81832,1.83744,3.829319953918457
1617966556.83395,3.18605,3.844949960708618
1617966556.84957,4.091911,3.860569953918457
1617966556.8652,4.4832,3.876199960708618
1617966556.88082,4.411083,3.891819953918457
1617966556.89645,4.007664,3.907449960708618
1617966556.91207,3.417557,3.923069953918457
1617966556.9277,2.804787,3.938699960708618
1617966556.94333,2.302483,3.9543299674987793
1617966556.95895,1.959015,3.969949960708618
1617966556.97458,1.819889,3.9855799674987793
1617966556.9902,1.902569,4.001199960708618
1617966557.00583,2.204807,4.016829967498779
1617966557.02145,2.690704,4.032449960708618
1617966557.03708,3.252563,4.048079967498779
1617966557.05271,3.725483,4.06370997428894
1617966557.06833,3.959728,4.079329967498779
1617966557.08396,3.910385,4.09495997428894
1617966557.09958,3.647785,4.110579967498779
1617966557.11521,3.315868,4.12620997428894
1617966557.13083,3.017731,4.141829967498779
1617966557.14646,2.742004,4.15745997428894
1617966557.16209,2.366673,4.173089981079102
1617966557.17771,1.78067,4.18870997428894
1617966557.19334,0.9796448,4.204339981079102
1617966557.20896,0.113987,4.21995997428894
1617966557.22459,-0.5863609,4.235589981079102
1617966557.24021,-0.9631538,4.25120997428894
1617966557.25584,-0.9509735,4.266839981079102
1617966557.27147,-0.6433258,4.282469987869263
1617966557.28709,-0.198616,4.298089981079102
1617966557.30272,0.2343521,4.313719987869263
1617966557.31834,0.5577011,4.329339981079102
1617966557.33397,0.6923866,4.344969987869263
1617966557.34959,0.585556,4.360589981079102
1617966557.36522,0.2055168,4.376219987869263
1617966557.38085,-0.4307861,4.391849994659424
1617966557.39647,-1.230907,4.407469987869263
1617966557.4121,-2.069809,4.423099994659424
1617966557.42772,-2.818008,4.438719987869263
1617966557.44335,-3.407146,4.454349994659424
1617966557.45897,-3.831955,4.469969987869263
1617966557.4746,-4.142128,4.485599994659424
1617966557.49023,-4.391628,4.501230001449585
1617966557.50585,-4.612598,4.516849994659424
1617966557.52148,-4.806961,4.532480001449585
1617966557.5371,-4.924252,4.548099994659424
1617966557.55273,-4.866772,4.563730001449585
1617966557.56835,-4.523643,4.579349994659424
1617966557.58398,-3.773106,4.594980001449585
1617966557.59961,-2.593712,4.610610008239746
1617966557.61523,-1.071903,4.626230001449585
1617966557.63086,0.5682793,4.641860008239746
1617966557.64648,2.06168,4.657480001449585
1617966557.66211,3.159569,4.673110008239746
1617966557.67774,3.768257,4.688740015029907
1617966557.69336,3.962059,4.704360008239746
1617966557.70899,3.904613,4.719990015029907
1617966557.72461,3.752403,4.735610008239746
1617966557.74024,3.580944,4.751240015029907
1617966557.75586,3.414059,4.766860008239746
1617966557.77149,3.216381,4.782490015029907
1617966557.78712,3.038277,4.798120021820068
1617966557.80274,2.963245,4.813740015029907
1617966557.81837,3.080906,4.829370021820068
1617966557.83399,3.379498,4.844990015029907
1617966557.84962,3.726898,4.860620021820068
1617966557.86524,3.891884,4.876240015029907
1617966557.88087,3.723961,4.891870021820068
1617966557.8965,3.196056,4.9075000286102295
1617966557.91212,2.468533,4.923120021820068
1617966557.92775,1.807453,4.9387500286102295
1617966557.94337,1.46484,4.954370021820068
1617966557.959,1.534641,4.9700000286102295
1617966557.97462,1.909794,4.985620021820068
1617966557.99025,2.387402,5.0012500286102295
1617966558.00588,2.717178,5.016880035400391
1617966558.0215,2.75111,5.0325000286102295
1617966558.03713,2.470318,5.048130035400391
1617966558.05275,1.981956,5.0637500286102295
1617966558.06838,1.438709,5.079380035400391
1617966558.084,0.9701157,5.0950000286102295
1617966558.09963,0.6041336,5.110630035400391
1617966558.11526,0.2929878,5.126259803771973
1617966558.13088,-0.05211258,5.141880035400391
1617966558.14651,-0.5116882,5.157509803771973
1617966558.16213,-1.083393,5.173130035400391
1617966558.17776,-1.726139,5.188759803771973
1617966558.19338,-2.338371,5.204380035400391
1617966558.20901,-2.812744,5.220009803771973
1617966558.22464,-3.120163,5.235639810562134
1617966558.24026,-3.287277,5.251259803771973
1617966558.25589,-3.373749,5.266889810562134
1617966558.27151,-3.441051,5.282509803771973
1617966558.28714,-3.491859,5.298139810562134
1617966558.30276,-3.498203,5.313759803771973
1617966558.31839,-3.395515,5.329389810562134
1617966558.33402,-3.153885,5.345019817352295
1617966558.34964,-2.786667,5.360639810562134
1617966558.36527,-2.424934,5.376269817352295
1617966558.38089,-2.207024,5.391889810562134
1617966558.39652,-2.238834,5.407519817352295
1617966558.41214,-2.508259,5.423139810562134
1617966558.42777,-2.909176,5.438769817352295
1617966558.4434,-3.251915,5.454399824142456
1617966558.45902,-3.336929,5.470019817352295
1617966558.47465,-3.085106,5.485649824142456
1617966558.49027,-2.520523,5.501269817352295
1617966558.5059,-1.752258,5.516899824142456
1617966558.52152,-0.9297905,5.532519817352295
1617966558.53715,-0.1627426,5.548149824142456
1617966558.55278,0.4583015,5.563779830932617
1617966558.5684,0.8947716,5.579399824142456
1617966558.58403,1.142632,5.595029830932617
1617966558.59965,1.298931,5.610649824142456
1617966558.61528,1.460102,5.626279830932617
1617966558.6309,1.697617,5.641899824142456
1617966558.64653,1.992104,5.657529830932617
1617966558.66216,2.261528,5.673159837722778
1617966558.67778,2.399624,5.688779830932617
1617966558.69341,2.344852,5.704409837722778
1617966558.70903,2.136276,5.720029830932617
1617966558.72466,1.875755,5.735659837722778
1617966558.74028,1.684235,5.751279830932617
1617966558.75591,1.579624,5.766909837722778
1617966558.77154,1.497581,5.7825398445129395
1617966558.78716,1.351559,5.798159837722778
1617966558.80279,1.096291,5.8137898445129395
1617966558.81841,0.7904968,5.829409837722778
1617966558.83404,0.5446854,5.8450398445129395
1617966558.84966,0.450386,5.860659837722778
1617966558.86529,0.4862137,5.8762898445129395
1617966558.88092,0.5525131,5.891919851303101
1617966558.89654,0.4950752,5.9075398445129395
1617966558.91217,0.2405281,5.923169851303101
1617966558.92779,-0.1519165,5.9387898445129395
1617966558.94342,-0.500206,5.954419851303101
1617966558.95904,-0.6246262,5.9700398445129395
1617966558.97467,-0.4022751,5.985669851303101
1617966558.9903,0.1165619,6.001299858093262
1617966559.00592,0.7694855,6.016919851303101
1617966559.02155,1.351086,6.032549858093262
1617966559.03717,1.690563,6.048169851303101
1617966559.0528,1.700775,6.063799858093262
1617966559.06842,1.419682,6.079419851303101
1617966559.08405,0.8812981,6.095049858093262
1617966559.09968,0.1301842,6.110679864883423
1617966559.1153,-0.7823677,6.126299858093262
1617966559.13093,-1.800728,6.141929864883423
1617966559.14655,-2.843349,6.157549858093262
1617966559.16218,-3.763691,6.173179864883423
1617966559.1778,-4.406616,6.188799858093262
1617966559.19343,-4.642143,6.204429864883423
1617966559.20906,-4.381264,6.220059871673584
1617966559.22468,-3.63044,6.235679864883423
1617966559.24031,-2.493298,6.251309871673584
1617966559.25593,-1.135567,6.266929864883423
1617966559.27156,0.2121162,6.282559871673584
1617966559.28718,1.325089,6.298179864883423
1617966559.30281,2.049267,6.313809871673584
1617966559.31844,2.32336,6.329439878463745
1617966559.33406,2.213268,6.345059871673584
1617966559.34969,1.877701,6.360689878463745
1617966559.36531,1.483471,6.376309871673584
1617966559.38094,1.157932,6.391939878463745
1617966559.39656,1.006046,6.407559871673584
1617966559.41219,1.039547,6.423189878463745
1617966559.42782,1.2216,6.438819885253906
1617966559.44344,1.49073,6.454439878463745
1617966559.45907,1.709118,6.470069885253906
1617966559.47469,1.791363,6.485689878463745
1617966559.49032,1.65015,6.501319885253906
1617966559.50594,1.286793,6.516939878463745
1617966559.52157,0.7517395,6.532569885253906
1617966559.5372,0.1703644,6.548199892044067
1617966559.55282,-0.3580818,6.563819885253906
1617966559.56845,-0.7720566,6.579449892044067
1617966559.58407,-1.085686,6.595069885253906
1617966559.5997,-1.376732,6.610699892044067
1617966559.61532,-1.688168,6.626319885253906
1617966559.63095,-2.051414,6.641949892044067
1617966559.64658,-2.447056,6.6575798988342285
1617966559.6622,-2.810963,6.673199892044067
1617966559.67783,-3.062912,6.6888298988342285
1617966559.69345,-3.154354,6.704449892044067
1617966559.70908,-3.059036,6.7200798988342285
1617966559.7247,-2.746826,6.735699892044067
1617966559.74033,-2.241821,6.7513298988342285
1617966559.75596,-1.563679,6.76695990562439
1617966559.77158,-0.8123055,6.7825798988342285
1617966559.78721,-0.1430168,6.79820990562439
1617966559.80283,0.2657166,6.8138298988342285
1617966559.81846,0.2793121,6.82945990562439
1617966559.83408,-0.1587372,6.8450798988342285
1617966559.84971,-0.9611359,6.86070990562439
1617966559.86534,-1.886028,6.876339912414551
1617966559.88096,-2.691261,6.89195990562439
1617966559.89659,-3.181465,6.907589912414551
1617966559.91221,-3.277836,6.92320990562439
1617966559.92784,-3.050655,6.938839912414551
1617966559.94346,-2.61483,6.95445990562439
1617966559.95909,-2.093773,6.970089912414551
1617966559.97472,-1.57111,6.985719919204712
1617966559.99034,-1.060181,7.001339912414551
1617966560.00597,-0.5425301,7.016969919204712
1617966560.02159,-0.05395126,7.032589912414551
1617966560.03722,0.3675385,7.048219919204712
1617966560.05285,0.6896782,7.063849925994873
1617966560.06847,0.9216423,7.079469919204712
1617966560.0841,1.131603,7.095099925994873
1617966560.09972,1.368626,7.110719919204712
1617966560.11535,1.623123,7.126349925994873
1617966560.13097,1.811977,7.141969919204712
1617966560.1466,1.799824,7.157599925994873
1617966560.16223,1.545021,7.173229932785034
1617966560.17785,1.143299,7.188849925994873
1617966560.19348,0.8259201,7.204479932785034
1617966560.2091,0.819294,7.220099925994873
1617966560.22473,1.23785,7.235729932785034
1617966560.24035,1.962116,7.251349925994873
1617966560.25598,2.724049,7.266979932785034
1617966560.27161,3.259232,7.282609939575195
1617966560.28723,3.42289,7.298229932785034
1617966560.30286,3.262993,7.313859939575195
1617966560.31848,2.96207,7.329479932785034
1617966560.33411,2.704647,7.345109939575195
1617966560.34973,2.508232,7.360729932785034
1617966560.36536,2.295097,7.376359939575195
1617966560.38099,1.917274,7.3919899463653564
1617966560.39661,1.288654,7.407609939575195
1617966560.41224,0.4729767,7.4232399463653564
1617966560.42786,-0.3739624,7.438859939575195
1617966560.44349,-1.096355,7.4544899463653564
1617966560.45911,-1.611492,7.470109939575195
1617966560.47474,-1.994148,7.4857399463653564
1617966560.49037,-2.370075,7.501369953155518
1617966560.50599,-2.844727,7.5169899463653564
1617966560.52162,-3.418148,7.532619953155518
1617966560.53724,-4.025066,7.5482399463653564
1617966560.55287,-4.518349,7.563869953155518
1617966560.56849,-4.793308,7.5794899463653564
1617966560.58412,-4.811298,7.595119953155518
1617966560.59975,-4.643051,7.610749959945679
1617966560.61537,-4.369427,7.626369953155518
1617966560.631,-4.084808,7.641999959945679
1617966560.64662,-3.857185,7.657619953155518
1617966560.66225,-3.653843,7.673249959945679
1617966560.67787,-3.390633,7.688869953155518
1617966560.6935,-2.898983,7.704499959945679
1617966560.70913,-2.042809,7.72012996673584
1617966560.72475,-0.7647858,7.735749959945679
1617966560.74038,0.8215141,7.75137996673584
1617966560.756,2.467876,7.766999959945679
1617966560.77163,3.879498,7.78262996673584
1617966560.78725,4.847115,7.798249959945679
1617966560.80288,5.362217,7.81387996673584
1617966560.81851,5.58239,7.829509973526001
1617966560.83413,5.749596,7.84512996673584
1617966560.84976,5.979492,7.860759973526001
1617966560.86538,6.220688,7.87637996673584
1617966560.88101,6.290195,7.892009973526001
1617966560.89663,6.030567,7.90762996673584
1617966560.91226,5.425236,7.923259973526001
1617966560.92789,4.644806,7.938889980316162
1617966560.94351,3.950092,7.954509973526001
1617966560.95914,3.541832,7.970139980316162
1617966560.97476,3.441799,7.985759973526001
1617966560.99039,3.516582,8.001389980316162
1617966561.00601,3.53344,8.017009973526001
1617966561.02164,3.340092,8.032639980316162
1617966561.03727,2.902782,8.048269987106323
1617966561.05289,2.316017,8.063889980316162
1617966561.06852,1.720673,8.079519987106323
1617966561.08414,1.20784,8.095139980316162
1617966561.09977,0.7293434,8.110769987106323
1617966561.11539,0.1940536,8.126389980316162
1617966561.13102,-0.445507,8.142019987106323
1617966561.14665,-1.137123,8.157649993896484
1617966561.16227,-1.692478,8.173269987106323
1617966561.1779,-1.909069,8.188899993896484
1617966561.19352,-1.716576,8.204519987106323
1617966561.20915,-1.25148,8.220149993896484
1617966561.22477,-0.8249283,8.235769987106323
1617966561.2404,-0.7874832,8.251399993896484
1617966561.25603,-1.327648,8.267030000686646
1617966561.27165,-2.33691,8.282649993896484
1617966561.28728,-3.487747,8.298280000686646
1617966561.3029,-4.379471,8.313899993896484
1617966561.31853,-4.720001,8.329530000686646
1617966561.33415,-4.467934,8.345149993896484
1617966561.34978,-3.812469,8.360780000686646
1617966561.36541,-3.053215,8.376410007476807
1617966561.38103,-2.489803,8.392030000686646
1617966561.39666,-2.355568,8.407660007476807
1617966561.41228,-2.725891,8.423280000686646
1617966561.42791,-3.561707,8.438910007476807
1617966561.44353,-4.684082,8.454530000686646
1617966561.45916,-5.819164,8.470160007476807
1617966561.47479,-6.677788,8.485790014266968
1617966561.49041,-7.030849,8.501410007476807
1617966561.50604,-6.791275,8.517040014266968
1617966561.52166,-6.018936,8.532660007476807
1617966561.53729,-4.89542,8.548290014266968
1617966561.55291,-3.581963,8.563910007476807
1617966561.56854,-2.202065,8.579540014266968
1617966561.58417,-0.8079376,8.595170021057129
1617966561.59979,0.5421944,8.610790014266968
1617966561.61542,1.749348,8.626420021057129
1617966561.63104,2.686504,8.642040014266968
1617966561.64667,3.278507,8.657670021057129
1617966561.66229,3.547634,8.673290014266968
1617966561.67792,3.612289,8.688920021057129
1617966561.69355,3.639027,8.70455002784729
1617966561.70917,3.739994,8.720170021057129
1617966561.7248,3.903034,8.73580002784729
1617966561.74042,4.041145,8.751420021057129
1617966561.75605,4.06707,8.76705002784729
1617966561.77167,3.954514,8.782670021057129
1617966561.7873,3.740917,8.79830002784729
1617966561.80293,3.470356,8.813930034637451
1617966561.81855,3.145767,8.82955002784729
1617966561.83418,2.744869,8.845180034637451
1617966561.8498,2.24411,8.86080002784729
1617966561.86543,1.710335,8.876430034637451
1617966561.88105,1.294846,8.89205002784729
1617966561.89668,1.131466,8.907680034637451
1617966561.91231,1.27784,8.923309803009033
1617966561.92793,1.633614,8.938930034637451
1617966561.94356,1.993546,8.954559803009033
1617966561.95918,2.13604,8.970180034637451
1617966561.97481,1.975971,8.985809803009033
1617966561.99043,1.557755,9.001430034637451
1617966562.00606,1.04834,9.017059803009033
1617966562.02169,0.6365509,9.032689809799194
1617966562.03731,0.4422951,9.048309803009033
1617966562.05294,0.4408455,9.063939809799194
1617966562.06856,0.5428314,9.079559803009033
1617966562.08419,0.6306114,9.095189809799194
1617966562.09981,0.6324043,9.110809803009033
1617966562.11544,0.5550423,9.126439809799194
1617966562.13107,0.463398,9.142069816589355
1617966562.14669,0.4318657,9.157689809799194
1617966562.16232,0.5308838,9.173319816589355
1617966562.17794,0.7634048,9.188939809799194
1617966562.19357,1.008999,9.204569816589355
1617966562.20919,1.117714,9.220189809799194
1617966562.22482,0.9196472,9.235819816589355
1617966562.24045,0.3249931,9.251449823379517
1617966562.25607,-0.621273,9.267069816589355
1617966562.2717,-1.794868,9.282699823379517
1617966562.28732,-3.029865,9.298319816589355
1617966562.30295,-4.165588,9.313949823379517
1617966562.31857,-5.062553,9.329569816589355
1617966562.3342,-5.623661,9.345199823379517
1617966562.34983,-5.777668,9.360829830169678
1617966562.36545,-5.431065,9.376449823379517
1617966562.38108,-4.560333,9.392079830169678
1617966562.3967,-3.190285,9.407699823379517
1617966562.41233,-1.462418,9.423329830169678
1617966562.42795,0.3928337,9.438949823379517
1617966562.44358,2.09367,9.454579830169678
1617966562.45921,3.427288,9.470209836959839
1617966562.47483,4.272373,9.485829830169678
1617966562.49046,4.642624,9.501459836959839
1617966562.50608,4.660133,9.517079830169678
1617966562.52171,4.435806,9.532709836959839
1617966562.53734,4.069469,9.54833984375
1617966562.55296,3.599934,9.563959836959839
1617966562.56859,3.017471,9.57958984375
1617966562.58421,2.344055,9.595209836959839
1617966562.59984,1.668106,9.61083984375
1617966562.61546,1.118401,9.626459836959839
1617966562.63109,0.8478203,9.64208984375
1617966562.64672,0.9207802,9.657719850540161
1617966562.66234,1.284565,9.67333984375
1617966562.67797,1.757389,9.688969850540161
1617966562.69359,2.125027,9.70458984375
1617966562.70922,2.218189,9.720219850540161
1617966562.72484,1.990051,9.73583984375
1617966562.74047,1.514725,9.751469850540161
1617966562.7561,0.9450378,9.767099857330322
1617966562.77172,0.4440651,9.782719850540161
1617966562.78735,0.1242599,9.798349857330322
1617966562.80297,0.01644135,9.813969850540161
1617966562.8186,0.09712219,9.829599857330322
1617966562.83422,0.3318176,9.845219850540161
1617966562.84985,0.6164742,9.860849857330322
1617966562.86548,0.8721123,9.876479864120483
1617966562.8811,1.021259,9.892099857330322
1617966562.89673,1.01358,9.907729864120483
1617966562.91235,0.8267479,9.923349857330322
1617966562.92798,0.4550896,9.938979864120483
1617966562.9436,-0.09136581,9.954599857330322
1617966562.95923,-0.8198929,9.970229864120483
1617966562.97486,-1.687962,9.985859870910645
1617966562.99048,-2.618481,10.001479864120483
1617966563.00611,-3.494553,10.017109870910645
1617966563.02173,-4.174973,10.032729864120483
1617966563.03736,-4.572971,10.048359870910645
1617966563.05298,-4.699131,10.063979864120483
1617966563.06861,-4.687481,10.079609870910645
1617966563.08424,-4.701439,10.095239877700806
1617966563.09986,-4.862514,10.110859870910645
1617966563.11549,-5.189663,10.126489877700806
1617966563.13111,-5.588188,10.142109870910645
1617966563.14674,-5.906342,10.157739877700806
1617966563.16236,-5.955994,10.173359870910645
1617966563.17799,-5.642738,10.188989877700806
1617966563.19362,-4.945297,10.204619884490967
1617966563.20924,-3.91029,10.220239877700806
1617966563.22487,-2.68544,10.235869884490967
1617966563.24049,-1.40892,10.251489877700806
1617966563.25612,-0.2048035,10.267119884490967
1617966563.27174,0.8394661,10.282739877700806
1617966563.28737,1.702061,10.298369884490967
1617966563.303,2.377201,10.313999891281128
1617966563.31862,2.862019,10.329619884490967
1617966563.33425,3.165569,10.345249891281128
1617966563.34987,3.337795,10.360869884490967
1617966563.3655,3.405994,10.376499891281128
1617966563.38112,3.431438,10.392119884490967
1617966563.39675,3.428066,10.407749891281128
1617966563.41238,3.369209,10.423379898071289
1617966563.428,3.211372,10.438999891281128
1617966563.44363,2.968632,10.454629898071289
1617966563.45925,2.706959,10.470249891281128
1617966563.47488,2.55085,10.485879898071289
1617966563.4905,2.631783,10.501499891281128
1617966563.50613,2.93124,10.517129898071289
1617966563.52176,3.298534,10.53275990486145
1617966563.53738,3.507988,10.548379898071289
1617966563.55301,3.39418,10.56400990486145
1617966563.56863,2.9436,10.579629898071289
1617966563.58426,2.323898,10.59525990486145
1617966563.59988,1.761208,10.610879898071289
1617966563.61551,1.407246,10.62650990486145
1617966563.63114,1.262878,10.642139911651611
1617966563.64676,1.183804,10.65775990486145
1617966563.66239,0.9875374,10.673389911651611
1617966563.67801,0.5461197,10.68900990486145
1617966563.69364,-0.1716805,10.704639911651611
1617966563.70926,-1.126015,10.72025990486145
1617966563.72489,-2.21978,10.735889911651611
1617966563.74052,-3.360607,10.751519918441772
1617966563.75614,-4.408466,10.767139911651611
1617966563.77177,-5.238491,10.782769918441772
1617966563.78739,-5.73782,10.798389911651611
1617966563.80302,-5.865398,10.814019918441772
1617966563.81864,-5.677742,10.829639911651611
1617966563.83427,-5.334103,10.845269918441772
1617966563.8499,-5.001652,10.860899925231934
1617966563.86552,-4.810493,10.876519918441772
1617966563.88115,-4.777901,10.892149925231934
1617966563.89677,-4.835484,10.907769918441772
1617966563.9124,-4.955032,10.923399925231934
1617966563.92802,-5.137897,10.939019918441772
1617966563.94365,-5.390594,10.954649925231934
1617966563.95928,-5.715042,10.970279932022095
1617966563.9749,-6.012089,10.985899925231934
1617966563.99053,-6.087509,11.001529932022095
1617966564.00615,-5.73431,11.017149925231934
1617966564.02178,-4.866131,11.032779932022095
1617966564.0374,-3.542686,11.048399925231934
1617966564.05303,-1.974354,11.064029932022095
1617966564.06866,-0.4226494,11.079659938812256
1617966564.08428,0.9303169,11.095279932022095
1617966564.09991,2.061478,11.110909938812256
1617966564.11553,3.056259,11.126529932022095
1617966564.13116,4.027729,11.142159938812256
1617966564.14678,4.993046,11.157779932022095
1617966564.16241,5.838921,11.173409938812256
1617966564.17804,6.347164,11.189039945602417
1617966564.19366,6.363228,11.204659938812256
1617966564.20929,5.892155,11.220289945602417
1617966564.22491,5.10606,11.235909938812256
1617966564.24054,4.271194,11.251539945602417
1617966564.25616,3.639538,11.267159938812256
1617966564.27179,3.352386,11.282789945602417
1617966564.28742,3.368572,11.298419952392578
1617966564.30304,3.57106,11.314039945602417
1617966564.31867,3.834419,11.329669952392578
1617966564.33429,4.099358,11.345289945602417
1617966564.34992,4.373283,11.360919952392578
1617966564.36554,4.690701,11.376539945602417
1617966564.38117,5.021397,11.392169952392578
1617966564.3968,5.327942,11.40779995918274
1617966564.41242,5.544407,11.423419952392578
1617966564.42805,5.59597,11.43904995918274
1617966564.44367,5.445084,11.454669952392578
1617966564.4593,5.058323,11.47029995918274
1617966564.47492,4.461494,11.485919952392578
1617966564.49055,3.6744,11.50154995918274
1617966564.50618,2.762032,11.5171799659729
1617966564.5218,1.754795,11.53279995918274
1617966564.53743,0.7350502,11.5484299659729
1617966564.55305,-0.2222672,11.56404995918274
1617966564.56868,-1.019382,11.5796799659729
1617966564.5843,-1.592999,11.59529995918274
1617966564.59993,-1.889946,11.6109299659729
1617966564.61556,-1.909405,11.626559972763062
1617966564.63118,-1.694641,11.6421799659729
1617966564.64681,-1.329933,11.657809972763062
1617966564.66243,-0.9453506,11.6734299659729
1617966564.67806,-0.6548996,11.689059972763062
1617966564.69369,-0.5863991,11.704689979553223
1617966564.70931,-0.7888298,11.720309972763062
1617966564.72494,-1.277088,11.735939979553223
1617966564.74056,-2.006786,11.751559972763062
1617966564.75619,-2.887012,11.767189979553223
1617966564.77181,-3.792233,11.782809972763062
1617966564.78744,-4.58382,11.798439979553223
1617966564.80307,-5.082775,11.814069986343384
1617966564.81869,-5.174061,11.829689979553223
1617966564.83432,-4.790092,11.845319986343384
1617966564.84994,-3.961456,11.860939979553223
1617966564.86557,-2.813957,11.876569986343384
1617966564.88119,-1.528667,11.892189979553223
1617966564.89682,-0.3375969,11.907819986343384
1617966564.91245,0.5756531,11.923449993133545
1617966564.92807,1.107609,11.939069986343384
1617966564.9437,1.290337,11.954699993133545
1617966564.95932,1.244675,11.970319986343384
1617966564.97495,1.122643,11.985949993133545
1617966564.99057,1.021133,12.001569986343384
1617966565.0062,0.9609299,12.017199993133545
1617966565.02183,0.9000664,12.032829999923706
1617966565.03745,0.7868042,12.048449993133545
1617966565.05308,0.6364174,12.064079999923706
1617966565.0687,0.5275879,12.079699993133545
1617966565.08433,0.5718231,12.095329999923706
1617966565.09995,0.8641853,12.110949993133545
1617966565.11558,1.413437,12.126579999923706
1617966565.13121,2.11277,12.142210006713867
1617966565.14683,2.796486,12.157829999923706
1617966565.16246,3.330299,12.173460006713867
1617966565.17808,3.66544,12.189079999923706
1617966565.19371,3.822929,12.204710006713867
1617966565.20933,3.885292,12.220329999923706
1617966565.22496,3.893459,12.235960006713867
1617966565.24059,3.821442,12.251590013504028
1617966565.25621,3.605179,12.267210006713867
1617966565.27184,3.190033,12.282840013504028
1617966565.28746,2.559402,12.298460006713867
1617966565.30309,1.800426,12.314090013504028
1617966565.31871,1.011806,12.329710006713867
1617966565.33434,0.2740936,12.345340013504028
1617966565.34997,-0.3760796,12.36097002029419
1617966565.36559,-0.9445,12.376590013504028
1617966565.38122,-1.434856,12.39222002029419
1617966565.39684,-1.797318,12.407840013504028
1617966565.41247,-1.965927,12.42347002029419
1617966565.42809,-1.901497,12.439090013504028
1617966565.44372,-1.647285,12.45472002029419
1617966565.45935,-1.32943,12.47035002708435
1617966565.47497,-1.14856,12.48597002029419
1617966565.4906,-1.280918,12.50160002708435
1617966565.50622,-1.809166,12.51722002029419
1617966565.52185,-2.662777,12.53285002708435
1617966565.53747,-3.6688,12.54847002029419
1617966565.5531,-4.586227,12.56410002708435
1617966565.56873,-5.22958,12.579730033874512
1617966565.58435,-5.484406,12.59535002708435
1617966565.59998,-5.317974,12.610980033874512
1617966565.6156,-4.743332,12.62660002708435
1617966565.63123,-3.850891,12.642230033874512
1617966565.64685,-2.750381,12.65785002708435
1617966565.66248,-1.565872,12.673480033874512
1617966565.67811,-0.3759308,12.689109802246094
1617966565.69373,0.719368,12.704730033874512
1617966565.70936,1.678623,12.720359802246094
1617966565.72498,2.456062,12.735980033874512
1617966565.74061,2.99292,12.751609802246094
1617966565.75623,3.234219,12.767230033874512
1617966565.77186,3.138924,12.782859802246094
1617966565.78749,2.731152,12.798489809036255
1617966565.80311,2.113102,12.814109802246094
1617966565.81874,1.450264,12.829739809036255
1617966565.83436,0.8959579,12.845359802246094
1617966565.84999,0.5406876,12.860989809036255
1617966565.86561,0.4000626,12.876609802246094
1617966565.88124,0.4277115,12.892239809036255
1617966565.89687,0.5796051,12.907869815826416
1617966565.91249,0.8317642,12.923489809036255
1617966565.92812,1.152065,12.939119815826416
1617966565.94374,1.466679,12.954739809036255
1617966565.95937,1.667912,12.970369815826416
1617966565.97499,1.670349,12.985989809036255
1617966565.99062,1.471474,13.001619815826416
1617966566.00625,1.170128,13.017249822616577
1617966566.02187,0.8803482,13.032869815826416
1617966566.0375,0.6774178,13.048499822616577
1617966566.05312,0.5373688,13.064119815826416
1617966566.06875,0.3607521,13.079749822616577
1617966566.08437,0.0576973,13.095369815826416
1617966566.1,-0.3674965,13.110999822616577
1617966566.11563,-0.8004684,13.126629829406738
1617966566.13125,-1.063519,13.142249822616577
1617966566.14688,-1.046074,13.157879829406738
1617966566.1625,-0.7337723,13.173499822616577
1617966566.17813,-0.2286758,13.189129829406738
1617966566.19375,0.255928,13.204749822616577
1617966566.20938,0.5316315,13.220379829406738
1617966566.22501,0.4652176,13.2360098361969
1617966566.24063,0.0697403,13.251629829406738
1617966566.25626,-0.539257,13.2672598361969
1617966566.27188,-1.167374,13.282879829406738
1617966566.28751,-1.670311,13.2985098361969
1617966566.30313,-2.013008,13.314129829406738
1617966566.31876,-2.306438,13.3297598361969
1617966566.33439,-2.737267,13.34538984298706
1617966566.35001,-3.419872,13.3610098361969
1617966566.36564,-4.274635,13.37663984298706
1617966566.38126,-5.047855,13.3922598361969
1617966566.39689,-5.39444,13.40788984298706
1617966566.41251,-5.072166,13.4235098361969
1617966566.42814,-4.043026,13.43913984298706
1617966566.44377,-2.536667,13.454769849777222
1617966566.45939,-0.8575211,13.47038984298706
1617966566.47502,0.7489891,13.486019849777222
1617966566.49064,2.160828,13.50163984298706
1617966566.50627,3.435299,13.517269849777222
1617966566.52189,4.648586,13.53288984298706
1617966566.53752,5.857746,13.548519849777222
1617966566.55315,7.024055,13.564149856567383
1617966566.56877,8.044918,13.579769849777222
1617966566.5844,8.806839,13.595399856567383
1617966566.60002,9.259651,13.611019849777222
1617966566.61565,9.519657,13.626649856567383
1617966566.63127,9.842838,13.642269849777222
1617966566.6469,10.5802,13.657899856567383
1617966566.66253,12.03488,13.673529863357544
1617966566.67815,14.38094,13.689149856567383
1617966566.69378,17.54738,13.704779863357544
1617966566.7094,21.28418,13.720399856567383
1617966566.72503,25.24838,13.736029863357544
1617966566.74065,29.18336,13.751649856567383
1617966566.75628,32.96135,13.767279863357544
1617966566.77191,36.5171,13.782909870147705
1617966566.78753,39.75663,13.798529863357544
1617966566.80316,42.4958,13.814159870147705
1617966566.81878,44.56403,13.829779863357544
1617966566.83441,45.83905,13.845409870147705
1617966566.85003,46.41273,13.861029863357544
1617966566.86566,46.52972,13.876659870147705
1617966566.88129,46.45551,13.892289876937866
1617966566.89691,46.37088,13.907909870147705
1617966566.91254,46.25658,13.923539876937866
1617966566.92816,46.0016,13.939159870147705
1617966566.94379,45.49778,13.954789876937866
1617966566.95941,44.79188,13.970409870147705
1617966566.97504,44.0392,13.986039876937866
1617966566.99067,43.40393,14.001669883728027
1617966567.00629,42.89504,14.017289876937866
1617966567.02192,42.27289,14.032919883728027
1617966567.03754,41.09605,14.048539876937866
1617966567.05317,38.81284,14.064169883728027
1617966567.06879,34.96549,14.079789876937866
1617966567.08442,29.29102,14.095419883728027
1617966567.10005,21.81126,14.111049890518188
1617966567.11567,12.8335,14.126669883728027
1617966567.1313,2.906586,14.142299890518188
1617966567.14692,-7.321304,14.157919883728027
1617966567.16255,-17.23,14.173549890518188
1617966567.17817,-26.32697,14.189169883728027
1617966567.1938,-34.29449,14.204799890518188
1617966567.20943,-40.94287,14.22042989730835
1617966567.22505,-46.26479,14.236049890518188
1617966567.24068,-50.46281,14.25167989730835
1617966567.2563,-53.96709,14.267299890518188
1617966567.27193,-57.40895,14.28292989730835
1617966567.28755,-61.39427,14.298549890518188
1617966567.30318,-66.32185,14.31417989730835
1617966567.31881,-72.15297,14.32980990409851
1617966567.33443,-78.46729,14.34542989730835
1617966567.35006,-84.67194,14.36105990409851
1617966567.36568,-90.31898,14.37667989730835
1617966567.38131,-95.4189,14.39230990409851
1617966567.39694,-100.4262,14.407939910888672
1617966567.41256,-106.0388,14.42355990409851
1617966567.42819,-112.8413,14.439189910888672
1617966567.44381,-121.0548,14.45480990409851
1617966567.45944,-130.4213,14.470439910888672
1617966567.47506,-140.3809,14.48605990409851
1617966567.49069,-150.176,14.501689910888672
1617966567.50632,-159.1061,14.517319917678833
1617966567.52194,-166.6087,14.532939910888672
1617966567.53757,-172.3392,14.548569917678833
1617966567.55319,-176.3337,14.564189910888672
1617966567.56882,-178.9265,14.579819917678833
1617966567.58444,-180.763,14.595439910888672
1617966567.60007,-182.35,14.611069917678833
1617966567.6157,-183.6748,14.626699924468994
1617966567.63132,-183.8837,14.642319917678833
1617966567.64695,-181.4543,14.657949924468994
1617966567.66257,-174.7365,14.673569917678833
1617966567.6782,-162.808,14.689199924468994
1617966567.69382,-146.1253,14.704819917678833
1617966567.70945,-126.444,14.720449924468994
1617966567.72508,-106.2871,14.736079931259155
1617966567.7407,-88.11988,14.751699924468994
1617966567.75633,-73.80086,14.767329931259155
1617966567.77195,-64.40193,14.782949924468994
1617966567.78758,-60.29411,14.798579931259155
1617966567.8032,-61.15982,14.814199924468994
1617966567.81883,-65.90199,14.829829931259155
1617966567.83446,-72.5419,14.845459938049316
1617966567.85008,-78.5414,14.861079931259155
1617966567.86571,-81.45869,14.876709938049316
1617966567.88133,-79.78859,14.892329931259155
1617966567.89696,-73.42051,14.907959938049316
1617966567.91258,-63.43494,14.923579931259155
1617966567.92821,-51.35793,14.939209938049316
1617966567.94384,-38.32959,14.954839944839478
1617966567.95946,-24.7606,14.970459938049316
1617966567.97509,-10.67033,14.986089944839478
1617966567.99071,3.813339,15.001709938049316
1617966568.00634,18.04982,15.017339944839478
1617966568.02196,31.05806,15.032959938049316
1617966568.03759,42.04982,15.048589944839478
1617966568.05322,50.85345,15.064219951629639
1617966568.06884,57.97595,15.079839944839478
1617966568.08447,64.1911,15.095469951629639
1617966568.10009,70.03085,15.111089944839478
1617966568.11572,75.60083,15.126719951629639
1617966568.13134,80.6557,15.142339944839478
1617966568.14697,84.93024,15.157969951629639
1617966568.1626,88.35037,15.1735999584198
1617966568.17822,91.14072,15.189219951629639
1617966568.19385,93.54199,15.2048499584198
1617966568.20947,95.72601,15.220469951629639
1617966568.2251,97.66464,15.2360999584198
1617966568.24072,99.22913,15.251719951629639
1617966568.25635,100.3125,15.2673499584198
1617966568.27198,100.8936,15.282979965209961
1617966568.2876,101.0309,15.2985999584198
1617966568.30323,100.8316,15.314229965209961
1617966568.31885,100.3832,15.3298499584198
1617966568.33448,99.72125,15.345479965209961
1617966568.3501,98.79681,15.3610999584198
1617966568.36573,97.40991,15.376729965209961
1617966568.38136,95.23077,15.392359972000122
1617966568.39698,91.79401,15.407979965209961
1617966568.41261,86.67596,15.423609972000122
1617966568.42823,79.71277,15.439229965209961
1617966568.44386,71.08142,15.454859972000122
1617966568.45948,61.35022,15.470479965209961
1617966568.47511,51.24078,15.486109972000122
1617966568.49074,41.34729,15.501739978790283
1617966568.50636,31.91077,15.517359972000122
1617966568.52199,22.7749,15.532989978790283
1617966568.53761,13.46619,15.548609972000122
1617966568.55324,3.441467,15.564239978790283
1617966568.56886,-7.651123,15.579859972000122
1617966568.58449,-19.78003,15.595489978790283
1617966568.60012,-32.35504,15.611119985580444
1617966568.61574,-44.22546,15.626739978790283
1617966568.63137,-53.78748,15.642369985580444
1617966568.64699,-59.35303,15.657989978790283
1617966568.66262,-59.67053,15.673619985580444
1617966568.67824,-54.4126,15.689239978790283
1617966568.69387,-44.42902,15.704869985580444
1617966568.7095,-31.62573,15.720499992370605
1617966568.72512,-18.44165,15.736119985580444
1617966568.74075,-7.149353,15.751749992370605
1617966568.75637,0.7593384,15.767369985580444
1617966568.772,4.805847,15.782999992370605
1617966568.78762,5.398438,15.798619985580444
1617966568.80325,3.427185,15.814249992370605
1617966568.81888,-0.1896973,15.829879999160767
1617966568.8345,-4.730591,15.845499992370605
1617966568.85013,-9.709167,15.861129999160767
1617966568.86575,-14.73669,15.876749992370605
1617966568.88138,-19.34198,15.892379999160767
1617966568.897,-22.99805,15.907999992370605
1617966568.91263,-25.26605,15.923629999160767
1617966568.92826,-25.9726,15.939260005950928
1617966568.94388,-25.38593,15.954879999160767
1617966568.95951,-24.10022,15.970510005950928
1617966568.97513,-22.81934,15.986129999160767
1617966568.99076,-22.10962,16.001760005950928
1617966569.00638,-22.23267,16.017379999160767
1617966569.02201,-23.18811,16.033010005950928
1617966569.03764,-24.93835,16.04864001274109
1617966569.05326,-27.65979,16.064260005950928
1617966569.06889,-31.74573,16.07989001274109
1617966569.08451,-37.69568,16.095510005950928
1617966569.10014,-45.74878,16.11114001274109
1617966569.11576,-55.6283,16.126760005950928
1617966569.13139,-66.64014,16.14239001274109
1617966569.14702,-77.8479,16.15802001953125
1617966569.16264,-88.56311,16.17364001274109
1617966569.17827,-98.5614,16.18927001953125
1617966569.19389,-108.1145,16.20489001274109
1617966569.20952,-117.6637,16.22052001953125
1617966569.22514,-127.548,16.23614001274109
1617966569.24077,-137.6907,16.25177001953125
1617966569.2564,-147.6345,16.26740002632141
1617966569.27202,-156.7618,16.28302001953125
1617966569.28765,-164.4192,16.29865002632141
1617966569.30327,-170.0851,16.31427001953125
1617966569.3189,-173.3807,16.32990002632141
1617966569.33452,-174.048,16.34552001953125
1617966569.35015,-171.9066,16.36115002632141
1617966569.36578,-166.9156,16.376780033111572
1617966569.3814,-159.0305,16.39240002632141
1617966569.39703,-148.175,16.408030033111572
1617966569.41265,-134.2079,16.42365002632141
1617966569.42828,-116.9808,16.439280033111572
1617966569.4439,-96.58801,16.45490002632141
1617966569.45953,-73.58667,16.470530033111572
1617966569.47516,-49.11755,16.486159801483154
1617966569.49078,-24.73669,16.501780033111572
1617966569.50641,-2.097412,16.517409801483154
1617966569.52203,17.46204,16.533030033111572
1617966569.53766,33.31592,16.548659801483154
1617966569.55329,45.61548,16.564289808273315
1617966569.56891,55.21094,16.579909801483154
1617966569.58454,63.41492,16.595539808273315
1617966569.60016,71.64246,16.611159801483154
1617966569.61579,81.02148,16.626789808273315
1617966569.63141,91.98816,16.642409801483154
1617966569.64704,104.1053,16.658039808273315
1617966569.66267,116.1558,16.673669815063477
1617966569.67829,126.6514,16.689289808273315
1617966569.69392,134.4946,16.704919815063477
1617966569.70954,139.3997,16.720539808273315
1617966569.72517,141.8003,16.736169815063477
1617966569.74079,142.3712,16.751789808273315
1617966569.75642,141.3192,16.767419815063477
1617966569.77205,138.0554,16.783049821853638
1617966569.78767,131.5547,16.798669815063477
1617966569.8033,121.1741,16.814299821853638
1617966569.81892,107.4346,16.829919815063477
1617966569.83455,92.15479,16.845549821853638
1617966569.85017,77.86011,16.861169815063477
1617966569.8658,66.54272,16.876799821853638
1617966569.88143,58.76147,16.8924298286438
1617966569.89705,53.35352,16.908049821853638
1617966569.91268,48.12842,16.9236798286438
1617966569.9283,41.03809,16.939299821853638
1617966569.94393,31.15259,16.9549298286438
1617966569.95955,18.96753,16.970549821853638
1617966569.97518,6.029297,16.9861798286438
1617966569.99081,-5.791992,17.00180983543396
1617966570.00643,-14.88721,17.0174298286438
1617966570.02206,-20.1665,17.03305983543396
1617966570.03768,-20.95361,17.0486798286438
1617966570.05331,-16.90723,17.06430983543396
1617966570.06893,-8.079834,17.0799298286438
1617966570.08456,4.938965,17.09555983543396
1617966570.10019,20.9646,17.11118984222412
1617966570.11581,38.36182,17.12680983543396
1617966570.13144,55.49316,17.14243984222412
1617966570.14706,71.14917,17.15805983543396
1617966570.16269,84.69116,17.17368984222412
1617966570.17831,95.93823,17.18930983543396
1617966570.19394,104.7991,17.20493984222412
1617966570.20957,111.0933,17.220569849014282
1617966570.22519,114.554,17.23618984222412
1617966570.24082,115.114,17.251819849014282
1617966570.25644,113.2207,17.26743984222412
1617966570.27207,109.7957,17.283069849014282
1617966570.28769,105.969,17.29868984222412
1617966570.30332,102.6045,17.314319849014282
1617966570.31895,100.0413,17.329949855804443
1617966570.33457,97.98779,17.345569849014282
1617966570.3502,95.91992,17.361199855804443
1617966570.36582,93.39575,17.376819849014282
1617966570.38145,90.29614,17.392449855804443
1617966570.39707,86.88452,17.408069849014282
1617966570.4127,83.46606,17.423699855804443
1617966570.42833,80.19531,17.439329862594604
1617966570.44395,76.97778,17.454949855804443
1617966570.45958,73.5752,17.470579862594604
1617966570.4752,69.80103,17.486199855804443
1617966570.49083,65.67163,17.501829862594604
1617966570.50645,61.36108,17.517449855804443
1617966570.52208,56.98096,17.533079862594604
1617966570.53771,52.47778,17.548709869384766
1617966570.55333,47.57397,17.564329862594604
1617966570.56896,41.92285,17.579959869384766
1617966570.58458,35.3772,17.595579862594604
1617966570.60021,28.18506,17.611209869384766
1617966570.61583,20.91309,17.626829862594604
1617966570.63146,14.23633,17.642459869384766
1617966570.64709,8.610352,17.658089876174927
1617966570.66271,4.026855,17.673709869384766
1617966570.67834,0.1223145,17.689339876174927
1617966570.69396,-3.728027,17.704959869384766
1617966570.70959,-8.118408,17.720589876174927
1617966570.72521,-13.42847,17.736209869384766
1617966570.74084,-19.72705,17.751839876174927
1617966570.75647,-26.67358,17.767469882965088
1617966570.77209,-33.49585,17.783089876174927
1617966570.78772,-38.98706,17.798719882965088
1617966570.80334,-41.76782,17.814339876174927
1617966570.81897,-40.57886,17.829969882965088
1617966570.83459,-34.82153,17.845589876174927
1617966570.85022,-24.87256,17.861219882965088
1617966570.86585,-12.04297,17.87684988975525
1617966570.88147,1.77124,17.892469882965088
1617966570.8971,14.74536,17.90809988975525
1617966570.91272,25.64038,17.923719882965088
1617966570.92835,34.02246,17.93934988975525
1617966570.94397,40.10889,17.954969882965088
1617966570.9596,44.40552,17.97059988975525
1617966570.97523,47.30811,17.98622989654541
1617966570.99085,48.96802,18.00184988975525
1617966571.00648,49.38281,18.01747989654541
1617966571.0221,48.55493,18.03309988975525
1617966571.03773,46.70093,18.04872989654541
1617966571.05335,44.271,18.06434988975525
1617966571.06898,41.89038,18.07997989654541
1617966571.08461,40.16211,18.09560990333557
1617966571.10023,39.52319,18.11122989654541
1617966571.11586,40.12061,18.12685990333557
1617966571.13148,41.8418,18.14247989654541
1617966571.14711,44.35059,18.15810990333557
1617966571.16273,47.21509,18.17372989654541
1617966571.17836,49.9939,18.18935990333557
1617966571.19399,52.30396,18.204989910125732
1617966571.20961,53.86841,18.22060990333557
1617966571.22524,54.5144,18.236239910125732
1617966571.24086,54.14648,18.25185990333557
1617966571.25649,52.7439,18.267489910125732
1617966571.27211,50.36108,18.28310990333557
1617966571.28774,47.12354,18.298739910125732
1617966571.30337,43.22852,18.314369916915894
1617966571.31899,38.92188,18.329989910125732
1617966571.33462,34.47241,18.345619916915894
1617966571.35024,30.16211,18.361239910125732
1617966571.36587,26.25171,18.376869916915894
1617966571.38149,22.91968,18.392489910125732
1617966571.39712,20.22998,18.408119916915894
1617966571.41275,18.14551,18.423749923706055
1617966571.42837,16.48364,18.439369916915894
1617966571.444,14.97949,18.454999923706055
1617966571.45962,13.30981,18.470619916915894
1617966571.47525,11.15381,18.486249923706055
1617966571.49087,8.27124,18.501869916915894
1617966571.5065,4.558594,18.517499923706055
1617966571.52213,0.08056641,18.533129930496216
1617966571.53775,-4.927002,18.548749923706055
1617966571.55338,-10.03662,18.564379930496216
1617966571.569,-14.80908,18.579999923706055
1617966571.58463,-18.92578,18.595629930496216
1617966571.60025,-22.37646,18.611249923706055
1617966571.61588,-25.55371,18.626879930496216
1617966571.63151,-29.13867,18.642509937286377
1617966571.64713,-33.81665,18.658129930496216
1617966571.66276,-39.83789,18.673759937286377
1617966571.67838,-46.73608,18.689379930496216
1617966571.69401,-53.23389,18.705009937286377
1617966571.70963,-57.64648,18.720629930496216
1617966571.72526,-58.3291,18.736259937286377
1617966571.74089,-54.33228,18.751889944076538
1617966571.75651,-45.73438,18.767509937286377
1617966571.77214,-33.61304,18.783139944076538
1617966571.78776,-19.71191,18.798759937286377
1617966571.80339,-5.892334,18.814389944076538
1617966571.81902,6.303955,18.8300199508667
1617966571.83464,15.99487,18.845639944076538
1617966571.85027,22.94165,18.8612699508667
1617966571.86589,27.45801,18.876889944076538
1617966571.88152,30.14648,18.8925199508667
1617966571.89714,31.60083,18.908139944076538
1617966571.91277,32.23145,18.9237699508667
1617966571.9284,32.198,18.93939995765686
1617966571.94402,31.48535,18.9550199508667
1617966571.95965,30.03589,18.97064995765686
1617966571.97527,27.91895,18.9862699508667
1617966571.9909,25.41772,19.00189995765686
1617966572.00652,22.94873,19.0175199508667
1617966572.02215,21.00049,19.03314995765686
1617966572.03778,19.9541,19.04877996444702
1617966572.0534,20.0481,19.06439995765686
1617966572.06903,21.35181,19.08002996444702
1617966572.08465,23.71094,19.09564995765686
1617966572.10028,26.75537,19.11127996444702
1617966572.1159,29.86865,19.12689995765686
1617966572.13153,32.27393,19.14252996444702
1617966572.14716,33.30371,19.158159971237183
1617966572.16278,32.67676,19.17377996444702
1617966572.17841,30.65723,19.189409971237183
1617966572.19403,28.01001,19.20502996444702
1617966572.20966,25.66406,19.220659971237183
1617966572.22528,24.36914,19.23627996444702
1617966572.24091,24.45679,19.251909971237183
1617966572.25654,25.86157,19.267539978027344
1617966572.27216,28.31885,19.283159971237183
1617966572.28779,31.56689,19.298789978027344
1617966572.30341,35.40186,19.314409971237183
1617966572.31904,39.50146,19.330039978027344
1617966572.33466,43.36548,19.345659971237183
1617966572.35029,46.33521,19.361289978027344
1617966572.36592,47.78027,19.376919984817505
1617966572.38154,47.43555,19.392539978027344
1617966572.39717,45.48608,19.408169984817505
1617966572.41279,42.43555,19.423789978027344
1617966572.42842,38.89819,19.439419984817505
1617966572.44404,35.32861,19.455039978027344
1617966572.45967,31.93848,19.470669984817505
1617966572.4753,28.8064,19.486299991607666
1617966572.49092,26.00854,19.501919984817505
1617966572.50655,23.59424,19.517549991607666
1617966572.52217,21.53296,19.533169984817505
1617966572.5378,19.58765,19.548799991607666
1617966572.55342,17.21631,19.564419984817505
1617966572.56905,13.67188,19.580049991607666
1617966572.58468,8.23877,19.595679998397827
1617966572.6003,0.5617676,19.611299991607666
1617966572.61593,-9.023926,19.626929998397827
1617966572.63155,-19.37427,19.642549991607666
1617966572.64718,-28.68945,19.658179998397827
1617966572.6628,-34.98608,19.673799991607666
1617966572.67843,-36.70557,19.689429998397827
1617966572.69406,-33.27588,19.70506000518799
1617966572.70968,-25.31055,19.720679998397827
1617966572.72531,-14.43115,19.73631000518799
1617966572.74093,-2.683105,19.751929998397827
1617966572.75656,8.04834,19.76756000518799
1617966572.77218,16.47192,19.783179998397827
1617966572.78781,22.04077,19.79881000518799
1617966572.80344,24.7981,19.81444001197815
1617966572.81906,25.17334,19.83006000518799
1617966572.83469,23.70605,19.84569001197815
1617966572.85031,20.93823,19.86131000518799
1617966572.86594,17.25269,19.87694001197815
1617966572.88156,12.86841,19.89256000518799
1617966572.89719,7.845459,19.90819001197815
1617966572.91282,2.226563,19.92382001876831
1617966572.92844,-3.752441,19.93944001197815
1617966572.94407,-9.593506,19.95507001876831
1617966572.95969,-14.6272,19.97069001197815
1617966572.97532,-18.271,19.98632001876831
1617966572.99094,-20.26294,20.00194001197815
1617966573.00657,-20.75757,20.01757001876831
1617966573.0222,-20.1311,20.03320002555847
1617966573.03782,-18.71826,20.04882001876831
1617966573.05345,-16.62842,20.06445002555847
1617966573.06907,-13.7832,20.08007001876831
1617966573.0847,-10.18604,20.09570002555847
1617966573.10032,-6.154541,20.11132001876831
1617966573.11595,-2.355225,20.12695002555847
1617966573.13158,0.416748,20.142580032348633
1617966573.1472,1.606934,20.15820002555847
1617966573.16283,1.205811,20.173830032348633
1617966573.17845,-0.2438965,20.18945002555847
1617966573.19408,-1.909668,20.205080032348633
1617966573.2097,-3.045166,20.22070002555847
1617966573.22533,-3.340576,20.236330032348633
1617966573.24096,-2.914551,20.251959800720215
1617966573.25658,-2.157715,20.267580032348633
1617966573.27221,-1.423096,20.283209800720215
1617966573.28783,-0.7714844,20.298830032348633
1617966573.30346,-0.01074219,20.314459800720215
1617966573.31908,1.129883,20.330080032348633
1617966573.33471,2.716797,20.345709800720215
1617966573.35034,4.508789,20.361339807510376
1617966573.36596,6.053223,20.376959800720215
1617966573.38159,6.938232,20.392589807510376
1617966573.39721,6.983398,20.408209800720215
1617966573.41284,6.309814,20.423839807510376
1617966573.42846,5.195801,20.439459800720215
1617966573.44409,3.835205,20.455089807510376
1617966573.45972,2.149902,20.470719814300537
1617966573.47534,-0.2060547,20.486339807510376
1617966573.49097,-3.589844,20.501969814300537
1617966573.50659,-8.067627,20.517589807510376
1617966573.52222,-13.11255,20.533219814300537
1617966573.53784,-17.62988,20.548839807510376
1617966573.55347,-20.16846,20.564469814300537
1617966573.5691,-19.35278,20.5800998210907
1617966573.58472,-14.33081,20.595719814300537
1617966573.60035,-5.064453,20.6113498210907
1617966573.61597,7.606201,20.626969814300537
1617966573.6316,22.21997,20.6425998210907
1617966573.64722,37.07324,20.658219814300537
1617966573.66285,50.66357,20.6738498210907
1617966573.67848,61.98535,20.68947982788086
1617966573.6941,70.604,20.7050998210907
1617966573.70973,76.49829,20.72072982788086
1617966573.72535,79.86084,20.7363498210907
1617966573.74098,80.94751,20.75197982788086
1617966573.7566,80.04688,20.7675998210907
1617966573.77223,77.59277,20.78322982788086
1617966573.78786,74.27075,20.79885983467102
1617966573.80348,70.99976,20.81447982788086
1617966573.81911,68.78687,20.83010983467102
1617966573.83473,68.45581,20.84572982788086
1617966573.85036,70.32129,20.86135983467102
1617966573.86598,74.07739,20.87697982788086
1617966573.88161,78.86768,20.89260983467102
1617966573.89724,83.67065,20.90823984146118
1617966573.91286,87.73389,20.92385983467102
1617966573.92849,90.85547,20.93948984146118
1617966573.94411,93.49463,20.95510983467102
1617966573.95974,96.51538,20.97073984146118
1617966573.97536,100.7244,20.98635983467102
1617966573.99099,106.4749,21.00198984146118
1617966574.00662,113.4473,21.017619848251343
1617966574.02224,120.8125,21.03323984146118
1617966574.03787,127.6016,21.048869848251343
1617966574.05349,133.1953,21.06448984146118
1617966574.06912,137.5693,21.080119848251343
1617966574.08474,141.314,21.09573984146118
1617966574.10037,145.3486,21.111369848251343
1617966574.116,150.541,21.126999855041504
1617966574.13162,157.4231,21.142619848251343
1617966574.14725,166.0215,21.158249855041504
1617966574.16287,175.835,21.173869848251343
1617966574.1785,185.8562,21.189499855041504
1617966574.19412,194.5996,21.205119848251343
1617966574.20975,200.2207,21.220749855041504
1617966574.22538,200.7766,21.236379861831665
1617966574.241,194.7134,21.251999855041504
1617966574.25663,181.3584,21.267629861831665
1617966574.27225,161.2515,21.283249855041504
1617966574.28788,136.1025,21.298879861831665
1617966574.3035,108.3572,21.314499855041504
1617966574.31913,80.53345,21.330129861831665
1617966574.33476,54.65747,21.345759868621826
1617966574.35038,31.98462,21.361379861831665
1617966574.36601,13.12061,21.377009868621826
1617966574.38163,-1.708984,21.392629861831665
1617966574.39726,-12.33667,21.408259868621826
1617966574.41289,-18.61963,21.423889875411987
1617966574.42851,-20.77979,21.439509868621826
1617966574.44414,-19.82837,21.455139875411987
1617966574.45976,-17.75781,21.470759868621826
1617966574.47539,-17.34717,21.486389875411987
1617966574.49101,-21.3584,21.502009868621826
1617966574.50664,-31.66431,21.517639875411987
1617966574.52227,-48.68994,21.53326988220215
1617966574.53789,-71.59595,21.548889875411987
1617966574.55352,-99.01929,21.56451988220215
1617966574.56914,-129.9456,21.580139875411987
1617966574.58477,-164.0479,21.59576988220215
1617966574.60039,-201.2979,21.611389875411987
1617966574.61602,-241.1477,21.62701988220215
1617966574.63165,-281.7487,21.64264988899231
1617966574.64727,-319.9479,21.65826988220215
1617966574.6629,-352.0582,21.67389988899231
1617966574.67852,-374.9595,21.68951988220215
1617966574.69415,-387.1139,21.70514988899231
1617966574.70977,-388.8678,21.72076988220215
1617966574.7254,-382.265,21.73639988899231
1617966574.74103,-370.3722,21.75202989578247
1617966574.75665,-356.5353,21.76764988899231
1617966574.77228,-343.6274,21.78327989578247
1617966574.7879,-333.3044,21.79889988899231
1617966574.80353,-325.4318,21.81452989578247
1617966574.81915,-317.8772,21.83014988899231
1617966574.83478,-307.0681,21.84577989578247
1617966574.85041,-289.238,21.861409902572632
1617966574.86603,-262.0623,21.87702989578247
1617966574.88166,-225.8069,21.892659902572632
1617966574.89728,-183.4222,21.90827989578247
1617966574.91291,-139.4404,21.923909902572632
1617966574.92853,-98.31982,21.93952989578247
1617966574.94416,-62.96851,21.955159902572632
1617966574.95979,-34.15186,21.970789909362793
1617966574.97541,-11.03223,21.986409902572632
1617966574.99104,7.905762,22.002039909362793
1617966575.00666,23.85474,22.017659902572632
1617966575.02229,37.36694,22.033289909362793
1617966575.03791,48.57202,22.048909902572632
1617966575.05354,57.65552,22.064539909362793
1617966575.06917,65.18823,22.080169916152954
1617966575.08479,71.97388,22.095789909362793
1617966575.10042,78.67578,22.111419916152954
1617966575.11604,85.37158,22.127039909362793
1617966575.13167,91.5105,22.142669916152954
1617966575.14729,96.12061,22.158289909362793
1617966575.16292,98.21924,22.173919916152954
1617966575.17855,97.19336,22.189549922943115
1617966575.19417,92.86816,22.205169916152954
1617966575.2098,85.51685,22.220799922943115
1617966575.22542,75.66626,22.236419916152954
1617966575.24105,64.02905,22.252049922943115
1617966575.25667,51.44214,22.267669916152954
1617966575.2723,38.93774,22.283299922943115
1617966575.28793,27.63672,22.298929929733276
1617966575.30355,18.5752,22.314549922943115
1617966575.31918,12.46924,22.330179929733276
1617966575.3348,9.428223,22.345799922943115
1617966575.35043,9.010498,22.361429929733276
1617966575.36605,10.47119,22.377049922943115
1617966575.38168,13.07129,22.392679929733276
1617966575.39731,16.28442,22.408309936523438
1617966575.41293,19.87744,22.423929929733276
1617966575.42856,23.66382,22.439559936523438
1617966575.44418,27.45239,22.455179929733276
1617966575.45981,31.13232,22.470809936523438
1617966575.47543,34.76904,22.486429929733276
1617966575.49106,38.78687,22.502059936523438
1617966575.50669,43.87793,22.5176899433136
1617966575.52231,50.71045,22.533309936523438
1617966575.53794,59.60767,22.5489399433136
1617966575.55356,70.40674,22.564559936523438
1617966575.56919,82.44946,22.5801899433136
1617966575.58481,94.698,22.595809936523438
1617966575.60044,105.7942,22.6114399433136
1617966575.61607,114.0996,22.62706995010376
1617966575.63169,117.9512,22.6426899433136
1617966575.64732,116.0676,22.65831995010376
1617966575.66294,108.0957,22.6739399433136
1617966575.67857,95.00439,22.68956995010376
1617966575.69419,79.00562,22.7051899433136
1617966575.70982,62.96582,22.72081995010376
1617966575.72545,49.55737,22.73644995689392
1617966575.74107,40.58447,22.75206995010376
1617966575.7567,36.71338,22.76769995689392
1617966575.77232,37.73438,22.78331995010376
1617966575.78795,42.94531,22.79894995689392
1617966575.80357,51.46765,22.81456995010376
1617966575.8192,62.35181,22.83019995689392
1617966575.83483,74.54321,22.845829963684082
1617966575.85045,86.93079,22.86144995689392
1617966575.86608,98.57251,22.877079963684082
1617966575.8817,108.9998,22.89269995689392
1617966575.89733,118.2887,22.908329963684082
1617966575.91295,126.9961,22.92394995689392
1617966575.92858,135.8639,22.939579963684082
1617966575.94421,145.5911,22.955209970474243
1617966575.95983,156.8018,22.970829963684082
1617966575.97546,170.041,22.986459970474243
1617966575.99108,185.7068,23.002079963684082
1617966576.00671,203.7845,23.017709970474243
1617966576.02233,223.5056,23.033329963684082
1617966576.03796,243.0913,23.048959970474243
1617966576.05359,259.9408,23.064589977264404
1617966576.06921,271.2256,23.080209970474243
1617966576.08484,274.7489,23.095839977264404
1617966576.10046,269.574,23.111459970474243
1617966576.11609,256.0798,23.127089977264404
1617966576.13171,235.5398,23.142709970474243
1617966576.14734,209.3073,23.158339977264404
1617966576.16297,178.3134,23.173969984054565
1617966576.17859,143.0497,23.189589977264404
1617966576.19422,104.0144,23.205219984054565
1617966576.20984,62.26172,23.220839977264404
1617966576.22547,19.66736,23.236469984054565
1617966576.24109,-21.39197,23.252089977264404
1617966576.25672,-58.71887,23.267719984054565
1617966576.27235,-90.94507,23.283349990844727
1617966576.28797,-117.8767,23.298969984054565
1617966576.3036,-140.2705,23.314599990844727
1617966576.31922,-159.2911,23.330219984054565
1617966576.33485,-175.8965,23.345849990844727
1617966576.35047,-190.4681,23.361469984054565
1617966576.3661,-202.8204,23.377099990844727
1617966576.38173,-212.5327,23.392729997634888
1617966576.39735,-219.2777,23.408349990844727
1617966576.41298,-223.0566,23.423979997634888
1617966576.4286,-224.1599,23.439599990844727
1617966576.44423,-223.0558,23.455229997634888
1617966576.45985,-220.1912,23.470849990844727
1617966576.47548,-215.9493,23.486479997634888
1617966576.49111,-210.6348,23.50211000442505
1617966576.50673,-204.561,23.517729997634888
1617966576.52236,-198.0653,23.53336000442505
1617966576.53798,-191.4203,23.548979997634888
1617966576.55361,-184.7664,23.56461000442505
1617966576.56923,-178.1443,23.580229997634888
1617966576.58486,-171.5731,23.59586000442505
1617966576.60049,-165.1208,23.61149001121521
1617966576.61611,-158.989,23.62711000442505
1617966576.63174,-153.3423,23.64274001121521
1617966576.64736,-148.1694,23.65836000442505
1617966576.66299,-143.2078,23.67399001121521
1617966576.67862,-137.9883,23.68962001800537
1617966576.69424,-131.9766,23.70524001121521
1617966576.70987,-124.7247,23.72087001800537
1617966576.72549,-116.002,23.73649001121521
1617966576.74112,-105.7072,23.75212001800537
1617966576.75674,-93.90869,23.76774001121521
1617966576.77237,-80.77942,23.78337001800537
1617966576.788,-66.62573,23.799000024795532
1617966576.80362,-51.91284,23.81462001800537
1617966576.81925,-37.17651,23.830250024795532
1617966576.83487,-23.01031,23.84587001800537
1617966576.8505,-9.9328,23.861500024795532
1617966576.86612,1.667358,23.87712001800537
1617966576.88175,11.50159,23.892750024795532
1617966576.89738,19.38885,23.908380031585693
1617966576.913,25.37885,23.924000024795532
1617966576.92863,29.86444,23.939630031585693
1617966576.94425,33.56708,23.955250024795532
1617966576.95988,37.40448,23.970880031585693
1617966576.9755,42.12097,23.986500024795532
1617966576.99113,48.11328,24.002130031585693
1617966577.00676,55.37506,24.017759799957275
1617966577.02238,63.60663,24.033380031585693
1617966577.03801,72.43811,24.049009799957275
1617966577.05363,81.55774,24.064630031585693
1617966577.06926,90.73505,24.080259799957275
1617966577.08488,99.77869,24.095880031585693
1617966577.10051,108.5621,24.111509799957275
1617966577.11614,117.0229,24.127139806747437
1617966577.13176,125.1519,24.142759799957275
1617966577.14739,132.9178,24.158389806747437
1617966577.16301,140.0928,24.174009799957275
1617966577.17864,146.1613,24.189639806747437
1617966577.19426,150.3439,24.205259799957275
1617966577.20989,151.8768,24.220889806747437
1617966577.22552,150.3338,24.236519813537598
1617966577.24114,145.8594,24.252139806747437
1617966577.25677,139.1205,24.267769813537598
1617966577.27239,131.0096,24.283389806747437
1617966577.28802,122.3031,24.299019813537598
1617966577.30364,113.4017,24.314639806747437
1617966577.31927,104.3765,24.330269813537598
1617966577.3349,95.05908,24.34589982032776
1617966577.35052,85.21515,24.361519813537598
1617966577.36615,74.60345,24.37714982032776
1617966577.38177,62.87732,24.392769813537598
1617966577.3974,49.53467,24.40839982032776
1617966577.41302,33.96002,24.424019813537598
1617966577.42865,15.62952,24.43964982032776
1617966577.44428,-5.606445,24.45527982711792
1617966577.4599,-29.1626,24.47089982032776
1617966577.47553,-53.66663,24.48652982711792
1617966577.49115,-77.13989,24.50214982032776
1617966577.50678,-97.48108,24.51777982711792
1617966577.5224,-113.0367,24.53339982032776
1617966577.53803,-122.9978,24.54902982711792
1617966577.55366,-127.3922,24.56465983390808
1617966577.56928,-126.8676,24.58027982711792
1617966577.58491,-122.4032,24.59590983390808
1617966577.60053,-115.1653,24.61152982711792
1617966577.61616,-106.6398,24.62715983390808
1617966577.63178,-98.70624,24.64277982711792
1617966577.64741,-93.47562,24.65840983390808
1617966577.66304,-92.73224,24.674039840698242
1617966577.67866,-97.14938,24.68965983390808
1617966577.69429,-105.7651,24.705289840698242
1617966577.70991,-116.1192,24.72090983390808
1617966577.72554,-125.0214,24.736539840698242
1617966577.74116,-129.7363,24.75215983390808
1617966577.75679,-128.9445,24.767789840698242
1617966577.77242,-123.0227,24.783419847488403
1617966577.78804,-113.6058,24.799039840698242
1617966577.80367,-102.7469,24.814669847488403
1617966577.81929,-92.09006,24.830289840698242
1617966577.83492,-82.44434,24.845919847488403
1617966577.85054,-73.94977,24.861539840698242
1617966577.86617,-66.32938,24.877169847488403
1617966577.8818,-59.33267,24.892799854278564
1617966577.89742,-52.9505,24.908419847488403
1617966577.91305,-47.38077,24.924049854278564
1617966577.92867,-42.84683,24.939669847488403
1617966577.9443,-39.45491,24.955299854278564
1617966577.95992,-37.12317,24.970919847488403
1617966577.97555,-35.5739,24.986549854278564
1617966577.99118,-34.50575,25.002179861068726
1617966578.0068,-33.60706,25.017799854278564
1617966578.02243,-32.54176,25.033429861068726
1617966578.03805,-30.86288,25.049049854278564
1617966578.05368,-28.12569,25.064679861068726
1617966578.0693,-24.20822,25.080299854278564
1617966578.08493,-19.78435,25.095929861068726
1617966578.10056,-16.46007,25.111559867858887
1617966578.11618,-16.2417,25.127179861068726
1617966578.13181,-20.59308,25.142809867858887
1617966578.14743,-29.41978,25.158429861068726
1617966578.16306,-40.72885,25.174059867858887
1617966578.17868,-51.23308,25.189679861068726
1617966578.19431,-57.58452,25.205309867858887
1617966578.20994,-57.65837,25.220939874649048
1617966578.22556,-51.18228,25.236559867858887
1617966578.24119,-39.51401,25.252189874649048
1617966578.25681,-24.93271,25.267809867858887
1617966578.27244,-9.892593,25.283439874649048
1617966578.28806,3.458679,25.299059867858887
1617966578.30369,13.46075,25.314689874649048
1617966578.31932,19.10298,25.33031988143921
1617966578.33494,20.27679,25.345939874649048
1617966578.35057,17.85899,25.36156988143921
1617966578.36619,13.43585,25.377189874649048
1617966578.38182,8.612457,25.39281988143921
1617966578.39744,4.257217,25.408439874649048
1617966578.41307,0.1129303,25.42406988143921
1617966578.4287,-4.721741,25.43969988822937
1617966578.44432,-10.92395,25.45531988143921
1617966578.45995,-18.25403,25.47094988822937
1617966578.47557,-25.48033,25.48656988143921
1617966578.4912,-31.03534,25.50219988822937
1617966578.50682,-33.90467,25.51781988143921
1617966578.52245,-34.23404,25.53344988822937
1617966578.53808,-33.20252,25.54907989501953
1617966578.5537,-32.45685,25.56469988822937
1617966578.56933,-33.32372,25.58032989501953
1617966578.58495,-36.37246,25.59594988822937
1617966578.60058,-41.46361,25.61157989501953
1617966578.6162,-48.04186,25.62719988822937
1617966578.63183,-55.45834,25.64282989501953
1617966578.64746,-63.09446,25.658459901809692
1617966578.66308,-70.28695,25.67407989501953
1617966578.67871,-76.1259,25.689709901809692
1617966578.69433,-79.47134,25.70532989501953
1617966578.70996,-79.11642,25.720959901809692
1617966578.72558,-74.20267,25.73657989501953
1617966578.74121,-64.57213,25.752209901809692
1617966578.75684,-50.98913,25.767839908599854
1617966578.77246,-35.03719,25.783459901809692
1617966578.78809,-18.67019,25.799089908599854
1617966578.80371,-3.688667,25.814709901809692
1617966578.81934,8.798035,25.830339908599854
1617966578.83496,18.60766,25.845959901809692
1617966578.85059,26.47173,25.861589908599854
1617966578.86622,33.60712,25.877219915390015
1617966578.88184,41.17343,25.892839908599854
1617966578.89747,49.80492,25.908469915390015
1617966578.91309,59.31987,25.924089908599854
1617966578.92872,68.83959,25.939719915390015
1617966578.94435,77.09754,25.955349922180176
1617966578.95997,83.08601,25.970969915390015
1617966578.9756,86.60146,25.986599922180176
1617966578.99122,88.55293,26.002219915390015
1617966579.00685,90.86823,26.017849922180176
1617966579.02247,95.88897,26.033469915390015
1617966579.0381,105.5831,26.049099922180176
1617966579.05373,120.6269,26.064729928970337
1617966579.06935,139.8937,26.080349922180176
1617966579.08498,160.3765,26.095979928970337
1617966579.1006,177.7468,26.111599922180176
1617966579.11623,187.3786,26.127229928970337
1617966579.13185,185.5749,26.142849922180176
1617966579.14748,170.6506,26.158479928970337
1617966579.16311,143.4257,26.174109935760498
1617966579.17873,107.0976,26.189729928970337
1617966579.19436,66.29971,26.205359935760498
1617966579.20998,25.92461,26.220979928970337
1617966579.22561,-10.00341,26.236609935760498
1617966579.24123,-38.91746,26.252229928970337
1617966579.25686,-59.75299,26.267859935760498
1617966579.27249,-72.57848,26.28348994255066
1617966579.28811,-78.12485,26.299109935760498
1617966579.30374,-77.56212,26.31473994255066
1617966579.31936,-72.41355,26.330359935760498
1617966579.33499,-64.567,26.34598994255066
1617966579.35061,-56.00896,26.361609935760498
1617966579.36624,-48.47184,26.37723994255066
1617966579.38187,-42.95219,26.39286994934082
1617966579.39749,-39.53321,26.40848994255066
1617966579.41312,-37.56407,26.42411994934082
1617966579.42874,-36.00786,26.43973994255066
1617966579.44437,-33.95065,26.45536994934082
1617966579.45999,-30.8951,26.47098994255066
1617966579.47562,-26.82577,26.48661994934082
1617966579.49125,-22.07355,26.50224995613098
1617966579.50687,-17.1544,26.51786994934082
1617966579.5225,-12.57711,26.53349995613098
1617966579.53812,-8.74984,26.54911994934082
1617966579.55375,-5.88567,26.56474995613098
1617966579.56937,-3.924812,26.58036994934082
1617966579.585,-2.515903,26.59599995613098
1617966579.60063,-1.068455,26.611629962921143
1617966579.61625,1.144257,26.62724995613098
1617966579.63188,4.779198,26.642879962921143
1617966579.6475,10.14657,26.65849995613098
1617966579.66313,17.05935,26.674129962921143
1617966579.67875,24.79691,26.68974995613098
1617966579.69438,32.22739,26.705379962921143
1617966579.71001,38.08162,26.721009969711304
1617966579.72563,41.29672,26.736629962921143
1617966579.74126,41.30625,26.752259969711304
1617966579.75688,38.12334,26.767879962921143
1617966579.77251,32.35518,26.783509969711304
1617966579.78813,24.98979,26.799129962921143
1617966579.80376,17.13956,26.814759969711304
1617966579.81939,9.746948,26.830389976501465
1617966579.83501,3.42009,26.846009969711304
1617966579.85064,-1.584641,26.861639976501465
1617966579.86626,-5.309479,26.877259969711304
1617966579.88189,-7.866028,26.892889976501465
1617966579.89751,-9.323135,26.908509969711304
1617966579.91314,-9.69928,26.924139976501465
1617966579.92877,-9.098038,26.939769983291626
1617966579.94439,-7.878677,26.955389976501465
1617966579.96002,-6.763535,26.971019983291626
1617966579.97564,-6.604843,26.986639976501465
1617966579.99127,-7.94989,27.002269983291626
1617966580.00689,-10.69179,27.017889976501465
1617966580.02252,-13.8936,27.033519983291626
1617966580.03815,-16.16621,27.049149990081787
1617966580.05377,-16.26453,27.064769983291626
1617966580.0694,-13.70354,27.080399990081787
1617966580.08502,-9.057373,27.096019983291626
1617966580.10065,-3.781555,27.111649990081787
1617966580.11627,0.3728027,27.127269983291626
1617966580.1319,2.035187,27.142899990081787
1617966580.14753,0.6610413,27.15852999687195
1617966580.16315,-3.397888,27.174149990081787
1617966580.17878,-9.140808,27.18977999687195
1617966580.1944,-15.35175,27.205399990081787
1617966580.21003,-21.01477,27.22102999687195
1617966580.22565,-25.53159,27.236649990081787
1617966580.24128,-28.79016,27.25227999687195
1617966580.25691,-31.05508,27.26791000366211
1617966580.27253,-32.77316,27.28352999687195
1617966580.28816,-34.38422,27.29916000366211
1617966580.30378,-36.13266,27.31477999687195
1617966580.31941,-38.08911,27.33041000366211
1617966580.33503,-40.2424,27.34602999687195
1617966580.35066,-42.60199,27.36166000366211
1617966580.36629,-45.26437,27.37729001045227
1617966580.38191,-48.28976,27.39291000366211
1617966580.39754,-51.54184,27.40854001045227
1617966580.41316,-54.5867,27.42416000366211
1617966580.42879,-56.73901,27.43979001045227
1617966580.44441,-57.25989,27.45541000366211
1617966580.46004,-55.64911,27.47104001045227
1617966580.47567,-51.86188,27.48667001724243
1617966580.49129,-46.28754,27.50229001045227
1617966580.50692,-39.64841,27.51792001724243
1617966580.52254,-32.82086,27.53354001045227
1617966580.53817,-26.66312,27.54917001724243
1617966580.55379,-21.95096,27.56479001045227
1617966580.56942,-19.23849,27.58042001724243
1617966580.58505,-18.72867,27.596050024032593
1617966580.60067,-20.22144,27.61167001724243
1617966580.6163,-23.09366,27.627300024032593
1617966580.63192,-26.49008,27.64292001724243
1617966580.64755,-29.52808,27.658550024032593
1617966580.66317,-31.57535,27.67417001724243
1617966580.6788,-32.32352,27.689800024032593
1617966580.69443,-31.77081,27.705430030822754
1617966580.71005,-30.12656,27.721050024032593
1617966580.72568,-27.63351,27.736680030822754
1617966580.7413,-24.51816,27.752300024032593
1617966580.75693,-20.94324,27.767930030822754
1617966580.77255,-17.00064,27.783550024032593
1617966580.78818,-12.74725,27.799180030822754
1617966580.80381,-8.211548,27.814809799194336
1617966580.81943,-3.451874,27.830430030822754
1617966580.83506,1.440399,27.846059799194336
1617966580.85068,6.32132,27.861680030822754
1617966580.86631,10.97467,27.877309799194336
1617966580.88193,15.13693,27.892930030822754
1617966580.89756,18.56839,27.908559799194336
1617966580.91319,21.05396,27.924189805984497
1617966580.92881,22.46692,27.939809799194336
1617966580.94444,22.8237,27.955439805984497
1617966580.96006,22.33255,27.971059799194336
1617966580.97569,21.32764,27.986689805984497
1617966580.99131,20.17987,28.002309799194336
1617966581.00694,19.1785,28.017939805984497
1617966581.02257,18.36905,28.033569812774658
1617966581.03819,17.58459,28.049189805984497
1617966581.05382,16.51807,28.064819812774658
1617966581.06944,14.8367,28.080439805984497
1617966581.08507,12.33636,28.096069812774658
1617966581.10069,8.988647,28.111689805984497
1617966581.11632,4.984924,28.127319812774658
1617966581.13195,0.7053223,28.14294981956482
1617966581.14757,-3.387878,28.158569812774658
1617966581.1632,-6.868713,28.17419981956482
1617966581.17882,-9.472321,28.189819812774658
1617966581.19445,-11.13425,28.20544981956482
1617966581.21007,-11.98648,28.221069812774658
1617966581.2257,-12.19989,28.23669981956482
1617966581.24133,-11.89178,28.25232982635498
1617966581.25695,-11.0625,28.26794981956482
1617966581.27258,-9.694977,28.28357982635498
1617966581.2882,-7.803345,28.29919981956482
1617966581.30383,-5.520203,28.31482982635498
1617966581.31945,-3.061707,28.33044981956482
1617966581.33508,-0.5990601,28.34607982635498
1617966581.35071,1.806152,28.36170983314514
1617966581.36633,4.172607,28.37732982635498
1617966581.38196,6.489807,28.39295983314514
1617966581.39758,8.587555,28.40857982635498
1617966581.41321,10.18286,28.42420983314514
1617966581.42883,11.00089,28.43982982635498
1617966581.44446,10.94678,28.45545983314514
1617966581.46009,10.14258,28.471089839935303
1617966581.47571,8.892212,28.48670983314514
1617966581.49134,7.492188,28.502339839935303
1617966581.50696,6.127075,28.51795983314514
1617966581.52259,4.781067,28.533589839935303
1617966581.53822,3.346405,28.549219846725464
1617966581.55384,1.755798,28.564839839935303
1617966581.56947,0.01113892,28.580469846725464
1617966581.58509,-1.818024,28.596089839935303
1617966581.60072,-3.645966,28.611719846725464
1617966581.61634,-5.383911,28.627339839935303
1617966581.63197,-6.921143,28.642969846725464
1617966581.6476,-8.118988,28.658599853515625
1617966581.66322,-8.811584,28.674219846725464
1617966581.67885,-8.888031,28.689849853515625
1617966581.69447,-8.348633,28.705469846725464
1617966581.7101,-7.340576,28.721099853515625
1617966581.72572,-6.119385,28.736719846725464
1617966581.74135,-4.976349,28.752349853515625
1617966581.75698,-4.107117,28.767979860305786
1617966581.7726,-3.586517,28.783599853515625
1617966581.78823,-3.378387,28.799229860305786
1617966581.80385,-3.34494,28.814849853515625
1617966581.81948,-3.36441,28.830479860305786
1617966581.8351,-3.376282,28.846099853515625
1617966581.85073,-3.384613,28.861729860305786
1617966581.86636,-3.404053,28.877359867095947
1617966581.88198,-3.42157,28.892979860305786
1617966581.89761,-3.373871,28.908609867095947
1617966581.91323,-3.17392,28.924229860305786
1617966581.92886,-2.778015,28.939859867095947
1617966581.94448,-2.211487,28.955479860305786
1617966581.96011,-1.570129,28.971109867095947
1617966581.97574,-0.9258118,28.98673987388611
1617966581.99136,-0.3114014,29.002359867095947
1617966582.00699,0.3806152,29.01798987388611
1617966582.02261,1.264771,29.033609867095947
1617966582.03824,2.366455,29.04923987388611
1617966582.05386,3.544678,29.064859867095947
1617966582.06949,4.55423,29.08048987388611
1617966582.08512,5.179504,29.09611988067627
1617966582.10074,5.363739,29.11173987388611
1617966582.11637,5.268127,29.12736988067627
1617966582.13199,5.151154,29.14298987388611
1617966582.14762,5.178711,29.15861988067627
1617966582.16324,5.323456,29.17423987388611
1617966582.17887,5.348694,29.18986988067627
1617966582.1945,5.011932,29.20549988746643
1617966582.21012,4.196228,29.22111988067627
1617966582.22575,3.029816,29.23674988746643
1617966582.24137,1.775574,29.25236988067627
1617966582.257,0.7213745,29.26799988746643
1617966582.27262,-0.02566528,29.28361988067627
1617966582.28825,-0.5155334,29.29924988746643
1617966582.30388,-0.9329224,29.314879894256592
1617966582.3195,-1.431885,29.33049988746643
1617966582.33513,-2.077881,29.346129894256592
1617966582.35075,-2.767883,29.36174988746643
1617966582.36638,-3.323273,29.377379894256592
1617966582.382,-3.608673,29.39299988746643
1617966582.39763,-3.560791,29.408629894256592
1617966582.41326,-3.242798,29.424259901046753
1617966582.42888,-2.773346,29.439879894256592
1617966582.44451,-2.262604,29.455509901046753
1617966582.46013,-1.734344,29.471129894256592
1617966582.47576,-1.140411,29.486759901046753
1617966582.49138,-0.4237061,29.502379894256592
1617966582.50701,0.3879395,29.518009901046753
1617966582.52264,1.109619,29.533639907836914
1617966582.53826,1.502197,29.549259901046753
1617966582.55389,1.303772,29.564889907836914
1617966582.56951,0.4197388,29.580509901046753
1617966582.58514,-1.022034,29.596139907836914
1617966582.60076,-2.706543,29.611759901046753
1617966582.61639,-4.259827,29.627389907836914
1617966582.63202,-5.383362,29.643019914627075
1617966582.64764,-5.957458,29.658639907836914
1617966582.66327,-6.052673,29.674269914627075
1617966582.67889,-5.863037,29.689889907836914
1617966582.69452,-5.624695,29.705519914627075
1617966582.71014,-5.502441,29.721139907836914
1617966582.72577,-5.54071,29.736769914627075
1617966582.7414,-5.719971,29.752399921417236
1617966582.75702,-5.978516,29.768019914627075
1617966582.77265,-6.28479,29.783649921417236
1617966582.78827,-6.676208,29.799269914627075
1617966582.8039,-7.198792,29.814899921417236
1617966582.81952,-7.804443,29.830519914627075
1617966582.83515,-8.393982,29.846149921417236
1617966582.85078,-8.792847,29.861779928207397
1617966582.8664,-8.891357,29.877399921417236
1617966582.88203,-8.727173,29.893029928207397
1617966582.89765,-8.43811,29.908649921417236
1617966582.91328,-8.167358,29.924279928207397
1617966582.9289,-7.961792,29.939899921417236
1617966582.94453,-7.70929,29.955529928207397
1617966582.96016,-7.210876,29.97115993499756
1617966582.97578,-6.347107,29.986779928207397
1617966582.99141,-5.136169,30.00240993499756
1617966583.00703,-3.776611,30.018029928207397
1617966583.02266,-2.52771,30.03365993499756
1617966583.03828,-1.567566,30.049279928207397
1617966583.05391,-0.9309692,30.06490993499756
1617966583.06954,-0.5757446,30.08053994178772
1617966583.08516,-0.4262085,30.09615993499756
1617966583.10079,-0.3813477,30.11178994178772
1617966583.11641,-0.364502,30.12740993499756
1617966583.13204,-0.2955322,30.14303994178772
1617966583.14766,-0.1069946,30.15865993499756
1617966583.16329,0.2041626,30.17428994178772
1617966583.17892,0.597168,30.18991994857788
1617966583.19454,0.9677124,30.20553994178772
1617966583.21017,1.22113,30.22116994857788
1617966583.22579,1.29657,30.23678994178772
1617966583.24142,1.206238,30.25241994857788
1617966583.25704,0.9830933,30.26803994178772
1617966583.27267,0.7091675,30.28366994857788
1617966583.2883,0.4857178,30.299299955368042
1617966583.30392,0.404541,30.31491994857788
1617966583.31955,0.5783081,30.330549955368042
1617966583.33517,1.01709,30.34616994857788
1617966583.3508,1.665894,30.361799955368042
1617966583.36642,2.335815,30.37741994857788
1617966583.38205,2.832886,30.393049955368042
1617966583.39768,2.959534,30.408679962158203
1617966583.4133,2.628052,30.424299955368042
1617966583.42893,1.860962,30.439929962158203
1617966583.44455,0.7702026,30.455549955368042
1617966583.46018,-0.465332,30.471179962158203
1617966583.4758,-1.625061,30.486799955368042
1617966583.49143,-2.421082,30.502429962158203
1617966583.50706,-2.653992,30.518059968948364
1617966583.52268,-2.286194,30.533679962158203
1617966583.53831,-1.492004,30.549309968948364
1617966583.55393,-0.6364746,30.564929962158203
1617966583.56956,-0.06829834,30.580559968948364
1617966583.58518,0.07897949,30.596179962158203
1617966583.60081,-0.01055908,30.611809968948364
1617966583.61644,0.04815674,30.627439975738525
1617966583.63206,0.6401367,30.643059968948364
1617966583.64769,1.892822,30.658689975738525
1617966583.66331,3.585449,30.674309968948364
1617966583.67894,5.358765,30.689939975738525
1617966583.69456,6.928955,30.705559968948364
1617966583.71019,8.356201,30.721189975738525
1617966583.72582,10.05499,30.736819982528687
1617966583.74144,12.62518,30.752439975738525
1617966583.75707,16.57465,30.768069982528687
1617966583.77269,22.15314,30.783689975738525
1617966583.78832,29.20129,30.799319982528687
1617966583.80395,37.20929,30.814949989318848
1617966583.81957,45.50537,30.830569982528687
1617966583.8352,53.4115,30.846199989318848
1617966583.85082,60.41779,30.861819982528687
1617966583.86645,66.2746,30.877449989318848
1617966583.88207,70.98743,30.893069982528687
1617966583.8977,74.66187,30.908699989318848
1617966583.91333,77.40076,30.92432999610901
1617966583.92895,79.14325,30.939949989318848
1617966583.94458,79.66595,30.95557999610901
1617966583.9602,78.66229,30.971199989318848
1617966583.97583,75.85162,30.98682999610901
1617966583.99145,71.09552,31.002449989318848
1617966584.00708,64.474,31.01807999610901
1617966584.02271,56.22736,31.03371000289917
1617966584.03833,46.78278,31.04932999610901
1617966584.05396,36.69379,31.06496000289917
1617966584.06958,26.52777,31.08057999610901
1617966584.08521,16.7489,31.09621000289917
1617966584.10083,7.557068,31.11182999610901
1617966584.11646,-1.197754,31.12746000289917
1617966584.13209,-9.958984,31.14309000968933
1617966584.14771,-19.20831,31.15871000289917
1617966584.16334,-29.26312,31.17434000968933
1617966584.17896,-39.99658,31.18996000289917
1617966584.19459,-50.8454,31.20559000968933
1617966584.21021,-60.98596,31.22121000289917
1617966584.22584,-69.52911,31.23684000968933
1617966584.24147,-75.71576,31.252470016479492
1617966584.25709,-78.974,31.26809000968933
1617966584.27272,-78.98688,31.283720016479492
1617966584.28834,-75.71777,31.29934000968933
1617966584.30397,-69.6369,31.314970016479492
1617966584.31959,-61.70166,31.33059000968933
1617966584.33522,-53.30713,31.346220016479492
1617966584.35085,-45.97058,31.361850023269653
1617966584.36647,-40.81909,31.377470016479492
1617966584.3821,-38.2605,31.393100023269653
1617966584.39772,-37.89008,31.408720016479492
1617966584.41335,-38.76178,31.424350023269653
1617966584.42897,-39.84326,31.439970016479492
1617966584.4446,-40.49915,31.455600023269653
1617966584.46023,-40.64459,31.471230030059814
1617966584.47585,-40.55273,31.486850023269653
1617966584.49148,-40.55615,31.502480030059814
1617966584.5071,-40.68317,31.518100023269653
1617966584.52273,-40.63269,31.533730030059814
1617966584.53835,-39.94489,31.549350023269653
1617966584.55398,-38.28448,31.564980030059814
1617966584.56961,-35.59894,31.580610036849976
1617966584.58523,-32.14154,31.596230030059814
1617966584.60086,-28.29138,31.611860036849976
1617966584.61648,-24.37079,31.627480030059814
1617966584.63211,-20.53229,31.643110036849976
1617966584.64773,-16.79437,31.658730030059814
1617966584.66336,-13.15497,31.674360036849976
1617966584.67899,-9.697693,31.689989805221558
1617966584.69461,-6.633301,31.705610036849976
1617966584.71024,-4.168701,31.721239805221558
1617966584.72586,-2.417175,31.736860036849976
1617966584.74149,-1.31958,31.752489805221558
1617966584.75711,-0.7067261,31.768110036849976
1617966584.77274,-0.3847046,31.783739805221558
1617966584.78837,-0.2106323,31.79936981201172
1617966584.80399,-0.1763916,31.814989805221558
1617966584.81962,-0.3119507,31.83061981201172
1617966584.83524,-0.6177368,31.846239805221558
1617966584.85087,-0.9976807,31.86186981201172
1617966584.86649,-1.246765,31.877489805221558
1617966584.88212,-1.1521,31.89311981201172
1617966584.89775,-0.5817261,31.90874981880188
1617966584.91337,0.442749,31.92436981201172
1617966584.929,1.752808,31.93999981880188
1617966584.94462,3.151306,31.95561981201172
1617966584.96025,4.492188,31.97124981880188
1617966584.97587,5.687744,31.98686981201172
1617966584.9915,6.678833,32.00249981880188
1617966585.00713,7.384949,32.01812982559204
1617966585.02275,7.754578,32.03374981880188
1617966585.03838,7.77417,32.04937982559204
1617966585.054,7.614014,32.06499981880188
1617966585.06963,7.537964,32.08062982559204
1617966585.08525,7.835754,32.09624981880188
1617966585.10088,8.67041,32.11187982559204
1617966585.11651,9.937439,32.1275098323822
1617966585.13213,11.3421,32.14312982559204
1617966585.14776,12.48608,32.1587598323822
1617966585.16338,13.10693,32.17437982559204
1617966585.17901,13.23138,32.1900098323822
1617966585.19463,13.09436,32.20562982559204
1617966585.21026,12.97015,32.2212598323822
1617966585.22589,12.95941,32.23688983917236
1617966585.24151,12.91803,32.2525098323822
1617966585.25714,12.4856,32.26813983917236
1617966585.27276,11.39734,32.2837598323822
1617966585.28839,9.625732,32.29938983917236
1617966585.30401,7.460266,32.3150098323822
1617966585.31964,5.335632,32.33063983917236
1617966585.33527,3.567444,32.346269845962524
1617966585.35089,2.157288,32.36188983917236
1617966585.36652,0.7886353,32.377519845962524
1617966585.38214,-0.9534912,32.39313983917236
1617966585.39777,-3.325134,32.408769845962524
1617966585.41339,-6.226807,32.42438983917236
1617966585.42902,-9.234619,32.440019845962524
1617966585.44465,-11.85052,32.455649852752686
1617966585.46027,-13.68018,32.471269845962524
1617966585.4759,-14.6369,32.486899852752686
1617966585.49152,-14.89307,32.502519845962524
1617966585.50715,-14.73108,32.518149852752686
1617966585.52277,-14.38708,32.533769845962524
1617966585.5384,-14.04517,32.549399852752686
1617966585.55403,-13.789,32.56502985954285
1617966585.56965,-13.69098,32.580649852752686
1617966585.58528,-13.81171,32.59627985954285
1617966585.6009,-14.12415,32.611899852752686
1617966585.61653,-14.5376,32.62752985954285
1617966585.63215,-14.87805,32.643149852752686
1617966585.64778,-15.00128,32.65877985954285
1617966585.66341,-14.87585,32.67440986633301
1617966585.67903,-14.5542,32.69002985954285
1617966585.69466,-14.11926,32.70565986633301
1617966585.71028,-13.53943,32.72127985954285
1617966585.72591,-12.70691,32.73690986633301
1617966585.74153,-11.46838,32.75252985954285
1617966585.75716,-9.817261,32.76815986633301
1617966585.77279,-7.950684,32.78378987312317
1617966585.78841,-6.23877,32.79940986633301
1617966585.80404,-5.050781,32.81503987312317
1617966585.81966,-4.532532,32.83065986633301
1617966585.83529,-4.50885,32.84628987312317
1617966585.85091,-4.553162,32.86190986633301
1617966585.86654,-4.20929,32.87753987312317
1617966585.88217,-3.221375,32.89316987991333
1617966585.89779,-1.615601,32.90878987312317
1617966585.91342,0.3209839,32.92441987991333
1617966585.92904,2.253052,32.94003987312317
1617966585.94467,3.885254,32.95566987991333
1617966585.96029,5.110413,32.97128987312317
1617966585.97592,5.917542,32.98691987991333
1617966585.99155,6.374023,33.00254988670349
1617966586.00717,6.513977,33.01816987991333
1617966586.0228,6.34613,33.03379988670349
1617966586.03842,5.903259,33.04941987991333
1617966586.05405,5.278503,33.06504988670349
1617966586.06967,4.678101,33.08066987991333
1617966586.0853,4.276672,33.09629988670349
1617966586.10093,4.231445,33.11192989349365
1617966586.11655,4.540771,33.12754988670349
1617966586.13218,5.069153,33.14317989349365
1617966586.1478,5.542908,33.15879988670349
1617966586.16343,5.661804,33.17442989349365
1617966586.17905,5.144043,33.19004988670349
1617966586.19468,3.811951,33.20567989349365
1617966586.21031,1.680542,33.22130990028381
1617966586.22593,-1.018982,33.23692989349365
1617966586.24156,-3.818787,33.25255990028381
1617966586.25718,-6.131592,33.26817989349365
1617966586.27281,-7.475342,33.28380990028381
1617966586.28843,-7.654785,33.29942989349365
1617966586.30406,-6.840454,33.31505990028381
1617966586.31969,-5.466675,33.330689907073975
1617966586.33531,-4.007385,33.34630990028381
1617966586.35094,-2.73877,33.361939907073975
1617966586.36656,-1.636169,33.37755990028381
1617966586.38219,-0.4418945,33.393189907073975
1617966586.39782,1.091858,33.408819913864136
1617966586.41344,3.017761,33.424439907073975
1617966586.42907,5.171631,33.440069913864136
1617966586.44469,7.256042,33.455689907073975
1617966586.46032,9.040649,33.471319913864136
1617966586.47594,10.4079,33.486939907073975
1617966586.49157,11.3999,33.502569913864136
1617966586.5072,12.10242,33.5181999206543
1617966586.52282,12.54614,33.533819913864136
1617966586.53845,12.70044,33.5494499206543
1617966586.55407,12.51263,33.565069913864136
1617966586.5697,12.04675,33.5806999206543
1617966586.58532,11.48029,33.596319913864136
1617966586.60095,11.07593,33.6119499206543
1617966586.61658,11.03882,33.62757992744446
1617966586.6322,11.42847,33.6431999206543
1617966586.64783,12.12195,33.65882992744446
1617966586.66345,12.86816,33.6744499206543
1617966586.67908,13.41064,33.69007992744446
1617966586.6947,13.59766,33.7056999206543
1617966586.71033,13.38861,33.72132992744446
1617966586.72596,12.85223,33.73695993423462
1617966586.74158,12.073,33.75257992744446
1617966586.75721,11.15155,33.76820993423462
1617966586.77283,10.19543,33.78382992744446
1617966586.78846,9.327332,33.79945993423462
1617966586.80408,8.662964,33.81507992744446
1617966586.81971,8.271729,33.83070993423462
1617966586.83534,8.12793,33.84633994102478
1617966586.85096,8.12793,33.86195993423462
1617966586.86659,8.104187,33.87758994102478
1617966586.88221,7.950745,33.89320993423462
1617966586.89784,7.660156,33.90883994102478
1617966586.91346,7.310669,33.92445993423462
1617966586.92909,7.048218,33.94008994102478
1617966586.94472,6.977966,33.95571994781494
1617966586.96034,7.183899,33.97133994102478
1617966586.97597,7.650635,33.98696994781494
1617966586.99159,8.289917,34.00258994102478
1617966587.00722,8.935974,34.01821994781494
1617966587.02284,9.370056,34.03383994102478
1617966587.03847,9.453186,34.04946994781494
1617966587.0541,9.123962,34.0650999546051
1617966587.06972,8.486084,34.08071994781494
1617966587.08535,7.719482,34.0963499546051
1617966587.10097,7.001404,34.11196994781494
1617966587.1166,6.39801,34.1275999546051
1617966587.13222,5.83551,34.14321994781494
1617966587.14785,5.135071,34.1588499546051
1617966587.16348,4.169983,34.174479961395264
1617966587.1791,2.890503,34.1900999546051
1617966587.19473,1.394775,34.205729961395264
1617966587.21035,-0.2116089,34.2213499546051
1617966587.22598,-1.844116,34.236979961395264
1617966587.2416,-3.501343,34.2525999546051
1617966587.25723,-5.226013,34.268229961395264
1617966587.27286,-6.994446,34.283859968185425
1617966587.28848,-8.703186,34.299479961395264
1617966587.30411,-10.13354,34.315109968185425
1617966587.31973,-11.08301,34.330729961395264
1617966587.33536,-11.43903,34.346359968185425
1617966587.35098,-11.28815,34.361979961395264
1617966587.36661,-10.87201,34.377609968185425
1617966587.38224,-10.49231,34.393239974975586
1617966587.39786,-10.36658,34.408859968185425
1617966587.41349,-10.55109,34.424489974975586
1617966587.42911,-10.90198,34.440109968185425
1617966587.44474,-11.17474,34.455739974975586
1617966587.46036,-11.11212,34.471359968185425
1617966587.47599,-10.64014,34.486989974975586
1617966587.49162,-9.857666,34.50261998176575
1617966587.50724,-9.019104,34.518239974975586
1617966587.52287,-8.387024,34.53386998176575
1617966587.53849,-8.074341,34.549489974975586
1617966587.55412,-8.01178,34.56511998176575
1617966587.56974,-7.978516,34.580739974975586
1617966587.58537,-7.756042,34.59636998176575
1617966587.601,-7.254944,34.61199998855591
1617966587.61662,-6.570557,34.62761998176575
1617966587.63225,-5.879211,34.64324998855591
1617966587.64787,-5.32959,34.65886998176575
1617966587.6635,-4.913757,34.67449998855591
1617966587.67912,-4.534668,34.69011998176575
1617966587.69475,-4.118164,34.70574998855591
1617966587.71038,-3.755554,34.72137999534607
1617966587.726,-3.705444,34.73699998855591
1617966587.74163,-4.212219,34.75262999534607
1617966587.75725,-5.331787,34.76824998855591
1617966587.77288,-6.828979,34.78387999534607
1617966587.7885,-8.354309,34.79949998855591
1617966587.80413,-9.608093,34.81512999534607
1617966587.81976,-10.58984,34.83076000213623
1617966587.83538,-11.50214,34.84637999534607
1617966587.85101,-12.57715,34.86201000213623
1617966587.86663,-13.90417,34.87762999534607
1617966587.88226,-15.3172,34.89326000213623
1617966587.89788,-16.58301,34.90887999534607
1617966587.91351,-17.53375,34.92451000213623
1617966587.92914,-18.22076,34.94014000892639
1617966587.94476,-18.82874,34.95576000213623
1617966587.96039,-19.49194,34.97139000892639
1617966587.97601,-20.10419,34.98701000213623
1617966587.99164,-20.38409,35.00264000892639
1617966588.00726,-20.06427,35.01826000213623
1617966588.02289,-19.07953,35.03389000892639
1617966588.03852,-17.6485,35.04952001571655
1617966588.05414,-16.16724,35.06514000892639
1617966588.06977,-14.93921,35.08077001571655
1617966588.08539,-14.00989,35.09639000892639
1617966588.10102,-13.21332,35.11202001571655
1617966588.11664,-12.26544,35.12764000892639
1617966588.13227,-10.99384,35.14327001571655
1617966588.1479,-9.465393,35.158900022506714
1617966588.16352,-7.893311,35.17452001571655
1617966588.17915,-6.512756,35.190150022506714
1617966588.19477,-5.435486,35.20577001571655
1617966588.2104,-4.535339,35.221400022506714
1617966588.22602,-3.57373,35.23702001571655
1617966588.24165,-2.227661,35.252650022506714
1617966588.25728,-0.2854614,35.268280029296875
1617966588.2729,2.281921,35.283900022506714
1617966588.28853,5.258362,35.299530029296875
1617966588.30415,8.304749,35.315150022506714
1617966588.31978,11.07465,35.330780029296875
1617966588.3354,13.4231,35.346400022506714
1617966588.35103,15.51666,35.362030029296875
1617966588.36666,17.76447,35.377660036087036
1617966588.38228,20.60724,35.393280029296875
1617966588.39791,24.21564,35.408910036087036
1617966588.41353,28.35669,35.424530029296875
1617966588.42916,32.39282,35.440160036087036
1617966588.44478,35.61713,35.455780029296875
1617966588.46041,37.53143,35.471410036087036
1617966588.47604,38.14374,35.48703980445862
1617966588.49166,37.90173,35.502660036087036
1617966588.50729,37.41498,35.51828980445862
1617966588.52291,37.11597,35.533910036087036
1617966588.53854,37.07141,35.54953980445862
1617966588.55416,37.02527,35.565160036087036
1617966588.56979,36.62573,35.58078980445862
1617966588.58542,35.68872,35.59641981124878
1617966588.60104,34.23669,35.61203980445862
1617966588.61667,32.45667,35.62766981124878
1617966588.63229,30.58154,35.64328980445862
1617966588.64792,28.77039,35.65891981124878
1617966588.66355,27.18481,35.67454981803894
1617966588.67917,25.97559,35.69016981124878
1617966588.6948,25.28497,35.70579981803894
1617966588.71042,25.13379,35.72141981124878
1617966588.72605,25.33936,35.73704981803894
1617966588.74167,25.54364,35.75266981124878
1617966588.7573,25.3736,35.76829981803894
1617966588.77293,24.66962,35.7839298248291
1617966588.78855,23.57532,35.79954981803894
1617966588.80418,22.46051,35.8151798248291
1617966588.8198,21.75903,35.83079981803894
1617966588.83543,21.85315,35.8464298248291
1617966588.85105,23.00958,35.86204981803894
1617966588.86668,25.40668,35.8776798248291
1617966588.88231,29.05066,35.89330983161926
1617966588.89793,33.5119,35.9089298248291
1617966588.91356,37.83374,35.92455983161926
1617966588.92918,40.63831,35.9401798248291
1617966588.94481,40.61182,35.95580983161926
1617966588.96043,37.15271,35.9714298248291
1617966588.97606,30.78381,35.98705983161926
1617966588.99169,22.94952,36.002689838409424
1617966589.00731,15.46082,36.01830983161926
1617966589.02294,9.60144,36.033939838409424
1617966589.03856,5.717529,36.04955983161926
1617966589.05419,3.336548,36.065189838409424
1617966589.06981,1.710938,36.08080983161926
1617966589.08544,0.3568115,36.096439838409424
1617966589.10107,-0.8223267,36.112069845199585
1617966589.11669,-1.868408,36.127689838409424
1617966589.13232,-3.140381,36.143319845199585
1617966589.14794,-5.45343,36.158939838409424
1617966589.16357,-9.702942,36.174569845199585
1617966589.17919,-16.21661,36.190189838409424
1617966589.19482,-24.27026,36.205819845199585
1617966589.21045,-32.18591,36.221449851989746
1617966589.22607,-38.03235,36.237069845199585
1617966589.2417,-40.41791,36.252699851989746
1617966589.25732,-39.15198,36.268319845199585
1617966589.27295,-35.18317,36.283949851989746
1617966589.28857,-30.02795,36.299569845199585
1617966589.3042,-25.06018,36.315199851989746
1617966589.31983,-20.97174,36.33082985877991
1617966589.33545,-17.69824,36.346449851989746
1617966589.35108,-14.73682,36.36207985877991
1617966589.3667,-11.59918,36.377699851989746
1617966589.38233,-8.038574,36.39332985877991
1617966589.39795,-4.124939,36.408949851989746
1617966589.41358,-0.1477051,36.42457985877991
1617966589.42921,3.596313,36.44020986557007
1617966589.44483,6.80481,36.45582985877991
1617966589.46046,9.232178,36.47145986557007
1617966589.47608,10.66614,36.48707985877991
1617966589.49171,10.966,36.50270986557007
1617966589.50733,10.0946,36.51832985877991
1617966589.52296,8.201965,36.53395986557007
1617966589.53859,5.618958,36.54958987236023
1617966589.55421,2.824219,36.56520986557007
1617966589.56984,0.3615723,36.58083987236023
1617966589.58546,-1.337341,36.59645986557007
1617966589.60109,-2.065369,36.61208987236023
1617966589.61671,-1.988464,36.62770986557007
1617966589.63234,-1.588318,36.64333987236023
1617966589.64797,-1.536438,36.65896987915039
1617966589.66359,-2.418823,36.67458987236023
1617966589.67922,-4.517517,36.69021987915039
1617966589.69484,-7.723816,36.70583987236023
1617966589.71047,-11.5481,36.72146987915039
1617966589.72609,-15.37701,36.73708987236023
1617966589.74172,-18.66962,36.75271987915039
1617966589.75735,-21.1748,36.76834988594055
1617966589.77297,-22.92621,36.78396987915039
1617966589.7886,-24.10571,36.79959988594055
1617966589.80422,-24.89539,36.81521987915039
1617966589.81985,-25.32043,36.83084988594055
1617966589.83547,-25.33344,36.84646987915039
1617966589.8511,-24.82111,36.86209988594055
1617966589.86673,-23.84106,36.87772989273071
1617966589.88235,-22.59491,36.89334988594055
1617966589.89798,-21.36511,36.90897989273071
1617966589.9136,-20.36237,36.92459988594055
1617966589.92923,-19.60388,36.94022989273071
1617966589.94485,-18.90204,36.95584988594055
1617966589.96048,-17.94067,36.97147989273071
1617966589.97611,-16.52539,36.987109899520874
1617966589.99173,-14.60077,37.00272989273071
1617966590.00736,-12.36438,37.018359899520874
1617966590.02298,-10.10742,37.03397989273071
1617966590.03861,-8.046387,37.049609899520874
1617966590.05423,-6.262634,37.06522989273071
1617966590.06986,-4.686035,37.080859899520874
1617966590.08549,-3.205872,37.096489906311035
1617966590.10111,-1.710327,37.112109899520874
1617966590.11674,-0.1821899,37.127739906311035
1617966590.13236,1.357056,37.143359899520874
1617966590.14799,2.903015,37.158989906311035
1617966590.16361,4.453125,37.174609899520874
1617966590.17924,5.996399,37.190239906311035
1617966590.19487,7.400513,37.205869913101196
1617966590.21049,8.438416,37.221489906311035
1617966590.22612,8.835266,37.237119913101196
1617966590.24174,8.407715,37.252739906311035
1617966590.25737,7.171814,37.268369913101196
1617966590.27299,5.354858,37.283989906311035
1617966590.28862,3.345093,37.299619913101196
1617966590.30425,1.529236,37.31524991989136
1617966590.31987,0.1978149,37.330869913101196
1617966590.3355,-0.5908203,37.34649991989136
1617966590.35112,-0.9371338,37.362119913101196
1617966590.36675,-1.062317,37.37774991989136
1617966590.38237,-1.241516,37.393369913101196
1617966590.398,-1.667419,37.40899991989136
1617966590.41363,-2.393066,37.42462992668152
1617966590.42925,-3.291138,37.44024991989136
1617966590.44488,-4.119507,37.45587992668152
1617966590.4605,-4.584167,37.47149991989136
1617966590.47613,-4.474609,37.48712992668152
1617966590.49175,-3.754639,37.50274991989136
1617966590.50738,-2.5578,37.51837992668152
1617966590.52301,-1.208984,37.53400993347168
1617966590.53863,-0.04138184,37.54962992668152
1617966590.55426,0.6925049,37.56525993347168
1617966590.56988,0.8849487,37.58087992668152
1617966590.58551,0.4987793,37.59650993347168
1617966590.60113,-0.4879761,37.61212992668152
1617966590.61676,-2.160034,37.62775993347168
1617966590.63239,-4.635193,37.64338994026184
1617966590.64801,-7.905457,37.65900993347168
1617966590.66364,-11.76398,37.67463994026184
1617966590.67926,-15.73328,37.69025993347168
1617966590.69489,-19.25177,37.70588994026184
1617966590.71051,-21.89398,37.72150993347168
1617966590.72614,-23.53882,37.73713994026184
1617966590.74177,-24.38849,37.752769947052
1617966590.75739,-24.79712,37.76838994026184
1617966590.77302,-25.01703,37.784019947052
1617966590.78864,-25.03033,37.79963994026184
1617966590.80427,-24.58734,37.815269947052
1617966590.8199,-23.38269,37.83089995384216
1617966590.83552,-21.29352,37.846519947052
1617966590.85115,-18.50006,37.86214995384216
1617966590.86677,-15.32892,37.877769947052
1617966590.8824,-12.08398,37.89339995384216
1617966590.89802,-8.859985,37.909019947052
1617966590.91365,-5.551147,37.92464995384216
1617966590.92928,-1.957703,37.940279960632324
1617966590.9449,1.989868,37.95589995384216
1617966590.96053,6.189087,37.971529960632324
1617966590.97615,10.31561,37.98714995384216
1617966590.99178,13.94977,38.002779960632324
1617966591.0074,16.76367,38.01839995384216
1617966591.02303,18.57813,38.034029960632324
1617966591.03866,19.41852,38.049659967422485
1617966591.05428,19.41565,38.065279960632324
1617966591.06991,18.79645,38.080909967422485
1617966591.08553,17.7417,38.096529960632324
1617966591.10116,16.40265,38.112159967422485
1617966591.11678,14.86395,38.127779960632324
1617966591.13241,13.16382,38.143409967422485
1617966591.14804,11.29199,38.15903997421265
1617966591.16366,9.255676,38.174659967422485
1617966591.17929,7.070374,38.19028997421265
1617966591.19491,4.80719,38.205909967422485
1617966591.21054,2.561401,38.22153997421265
1617966591.22616,0.4117432,38.237159967422485
1617966591.24179,-1.565735,38.25278997421265
1617966591.25742,-3.343018,38.26841998100281
1617966591.27304,-4.895935,38.28403997421265
1617966591.28867,-6.238281,38.29966998100281
1617966591.30429,-7.381287,38.31528997421265
1617966591.31992,-8.338867,38.33091998100281
1617966591.33554,-9.120361,38.34653997421265
1617966591.35117,-9.694092,38.36216998100281
1617966591.3668,-10.01373,38.37779998779297
1617966591.38242,-10.01941,38.39341998100281
1617966591.39805,-9.71228,38.40904998779297
1617966591.41367,-9.168213,38.42466998100281
1617966591.4293,-8.547241,38.44029998779297
1617966591.44492,-8.051575,38.45591998100281
1617966591.46055,-7.788513,38.47154998779297
1617966591.47618,-7.7276,38.48717999458313
1617966591.4918,-7.674927,38.50279998779297
1617966591.50743,-7.396057,38.51842999458313
1617966591.52305,-6.739624,38.53404998779297
1617966591.53868,-5.737305,38.54967999458313
1617966591.5543,-4.614319,38.56529998779297
1617966591.56993,-3.613831,38.58092999458313
1617966591.58556,-2.869873,38.59656000137329
1617966591.60118,-2.327271,38.61217999458313
1617966591.61681,-1.836548,38.62781000137329
1617966591.63243,-1.250854,38.64342999458313
1617966591.64806,-0.5895386,38.65906000137329
1617966591.66368,0.00567627,38.67467999458313
1617966591.67931,0.3883057,38.69031000137329
1617966591.69494,0.5090942,38.70594000816345
1617966591.71056,0.4772949,38.72156000137329
1617966591.72619,0.4977417,38.73719000816345
1617966591.74181,0.7327881,38.75281000137329
1617966591.75744,1.151611,38.76844000816345
1617966591.77306,1.643311,38.78406000137329
1617966591.78869,2.028564,38.79969000816345
1617966591.80432,2.195557,38.81532001495361
1617966591.81994,2.171082,38.83094000816345
1617966591.83557,2.022644,38.84657001495361
1617966591.85119,1.825134,38.86219000816345
1617966591.86682,1.600769,38.87782001495361
1617966591.88244,1.345276,38.89344000816345
1617966591.89807,1.014771,38.90907001495361
1617966591.9137,0.6038208,38.924700021743774
1617966591.92932,0.09039307,38.94032001495361
1617966591.94495,-0.5187988,38.955950021743774
1617966591.96057,-1.20282,38.97157001495361
1617966591.9762,-1.878662,38.987200021743774
1617966591.99182,-2.378967,39.00282001495361
1617966592.00745,-2.515015,39.018450021743774
1617966592.02308,-2.118225,39.034080028533936
1617966592.0387,-1.21344,39.049700021743774
1617966592.05433,0.02679443,39.065330028533936
1617966592.06995,1.255188,39.080950021743774
1617966592.08558,2.160889,39.096580028533936
1617966592.1012,2.573914,39.112200021743774
1617966592.11683,2.533386,39.127830028533936
1617966592.13246,2.213318,39.1434600353241
1617966592.14808,1.827332,39.159080028533936
1617966592.16371,1.520508,39.1747100353241
1617966592.17933,1.327942,39.190330028533936
1617966592.19496,1.215393,39.2059600353241
1617966592.21058,1.127502,39.221580028533936
1617966592.22621,1.057068,39.2372100353241
1617966592.24184,1.011536,39.25283980369568
1617966592.25746,0.993103,39.2684600353241
1617966592.27309,0.947937,39.28408980369568
1617966592.28871,0.8334961,39.2997100353241
1617966592.30434,0.5997314,39.31533980369568
1617966592.31996,0.2833252,39.3309600353241
1617966592.33559,0.004577637,39.34658980369568
1617966592.35122,-0.09313965,39.36221981048584
1617966592.36684,0.0737915,39.37783980369568
1617966592.38247,0.4619751,39.39346981048584
1617966592.39809,0.9448242,39.40908980369568
1617966592.41372,1.34259,39.42471981048584
1617966592.42934,1.577454,39.44033980369568
1617966592.44497,1.648804,39.45596981048584
1617966592.4606,1.625488,39.471599817276
1617966592.47622,1.607056,39.48721981048584
1617966592.49185,1.64624,39.502849817276
1617966592.50747,1.719604,39.51846981048584
1617966592.5231,1.790039,39.534099817276
1617966592.53872,1.840637,39.54971981048584
1617966592.55435,1.874512,39.565349817276
1617966592.56998,1.895996,39.58097982406616
1617966592.5856,1.874817,39.596599817276
1617966592.60123,1.744812,39.61222982406616
1617966592.61685,1.46637,39.627849817276
1617966592.63248,1.05542,39.64347982406616
1617966592.6481,0.6391602,39.659099817276
1617966592.66373,0.3552246,39.67472982406616
1617966592.67936,0.329895,39.69035983085632
1617966592.69498,0.5391846,39.70597982406616
1617966592.71061,0.8156738,39.72160983085632
1617966592.72623,0.9398804,39.73722982406616
1617966592.74186,0.7349243,39.75285983085632
1617966592.75748,0.2131958,39.76847982406616
1617966592.77311,-0.4246216,39.78410983085632
1617966592.78874,-0.8270264,39.799739837646484
1617966592.80436,-0.7227783,39.81535983085632
1617966592.81999,-0.04345703,39.830989837646484
1617966592.83561,0.9853516,39.84660983085632
1617966592.85124,1.998535,39.862239837646484
1617966592.86686,2.646545,39.87785983085632
1617966592.88249,2.754456,39.893489837646484
1617966592.89812,2.37262,39.909119844436646
1617966592.91374,1.656494,39.924739837646484
1617966592.92937,0.7831421,39.940369844436646
1617966592.94499,-0.1940308,39.955989837646484
1617966592.96062,-1.341248,39.971619844436646
1617966592.97624,-2.817139,39.987239837646484
1617966592.99187,-4.710754,40.002869844436646
1617966593.0075,-6.969299,40.01849985122681
1617966593.02312,-9.399597,40.034119844436646
1617966593.03875,-11.729,40.04974985122681
1617966593.05437,-13.70453,40.065369844436646
1617966593.07,-15.16278,40.08099985122681
1617966593.08562,-16.06781,40.096619844436646
1617966593.10125,-16.4621,40.11224985122681
1617966593.11688,-16.42432,40.12787985801697
1617966593.1325,-16.00653,40.14349985122681
1617966593.14813,-15.15918,40.15912985801697
1617966593.16375,-13.82123,40.17474985122681
1617966593.17938,-11.94452,40.19037985801697
1617966593.195,-9.648254,40.20599985122681
1617966593.21063,-7.187744,40.22162985801697
1617966593.22626,-4.895447,40.23725986480713
1617966593.24188,-2.982422,40.25287985801697
1617966593.25751,-1.476013,40.26850986480713
1617966593.27313,-0.157959,40.28412985801697
1617966593.28876,1.311829,40.29975986480713
1617966593.30438,3.169739,40.31537985801697
1617966593.32001,5.414978,40.33100986480713
1617966593.33564,7.784485,40.34663987159729
1617966593.35126,9.873901,40.36225986480713
1617966593.36689,11.3645,40.37788987159729
1617966593.38251,12.22382,40.39350986480713
1617966593.39814,12.68134,40.40913987159729
1617966593.41376,13.09302,40.42475986480713
1617966593.42939,13.73657,40.44038987159729
1617966593.44502,14.61816,40.45601987838745
1617966593.46064,15.56421,40.47163987159729
1617966593.47627,16.36249,40.48726987838745
1617966593.49189,16.92261,40.50288987159729
1617966593.50752,17.43018,40.51851987838745
1617966593.52315,18.24127,40.53414988517761
1617966593.53877,19.65454,40.54976987838745
1617966593.5544,21.69977,40.56539988517761
1617966593.57002,24.05872,40.58101987838745
1617966593.58565,26.15552,40.59664988517761
1617966593.60127,27.45331,40.61226987838745
1617966593.6169,27.72089,40.62789988517761
1617966593.63253,27.0874,40.64352989196777
1617966593.64815,25.95276,40.65914988517761
1617966593.66378,24.7489,40.67477989196777
1617966593.6794,23.73407,40.69039988517761
1617966593.69503,22.86536,40.70602989196777
1617966593.71065,21.92877,40.72164988517761
1617966593.72628,20.64539,40.73727989196777
1617966593.74191,18.85284,40.752909898757935
1617966593.75753,16.55957,40.76852989196777
1617966593.77316,13.83197,40.784159898757935
1617966593.78878,10.7088,40.79977989196777
1617966593.80441,7.121643,40.815409898757935
1617966593.82003,2.9422,40.83102989196777
1617966593.83566,-1.872803,40.846659898757935
1617966593.85129,-7.163025,40.862289905548096
1617966593.86691,-12.5379,40.877909898757935
1617966593.88254,-17.45239,40.893539905548096
1617966593.89816,-21.41333,40.909159898757935
1617966593.91379,-24.22253,40.924789905548096
1617966593.92941,-26.03046,40.940409898757935
1617966593.94504,-27.24426,40.956039905548096
1617966593.96067,-28.30322,40.97166991233826
1617966593.97629,-29.36023,40.987289905548096
1617966593.99192,-30.21088,41.00291991233826
1617966594.00754,-30.36798,41.018539905548096
1617966594.02317,-29.39667,41.03416991233826
1617966594.03879,-27.1947,41.049789905548096
1617966594.05442,-24.15448,41.06541991233826
1617966594.07005,-20.98163,41.08104991912842
1617966594.08567,-18.45105,41.09666991233826
1617966594.1013,-17.06696,41.11229991912842
1617966594.11692,-16.94586,41.12791991233826
1617966594.13255,-17.88477,41.14354991912842
1617966594.14817,-19.57751,41.15916991233826
1617966594.1638,-21.77087,41.17479991912842
1617966594.17943,-24.29272,41.19042992591858
1617966594.19505,-27.00513,41.20604991912842
1617966594.21068,-29.63354,41.22167992591858
1617966594.2263,-31.76831,41.23729991912842
1617966594.24193,-33.00531,41.25292992591858
1617966594.25755,-33.10663,41.26854991912842
1617966594.27318,-32.14087,41.28417992591858
1617966594.28881,-30.51819,41.29980993270874
1617966594.30443,-28.88507,41.31542992591858
1617966594.32006,-27.90454,41.33105993270874
1617966594.33568,-28.09216,41.34667992591858
1617966594.35131,-29.61981,41.36230993270874
1617966594.36693,-32.33942,41.37792992591858
1617966594.38256,-35.85449,41.39355993270874
1617966594.39819,-39.74359,41.4091899394989
1617966594.41381,-43.77765,41.42480993270874
1617966594.42944,-48.1618,41.4404399394989
1617966594.44506,-53.42511,41.45605993270874
1617966594.46069,-60.20685,41.4716899394989
1617966594.47631,-68.87823,41.48730993270874
1617966594.49194,-79.25043,41.5029399394989
1617966594.50757,-90.55969,41.51856994628906
1617966594.52319,-101.7935,41.5341899394989
1617966594.53882,-112.1268,41.54981994628906
1617966594.55444,-121.2812,41.5654399394989
1617966594.57007,-129.592,41.58106994628906
1617966594.58569,-137.7527,41.5966899394989
1617966594.60132,-146.415,41.61231994628906
1617966594.61695,-155.9541,41.627949953079224
1617966594.63257,-166.4483,41.64356994628906
1617966594.6482,-177.7672,41.659199953079224
1617966594.66382,-189.5903,41.67481994628906
1617966594.67945,-201.217,41.690449953079224
1617966594.69507,-211.4576,41.70606994628906
1617966594.7107,-218.8805,41.721699953079224
1617966594.72633,-222.4761,41.737329959869385
1617966594.74195,-222.4682,41.752949953079224
1617966594.75758,-220.7944,41.768579959869385
1617966594.7732,-220.8067,41.784199953079224
1617966594.78883,-226.1356,41.799829959869385
1617966594.80445,-239.2463,41.815449953079224
