,index,PPG_Raw,PPG_Clean,PPG_Rate,PPG_Peaks,EDA_Raw,EDA_Clean,EDA_Tonic,EDA_Phasic,SCR_Onsets,SCR_Peaks,SCR_Height,SCR_Amplitude,SCR_RiseTime,SCR_Recovery,SCR_RecoveryTime,Index,Label,Condition,id
0,0.0,263.3411,224.45681383278216,52.64897729030541,0,0.18574171615197402,0.1857334874094001,0.18557974646508715,0.00015374094190334945,0,0,0,0,0,0,0,385,2,nuda,1
1,0.015873015873015872,279.5142,241.1669352769307,52.61439898382455,0,0.18598023981332487,0.18597951024526385,0.18558486725596438,0.0003946429868791876,0,0,0,0,0,0,0,386,2,nuda,1
2,0.031746031746031744,284.5632,247.88013215092974,52.602739726027394,1,0.1862077686598723,0.18621536667135913,0.1855899702009851,0.0006253964679429563,0,0,0,0,0,0,0,387,2,nuda,1
3,0.047619047619047616,276.2249,242.62487473993798,52.607440620498714,0,0.18642209452012376,0.18643817893923872,0.18559505533512466,0.0008431236016722332,0,0,0,0,0,0,0,388,2,nuda,1
4,0.06349206349206349,255.3176,225.67945739117744,52.621350290939596,0,0.18662100922258676,0.18664512019746549,0.18560012269371762,0.0010449975012952269,0,0,0,0,0,0,0,389,2,nuda,1
5,0.07936507936507936,225.053,199.30346340886354,52.6441860097819,0,0.18680230459576877,0.18683338611991884,0.1856051723125835,0.0012282138048718793,0,0,0,0,0,0,0,390,2,nuda,1
6,0.09523809523809523,189.6314,166.88499945350026,52.675673322303865,0,0.18696377246817725,0.18700018071877522,0.18561020422814312,0.0013899764881578078,0,0,0,0,0,0,0,391,2,nuda,1
7,0.1111111111111111,152.6738,131.88328421528755,52.715545109381964,0,0.18710320466831964,0.187142721366741,0.18561521847752419,0.0015275028867316356,0,0,0,0,0,0,0,392,2,nuda,1
8,0.12698412698412698,116.347,96.9712455591701,52.763540696099504,0,0.18721839302470342,0.18725826666936485,0.1856202150986544,0.0016380515682143204,0,0,0,0,0,0,0,393,2,nuda,1
9,0.14285714285714285,81.42651,63.62699688820754,52.81940500201123,0,0.18730712936583604,0.18734416906136078,0.18562519413034054,0.0017189749285131983,0,0,0,0,0,0,0,394,2,nuda,1
10,0.15873015873015872,47.78587,32.19429080233327,52.882887729302276,0,0.1873672055202251,0.18739795194816694,0.18563015561233187,0.0017677963333170975,0,0,0,0,0,0,0,395,2,nuda,1
11,0.1746031746031746,15.11325,2.2564959753612452,52.953742585482566,0,0.18739641331637785,0.18741740900554046,0.18563509958536634,0.0017823094176451708,0,1,0,0,0,0,0,396,2,nuda,1
12,0.19047619047619047,-16.8851,0.0,53.03172653762738,0,0.18739254458280186,0.18740072104478572,0.1856400260911983,0.0017606949510473925,0,0,0,0,0,0,0,397,2,nuda,1
13,0.20634920634920634,-48.42053,0.0,53.11659909551715,0,0.18735339114800462,0.18734658382995947,0.1856449351726066,0.0017016486548017352,0,0,0,0,0,0,0,398,2,nuda,1
14,0.2222222222222222,-79.6022,0.0,53.20812162134733,0,0.18727674484049361,0.18725433858707793,0.18564982687338147,0.0016045117111341978,0,0,0,0,0,0,0,399,2,nuda,1
15,0.23809523809523808,-110.2508,0.0,53.30605666397621,0,0.18716039748877625,0.18712409585796932,0.18565470123829006,0.001469394617105828,0,0,0,0,0,0,0,400,2,nuda,1
16,0.25396825396825395,-139.6422,0.0,53.41016731595796,0,0.18700214094773798,0.18695684297615064,0.18565955831302017,0.001297284660545859,0,0,0,0,0,0,0,401,2,nuda,1
17,0.2698412698412698,-166.529,0.0,53.52021659187232,0,0.18680139263766918,0.18675452587064864,0.18566439814410202,0.001090127723950828,0,0,0,0,0,0,0,402,2,nuda,1
18,0.2857142857142857,-189.3186,0.0,53.63596682671322,0,0.18656358517128688,0.18652009713236906,0.18566922077880885,0.0008508763509531775,0,0,0,0,0,0,0,403,2,nuda,1
19,0.30158730158730157,-206.723,0.0,53.75717909333951,0,0.18629554218700398,0.18625752418451294,0.18567402626503765,0.0005834979168570215,0,0,0,0,0,0,0,404,2,nuda,1
20,0.31746031746031744,-218.1003,0.0,53.88361263822145,0,0.18600408732323329,0.18597175375576486,0.18567881465117123,0.0002929391019641362,0,0,0,0,0,0,0,405,2,nuda,1
21,0.3333333333333333,-223.8132,0.0,54.015024334940996,0,0.18569604421838765,0.18566863138793738,0.18568358598592447,-1.4954600627841482e-05,0,0,0,0,0,0,0,406,2,nuda,1
22,0.3492063492063492,-225.0249,0.0,54.15116815512054,0,0.18537823651087992,0.18535477717736237,0.18568834031817738,-0.00033356314346709394,0,0,0,0,0,1,0,407,2,nuda,1
23,0.36507936507936506,-223.2394,0.0,54.29179465666715,0,0.18505748783912293,0.18503742119811753,0.1856930776967982,-0.0006556565013441512,0,0,0,0,0,0,0,408,2,nuda,1
24,0.38095238095238093,-219.8369,0.0,54.43665048942711,0,0.18474062184152962,0.1847242040240116,0.18569779817046045,-0.0009735941491237853,0,0,0,0,0,0,0,409,2,nuda,1
25,0.3968253968253968,-215.7452,0.0,54.58547791854916,0,0.1844344621565127,0.18442294945569987,0.18570250178745829,-0.0012795523344448037,0,0,0,0,0,0,0,410,2,nuda,1
26,0.4126984126984127,-211.4204,0.0,54.738014366056014,0,0.1841458324224851,0.18414141799157738,0.185707188595524,-0.0015657706066444775,0,0,0,0,0,0,0,411,2,nuda,1
27,0.42857142857142855,-206.8434,0.0,54.893991971321256,0,0.18388155627785968,0.18388705076584397,0.18571185864165266,-0.0018248078785180573,0,0,0,0,0,0,0,412,2,nuda,1
28,0.4444444444444444,-201.7061,0.0,55.05313717134364,0,0.1836484573610492,0.18366671458841466,0.18571651197193817,-0.002049797386244424,0,0,0,0,0,0,0,413,2,nuda,1
29,0.4603174603174603,-195.5747,0.0,55.215170301902894,0,0.18345335931046663,0.18348645928778187,0.18572114863142475,-0.0022346893463753344,0,0,0,0,0,0,0,414,2,nuda,1
30,0.47619047619047616,-188.2262,0.0,55.37980522086939,0,0.1833030857645247,0.18335129866705496,0.18572576866397808,-0.002374469999667212,0,0,0,0,0,0,0,415,2,nuda,1
31,0.49206349206349204,-179.782,0.0,55.546748955125146,0,0.18320446036163632,0.1832650259007298,0.18573037211217944,-0.002465346214205367,0,0,0,0,0,0,0,416,2,nuda,1
32,0.5079365079365079,-170.799,0.0,55.71570137273326,0,0.18316430674021436,0.18323007300252075,0.18573495901724563,-0.0025048860174922754,1,0,0,0,0,0,0,417,2,nuda,1
33,0.5238095238095237,-162.0063,0.0,55.886354882167815,0,0.18318731973475139,0.18324742201890096,0.18573952941897687,-0.002492107402855011,0,0,0,0,0,0,0,418,2,nuda,1
34,0.5396825396825397,-153.8666,0.0,56.058394160583944,0,0.18326934062091355,0.18331657289783135,0.1857440833557342,-0.0024275104606936247,0,0,0,0,0,0,0,419,2,nuda,1
35,0.5555555555555556,-146.1882,0.0,56.231495913267125,0,0.18340390936485854,0.18343556974893463,0.18574862086444663,-0.0023130511183145136,0,0,0,0,0,0,0,420,2,nuda,1
36,0.5714285714285714,-138.0336,0.0,56.40532866655131,0,0.18358456592789466,0.18360108379221227,0.1857531419806482,-0.002152058191250298,0,0,0,0,0,0,0,421,2,nuda,1
37,0.5873015873015872,-128.0842,0.0,56.57955259663315,0,0.1838048502713302,0.18380854808756736,0.18575764673854347,-0.0019490986538023291,0,0,0,0,0,0,0,422,2,nuda,1
38,0.6031746031746031,-115.4152,0.0,56.75381939683479,0,0.1840583023564734,0.18405233648734912,0.1857621351710996,-0.0017097986865886505,0,0,0,0,0,0,0,423,2,nuda,1
39,0.6190476190476191,-100.1893,0.0,56.927772185976366,0,0.18433846214463256,0.18432597735563738,0.18576660731016265,-0.0014406299573754386,0,0,0,0,0,0,0,424,2,nuda,1
40,0.6349206349206349,-83.95911,0.0,57.10104546060985,0,0.18463886959711595,0.18462239149111176,0.1857710631865946,-0.001148671698345085,0,0,0,0,0,0,0,425,2,nuda,1
41,0.6507936507936507,-69.23645,0.0,57.27326509393566,0,0.18495306467523182,0.18493414329797742,0.1857755028304275,-0.000841359535324509,0,0,0,0,0,0,0,426,2,nuda,1
42,0.6666666666666666,-58.57907,0.0,57.444048384269266,0,0.1852745873402885,0.18525369443233167,0.1857799262710311,-0.0005262318415861081,0,0,0,0,0,0,0,427,2,nuda,1
43,0.6825396825396826,-53.52466,0.0,57.61300415594447,0,0.18559697755359425,0.18557364975700086,0.18578433353728882,-0.00021068378318694686,0,0,0,0,0,0,0,428,2,nuda,1
44,0.6984126984126984,-53.92459,0.0,57.779732915529785,0,0.18591377527645728,0.18588698633602785,0.18578872465777868,9.826167533783902e-05,0,0,0,0,0,0,0,429,2,nuda,1
45,0.7142857142857142,-58.00342,0.0,57.9438270661916,0,0.18621852047018592,0.18618725730396393,0.1857930996609545,0.00039415764008571914,0,0,0,0,0,0,0,430,2,nuda,1
46,0.7301587301587301,-63.07703,0.0,58.10487118295936,0,0.18650475309608844,0.18646876371839322,0.1857974585753234,0.0006713051401337323,0,0,0,0,0,0,0,431,2,nuda,1
47,0.746031746031746,-66.50482,0.0,58.262442351530844,0,0.18676601311547308,0.18672668895272237,0.1858018014296159,0.0009248875201579567,0,0,0,0,0,0,0,432,2,nuda,1
48,0.7619047619047619,-66.57266,0.0,58.416110573097484,0,0.18699584048964815,0.18695719183793327,0.18580612825294546,0.00115106358202677,0,0,0,0,0,0,0,433,2,nuda,1
49,0.7777777777777777,-62.99902,0.0,58.565439237466414,0,0.18718901257209092,0.1871574566337593,0.18581043907495473,0.001347017555831032,0,0,0,0,0,0,0,434,2,nuda,1
50,0.7936507936507936,-56.76511,0.0,58.70998566650741,0,0.1873460924074252,0.18732569996896292,0.18581473392594586,0.0015109660400309775,0,0,0,0,0,0,0,435,2,nuda,1
51,0.8095238095238095,-49.64105,3.5338112142612235,58.849301729654485,0,0.18746933264293808,0.18746113702358075,0.18581901283699384,0.001642124183588239,0,0,0,0,0,0,0,436,2,nuda,1
52,0.8253968253968254,-43.29019,9.808397159702917,58.982934532844205,0,0.18756098612948907,0.18756391124024954,0.1858232758400415,0.0017406353971968292,0,0,0,0,0,0,0,437,2,nuda,1
53,0.8412698412698412,-38.49911,15.142415095402866,59.11042718187318,0,0.18762330571793762,0.18763499352302268,0.18582752296797553,0.0018074705520233487,0,0,0,0,0,0,0,438,2,nuda,1
54,0.8571428571428571,-34.85913,19.800000198760134,59.23131962070602,0,0.18765854425914322,0.18767605802913329,0.18583175425468418,0.0018443037714126985,0,0,0,0,0,0,0,439,2,nuda,1
55,0.873015873015873,-30.93558,24.807986257885442,59.345149544762265,0,0.18766895460396538,0.18768934219740574,0.1858359697350964,0.001853372459260245,0,1,0,0,0,0,0,440,2,nuda,1
56,0.8888888888888888,-24.95297,31.466413568357524,59.45145338865732,0,0.1876567896032636,0.18767749860722072,0.18584016944520396,0.001837329158954962,0,0,0,0,0,0,0,441,2,nuda,1
57,0.9047619047619047,-15.59122,40.743811402112,59.549767387270585,0,0.1876243021078973,0.18764344572415667,0.18584435342206737,0.0017990922990147825,0,0,0,0,0,0,0,442,2,nuda,1
58,0.9206349206349206,-2.729187,52.82167731162374,59.639628708366196,0,0.1875737449687259,0.1875902237052722,0.18584852170380756,0.0017417019983773543,0,0,0,0,0,0,0,443,2,nuda,1
59,0.9365079365079365,12.5047,66.97110764563004,59.72057665430251,0,0.18750737103660903,0.187520860360731,0.1858526743295844,0.001668186028046551,0,0,0,0,0,0,0,444,2,nuda,1
60,0.9523809523809523,28.16418,81.7856813549642,59.79215392964026,0,0.18742743316240607,0.18743825123620433,0.18585681133956433,0.001581439893527173,0,0,0,0,0,0,0,445,2,nuda,1
61,0.9682539682539681,42.32346,95.63948138226364,59.85390797070263,0,0.1873361841969765,0.1873450566979109,0.1858609327748785,0.0014841239199067705,0,0,0,0,0,0,0,446,2,nuda,1
62,0.9841269841269841,53.72989,107.16320774474941,59.90539233236085,0,0.18723587699117983,0.18724361793567945,0.18586503867757317,0.0013785792549678192,0,0,0,0,0,0,0,447,2,nuda,1
63,1.0,61.98639,115.56189358808794,59.94616812652384,0,0.1871287643958755,0.18713589297607516,0.18586912909055392,0.0012667638823699093,0,0,0,0,0,0,0,448,2,nuda,1
0,0.0,-31.28076,0.0,85.09468948536342,0,0.18804073063643237,0.1880100694692496,0.1894519767463954,-0.0014419071525675108,0,0,0,0,0,0,0,1551,4,nuda,3
1,0.015873015873015872,-15.75983,0.0,85.13657325292657,0,0.18839125969435833,0.1883578656240796,0.18945675305559947,-0.0010988873066236156,0,0,0,0,0,0,0,1552,4,nuda,3
2,0.031746031746031744,1.496155,0.0,85.175139433154,0,0.18873238456287697,0.1886948921219576,0.18946152966332153,-0.000766637416150504,0,0,0,0,0,0,0,1553,4,nuda,3
3,0.047619047619047616,18.79755,2.9360681119479732,85.21012995324061,0,0.1890566277722856,0.18901473549124448,0.1894663065274971,-0.00045157091072292447,0,0,0,0,0,0,0,1554,4,nuda,3
4,0.06349206349206349,34.81104,18.970955883532564,85.24128677510375,0,0.1893565118528816,0.18931211500574022,0.18947108360561168,-0.00015896847402624892,0,0,0,0,0,0,0,1555,4,nuda,3
5,0.07936507936507936,48.75439,33.10769177025934,85.2683521169662,0,0.18962457792405932,0.18958298065454768,0.18947586085488202,0.00010711992582552706,0,0,0,0,0,0,0,1556,4,nuda,3
6,0.09523809523809523,60.33173,44.818690265813295,85.29106869036335,0,0.18985643539214167,0.18982455686918465,0.189480638232425,0.00034391876323332845,0,0,0,0,0,0,0,1557,4,nuda,3
7,0.1111111111111111,69.4975,53.895653824084995,85.30917995234272,0,0.19005415369819212,0.19003533329162778,0.1894854156954112,0.0005499177230032484,0,0,0,0,0,0,0,1558,4,nuda,3
8,0.12698412698412698,76.27637,60.32158460491191,85.32243037256144,0,0.19022061955275726,0.19021500625314414,0.18949019320120192,0.0007248131790409396,0,0,0,0,0,0,0,1559,4,nuda,3
9,0.14285714285714285,80.60767,64.17493110489738,85.33056571492394,0,0.19035871966638368,0.1903643768033902,0.18949497070746885,0.0008694062233312271,0,0,0,0,0,0,0,1560,4,nuda,3
10,0.15873015873015872,82.45758,65.60184508825009,85.33333333333333,1,0.19047134074961813,0.19048521284715747,0.18949974817229573,0.000985464802581887,0,0,0,0,0,0,0,1561,4,nuda,3
11,0.1746031746031746,81.92938,64.84140208164247,85.30327288122072,0,0.19056136951300712,0.19058008404567403,0.18950452555426284,0.0010755586194407113,0,0,0,0,0,0,0,1562,4,nuda,3
12,0.19047619047619047,79.36621,62.256447675190955,85.2142942244434,0,0.19063169266709729,0.1906521785709682,0.18950930281251507,0.001142875886791053,0,0,0,0,0,0,0,1563,4,nuda,3
13,0.20634920634920634,75.38318,58.32519851902006,85.06837370536569,0,0.1906851969224353,0.19070511062770645,0.1895140799068152,0.0011910308495366314,0,0,0,0,0,0,0,1564,4,nuda,3
14,0.2222222222222222,70.64227,53.57933322730428,84.86769676143298,0,0.19072476898956778,0.1907427270129705,0.18951885679758404,0.0012238703443382738,0,0,0,0,0,0,0,1565,4,nuda,3
15,0.23809523809523808,65.73853,48.51056073730648,84.61463127999217,0,0.1907532955790414,0.19076892003611548,0.18952363344592943,0.001245286719443294,0,0,0,0,0,0,0,1566,4,nuda,3
16,0.25396825396825395,60.97205,43.48661538131904,84.31170035621693,0,0.19077366340140267,0.19078745302690123,0.18952840981366656,0.0012590433427963044,0,0,0,0,0,0,0,1567,4,nuda,3
17,0.2698412698412698,56.48285,38.710391793696196,83.96155493690055,0,0.19078875916719829,0.19080180354704707,0.1895331858633314,0.0012686178135807328,0,0,0,0,0,0,0,1568,4,nuda,3
18,0.2857142857142857,52.21344,34.23120025622974,83.5669467964843,0,0.1908014695869749,0.19081502836824205,0.1895379615581896,0.0012770669402198465,0,0,0,0,0,0,0,1569,4,nuda,3
19,0.30158730158730157,48.09143,29.99251682077522,83.13070224660723,0,0.19081468137127908,0.19082965331846308,0.18954273686224316,0.001286916586688683,0,0,0,0,0,0,0,1570,4,nuda,3
20,0.31746031746031744,44.0686,25.889817034269964,82.65569692911126,0,0.19083128123065748,0.19084759021495282,0.18954751174023587,0.001300078605486018,0,0,0,0,0,0,0,1571,4,nuda,3
21,0.3333333333333333,40.08972,21.81723249388018,82.14483198719758,0,0.1908541507731769,0.19087008225569121,0.18955228615765965,0.0013177962290999083,0,0,0,0,0,0,0,1572,4,nuda,3
22,0.3492063492063492,36.0976,17.694760534807934,81.60101185254696,0,0.19088479074830367,0.1908976783869938,0.18955706008076256,0.0013406184375977432,0,0,0,0,0,0,0,1573,4,nuda,3
23,0.36507936507936506,32.02881,13.478332025010664,81.02712382970199,0,0.1909214592795804,0.1909302362812044,0.18956183347655925,0.0013684029363086685,0,0,0,0,0,0,0,1574,4,nuda,3
24,0.38095238095238093,27.84735,9.15848650057873,80.42601960458695,0,0.1909619495270763,0.19096695266627325,0.18956660631284414,0.0014003464853885165,0,0,0,0,0,0,0,1575,4,nuda,3
25,0.3968253968253968,23.52783,4.751917767791046,79.8004987531172,0,0.1910040546508606,0.1910064189100461,0.18957137855820738,0.0014350404840928776,0,0,0,0,0,0,0,1576,4,nuda,3
26,0.4126984126984127,19.16998,0.28863600821679397,79.15329427948882,0,0.19104556781100257,0.19104669905044236,0.18957615018205295,0.0014705490009371657,0,0,0,0,0,0,0,1577,4,nuda,3
27,0.42857142857142855,14.80994,0.0,78.48706017268607,0,0.1910842821675715,0.19108542692726938,0.18958092115461825,0.0015045059054913097,0,0,0,0,0,0,0,1578,4,nuda,3
28,0.4444444444444444,10.47559,0.0,77.80436093443038,0,0.19111799088063666,0.19111991871476564,0.18958569144699397,0.00153422740090314,0,0,0,0,0,0,0,1579,4,nuda,3
29,0.4603174603174603,6.132629,0.0,77.10766300238677,0,0.19114448711026719,0.1911472969373504,0.18959046103114313,0.00155683603962881,0,0,0,0,0,0,0,1580,4,nuda,3
30,0.47619047619047616,1.717102,0.0,76.39932796887435,0,0.1911615640165324,0.19116462191547598,0.18959522987991745,0.001569392169268887,0,1,0,0,0,0,0,1581,4,nuda,3
31,0.49206349206349204,-2.808899,0.0,75.68160747734282,0,0.19116701475950154,0.1911690264779336,0.18959999796706967,0.0015690286448618745,0,0,0,0,0,0,0,1582,4,nuda,3
32,0.5079365079365079,-7.41156,0.0,74.95663966608205,0,0.19115863249924386,0.19115784965672955,0.18960476526726,0.0015530845237538783,0,0,0,0,0,0,0,1583,4,nuda,3
33,0.5238095238095237,-12.06024,0.0,74.2264470205298,0,0.19113421039582865,0.19112876494844722,0.18960953175605513,0.0015192333269615562,0,0,0,0,0,0,0,1584,4,nuda,3
34,0.5396825396825397,-16.77454,0.0,73.49293549157586,0,0.1910915416093251,0.19107989861555758,0.18961429740991828,0.0014656013404926466,0,0,0,0,0,0,0,1585,4,nuda,3
35,0.5555555555555556,-21.62555,0.0,72.7578947368421,0,0.19102841929980244,0.19100993347784914,0.189619062206189,0.0013908714067961078,0,0,0,0,0,0,0,1586,4,nuda,3
36,0.5714285714285714,-26.70209,0.0,72.02299934445732,0,0.19094263662733002,0.1909181937930888,0.18962382612305168,0.0012943678054543383,0,0,0,0,0,0,0,1587,4,nuda,3
37,0.5873015873015872,-31.9455,0.0,71.28981090377657,0,0.1908319898058211,0.19080470723245577,0.18962858913949202,0.0011761182286608844,0,0,0,0,0,0,0,1588,4,nuda,3
38,0.6031746031746031,-37.08203,0.0,70.55978079428101,0,0.19069582640198615,0.19067024067971292,0.18963335123524094,0.0010368895804477027,0,0,0,0,0,0,0,1589,4,nuda,3
39,0.6190476190476191,-41.68726,0.0,69.8342535720544,0,0.19053756475670572,0.19051630762886643,0.18963811239070616,0.0008781953744132561,0,0,0,0,0,0,0,1590,4,nuda,3
40,0.6349206349206349,-45.31104,0.0,69.11447084233262,0,0.19036128284118373,0.19034514625531812,0.18964287258689178,0.0007022738049552125,0,0,0,0,0,0,0,1591,4,nuda,3
41,0.6507936507936507,-47.71661,0.0,68.4015755162894,0,0.19017105862662395,0.1901596686567901,0.18964763180530678,0.0005120369882866331,0,0,0,0,0,0,0,1592,4,nuda,3
42,0.6666666666666666,-48.98126,0.0,67.69661636014098,0,0.1899709700842302,0.18996338314417047,0.18965239002786377,0.00031099325338297386,0,0,0,0,0,0,0,1593,4,nuda,3
43,0.6825396825396826,-49.46619,0.0,67.00055275456023,0,0.18976509518520635,0.1897602926782577,0.1896571472367696,0.00010314557883592745,0,0,0,0,0,0,0,1594,4,nuda,3
44,0.6984126984126984,-49.62543,0.0,66.31425959208134,0,0.18955751190075615,0.1895547735259783,0.18966190341440972,-0.00010712975081346432,0,0,0,0,0,0,0,1595,4,nuda,3
45,0.7142857142857142,-49.76294,0.0,65.63853224948721,0,0.1893522982020834,0.1893514389387117,0.18966665854322867,-0.0003152194666303919,0,0,0,0,0,0,0,1596,4,nuda,3
46,0.7301587301587301,-49.86975,0.0,64.97409158098208,0,0.18915353206039198,0.1891549931634173,0.18967141260560952,-0.0005164193040384719,0,0,0,0,0,0,0,1597,4,nuda,3
47,0.746031746031746,-49.58429,0.0,64.32158888618235,0,0.18896529144688565,0.1889700814233761,0.18967616558375425,-0.0007060840219587609,0,0,0,0,0,0,0,1598,4,nuda,3
48,0.7619047619047619,-48.43207,0.0,63.68161081455267,0,0.1887916543327683,0.18880114167875583,0.1896809174595684,-0.000879775642129095,0,0,0,0,0,0,0,1599,4,nuda,3
49,0.7777777777777777,-45.89923,0.0,63.05468417485064,0,0.18863669868924368,0.18865226400361326,0.18968566821455216,-0.0010334040719928534,0,0,0,0,0,0,0,1600,4,nuda,3
50,0.7936507936507936,-41.69116,0.0,62.44128062441281,0,0.18850450248751568,0.18852706327238578,0.18969041782970075,-0.001163354418107898,0,0,0,0,0,1,0,1601,4,nuda,3
51,0.8095238095238095,-35.7204,0.0,61.841821218730516,0,0.18839914369878805,0.18842857048714343,0.1896951662854162,-0.0012665956588061445,0,0,0,0,0,0,0,1602,4,nuda,3
52,0.8253968253968254,-28.09583,0.0,61.25668080675048,0,0.18832470029426462,0.1883591474353275,0.18969991356143276,-0.001340765986380742,0,0,0,0,0,0,0,1603,4,nuda,3
53,0.8412698412698412,-19.09735,0.0,60.68619226172381,0,0.18828524893543827,0.1883204283916453,0.1897046596367578,-0.001384231105131673,0,0,0,0,0,0,0,1604,4,nuda,3
54,0.8571428571428571,-9.174622,0.0,60.13065054125937,0,0.18828330057301154,0.18831329124631105,0.18970940448962909,-0.0013961131030825354,1,0,0,0,0,0,0,1605,4,nuda,3
55,0.873015873015873,1.043274,0.0,59.5903165735568,0,0.18831676656552374,0.1883378587974791,0.18971414809748982,-0.001376289159522169,0,0,0,0,0,0,0,1606,4,nuda,3
56,0.8888888888888888,10.87781,0.0,59.06542096964639,0,0.18838271793592568,0.18839352911399512,0.1897188904369818,-0.0013253611822467602,0,0,0,0,0,0,0,1607,4,nuda,3
57,0.9047619047619047,19.62341,0.6111488339572118,58.55616756389536,0,0.18847822570716818,0.1884790320534844,0.18972363148395677,-0.001244599289482696,0,0,0,0,0,0,0,1608,4,nuda,3
58,0.9206349206349206,26.8111,7.984812422374938,58.06273678709845,0,0.18860036090220209,0.1885925074328317,0.1897283712135055,-0.0011358636394360757,0,0,0,0,0,0,0,1609,4,nuda,3
59,0.9365079365079365,32.27515,13.816470645651842,57.58528887820125,0,0.18874619454397812,0.18873159917687884,0.18973310960000428,-0.0010015102816414143,0,0,0,0,0,0,0,1610,4,nuda,3
60,0.9523809523809523,36.23145,18.291148847434513,57.123966942148755,0,0.18891279765544713,0.18889355911884828,0.18973784661717738,-0.0008442873566004837,0,0,0,0,0,0,0,1611,4,nuda,3
61,0.9682539682539681,39.16376,21.778660992642507,56.67889986255367,0,0.18909724125955996,0.18907535400802555,0.18974258223817422,-0.0006672280881771869,0,0,0,0,0,0,0,1612,4,nuda,3
62,0.9841269841269841,41.61133,24.690727291197298,56.250205078872675,0,0.1892965963792673,0.18927376964522682,0.18974731643565967,-0.00047354664822030066,0,0,0,0,0,0,0,1613,4,nuda,3
63,1.0,43.94318,27.345569804367187,55.83799123860556,0,0.18950793403752,0.1894855068229074,0.1897520491819161,-0.0002665422165568977,0,0,0,0,0,0,0,1614,4,nuda,3
0,0.0,-51.77679,0.0,84.41723089178915,0,0.19514492752900323,0.19510988197054246,0.19554552114047022,-0.0003998136393492083,0,0,0,0,0,0,0,5434,6,nuda,5
1,0.015873015873015872,-59.98102,0.0,84.36399821495368,0,0.1954517411741523,0.1954052104232603,0.19554796053925225,-0.00010709621477428006,0,0,0,0,0,0,0,5435,6,nuda,5
2,0.031746031746031744,-69.05481,0.0,84.31054383315491,0,0.19571742927393243,0.19566130927517142,0.19555040718299202,0.00014638230634250217,0,0,0,0,0,0,0,5436,6,nuda,5
3,0.047619047619047616,-78.12662,0.0,84.25698389895165,0,0.1959344908797495,0.19587440409338125,0.1955528610554406,0.00035684749722088803,0,0,0,0,0,0,0,5437,6,nuda,5
4,0.06349206349206349,-85.82626,0.0,84.20343397963407,0,0.1960964415178023,0.19604207665158685,0.19555532214040103,0.0005218811375997629,0,0,0,0,0,0,0,5438,6,nuda,5
5,0.07936507936507936,-90.45834,0.0,84.15000905683983,0,0.19620449994531908,0.19616329095497798,0.1955577904218499,0.0006404472385167011,0,0,0,0,0,0,0,5439,6,nuda,5
6,0.09523809523809523,-90.39682,0.0,84.09682352932333,0,0.19626341364965116,0.19623836444484544,0.19556026588403297,0.0007128632468206941,0,0,0,0,0,0,0,5440,6,nuda,5
7,0.1111111111111111,-84.53024,0.0,84.04399121883648,0,0.19627794846101018,0.19626888769867154,0.1955627485115342,0.0007407197451937447,0,0,0,0,0,0,0,5441,6,nuda,5
8,0.12698412698412698,-72.64215,0.0,83.99162537907957,0,0.19625287020960766,0.19625759880732263,0.19556523828931843,0.0007267548293009234,0,0,0,0,0,0,0,5442,6,nuda,5
9,0.14285714285714285,-55.59772,0.0,83.93983870768191,0,0.19619294472565524,0.19620822088714213,0.1955677352027483,0.0006746916198663938,0,0,0,0,0,0,0,5443,6,nuda,5
10,0.15873015873015872,-35.04837,0.0,83.88874336117358,0,0.19610293783936442,0.19612527267338256,0.1955702392375775,0.0005890488561124909,0,0,0,0,0,0,0,5444,6,nuda,5
11,0.1746031746031746,-13.01828,0.0,83.83845097291045,0,0.19598761538094686,0.19601386279503877,0.19557275037992175,0.000474935170621962,0,0,0,0,0,0,0,5445,6,nuda,5
12,0.19047619047619047,8.568634,0.0,83.7890726739174,0,0.19585174318061407,0.1958794782240814,0.19557526861621083,0.00033783753861937643,0,0,0,0,0,0,0,5446,6,nuda,5
13,0.20634920634920634,28.22867,9.507198020322368,83.74071911661645,0,0.19570008706857772,0.1957277766715019,0.19557779393312394,0.0001834136740812691,0,0,0,0,0,0,0,5447,6,nuda,5
14,0.2222222222222222,45.03336,25.736088710498123,83.69350050140913,0,0.19553741287504933,0.195564391542566,0.19558032631751193,1.7296985067149302e-05,0,0,0,0,0,0,0,5448,6,nuda,5
15,0.23809523809523808,58.51135,38.438565970569,83.64752660608542,0,0.19536848643024063,0.19539475663023465,0.19558286575630937,-0.00015507873277121025,0,0,0,0,0,0,0,5449,6,nuda,5
16,0.25396825396825395,68.48865,47.43402918616581,83.60290681803471,0,0.1951980735643629,0.1952239561538466,0.1955854122364397,-0.00032862925741256385,0,0,0,0,0,0,0,5450,6,nuda,5
17,0.2698412698412698,75.03339,52.914909736193614,83.55975016923766,0,0.1950309401076279,0.19505660413287948,0.1955879657447167,-0.0004987405666063158,0,0,0,0,0,0,0,5451,6,nuda,5
18,0.2857142857142857,78.43665,55.35515463237551,83.51816537402141,0,0.19487185189024714,0.1948967554742678,0.19559052626774542,-0.0006613577504551763,0,0,0,0,0,0,0,5452,6,nuda,5
19,0.30158730158730157,79.25977,55.41286238040737,83.47826086956522,1,0.1947255747424323,0.1947478495665317,0.1955930937918244,-0.0008130414171887629,0,0,0,0,0,0,0,5453,6,nuda,5
20,0.31746031746031744,78.24442,53.815634683787565,83.43987018367035,0,0.19459650746843177,0.19461268562302678,0.19559566830285263,-0.0009509923498205776,0,0,0,0,0,0,0,5454,6,nuda,5
21,0.3333333333333333,76.22214,51.22913172840287,83.40269934190287,0,0.19448588875509992,0.19449342752104437,0.1955982497862423,-0.0010730466669600348,0,0,0,0,0,0,0,5455,6,nuda,5
22,0.3492063492063492,73.83484,48.136069041855016,83.36666564111445,0,0.19439334461883429,0.1943916345001877,0.1956008382268394,-0.001177645124357276,0,0,0,0,0,0,0,5456,6,nuda,5
23,0.36507936507936506,71.40314,44.771285141425025,83.3316867532322,0,0.19431848817354022,0.19430831291165243,0.19560343360885363,-0.0012637813655520004,0,0,0,0,0,0,0,5457,6,nuda,5
24,0.38095238095238093,68.86688,41.149276141695005,83.29768070350408,0,0.194260932533123,0.19424398336985263,0.1956060359157978,-0.0013309347701870502,0,0,0,0,0,0,0,5458,6,nuda,5
25,0.3968253968253968,65.96021,37.18245252585259,83.26456585042955,0,0.19422029081148792,0.19419875724891544,0.19560864513043832,-0.0013789939574639161,0,0,0,0,0,0,0,5459,6,nuda,5
26,0.4126984126984127,62.46326,32.8404184369571,83.23226086735441,0,0.19419617612254042,0.1941724165326378,0.19561126123475625,-0.001408176936147098,0,0,0,0,0,0,0,5460,6,nuda,5
27,0.42857142857142855,58.41528,28.271362856555157,83.20068472571019,0,0.19418820158018568,0.19416449154480617,0.19561388420991968,-0.001418953374216474,1,0,0,0,0,0,0,5461,6,nuda,5
28,0.4444444444444444,54.23203,23.816951258998795,83.16975667987919,0,0.19419598029832907,0.19417433197990303,0.1956165140362666,-0.0014119735681435057,0,0,0,0,0,0,0,5462,6,nuda,5
29,0.4603174603174603,50.53833,19.901525220967773,83.13939625366898,0,0.1942191253908759,0.19420116781058558,0.19561915069329852,-0.001388007535406271,0,0,0,0,0,0,0,5463,6,nuda,5
30,0.47619047619047616,47.86914,16.841593311091916,83.10952322838004,0,0.1942572499717315,0.1942441579416452,0.1956217941596846,-0.0013478963605338117,0,0,0,0,0,0,0,5464,6,nuda,5
31,0.49206349206349204,46.37656,14.667824981325484,83.08005763245231,0,0.19430996715480112,0.19430242578495174,0.19562444441327534,-0.0012925166201755696,0,0,0,0,0,0,0,5465,6,nuda,5
32,0.5079365079365079,45.66431,13.052415281664766,83.05091973267643,0,0.19437689005399014,0.1943750821328603,0.19562710143112594,-0.001222757509717411,0,0,0,0,0,0,0,5466,6,nuda,5
33,0.5238095238095237,44.89487,11.387186689459872,83.02203002695714,0,0.19445763178320385,0.19446123671551238,0.19562976518952807,-0.0011395092860126523,0,0,0,0,0,0,0,5467,6,nuda,5
34,0.5396825396825397,43.18701,8.986238584437478,82.99330923861623,0,0.19455180545634754,0.1945600005723087,0.19563243566405042,-0.001043660895949264,0,0,0,0,0,0,0,5468,6,nuda,5
35,0.5555555555555556,39.93661,5.328840329728065,82.96467831222343,0,0.19465902418732656,0.1946704818094663,0.19563511282958684,-0.0009361042189410502,0,0,0,0,0,0,0,5469,6,nuda,5
36,0.5714285714285714,35.02884,0.24242806862037572,82.93605841094393,0,0.19477884225126066,0.19479177744328283,0.19563779666041198,-0.0008177422237186499,0,0,0,0,0,0,0,5470,6,nuda,5
37,0.5873015873015872,28.83142,0.0,82.9073709153912,0,0.19491023589104012,0.1949229638615516,0.1956404871302435,-0.0006894985069765245,0,0,0,0,0,0,0,5471,6,nuda,5
38,0.6031746031746031,22.00711,0.0,82.87853742397455,0,0.195051853264487,0.19506308802105346,0.19564318421231078,-0.0005523260959498812,0,0,0,0,0,0,0,5472,6,nuda,5
39,0.6190476190476191,15.23615,0.0,82.84947975473055,0,0.19520233876374096,0.19521116090849605,0.1956458878794292,-0.00040721398754915835,0,0,0,0,0,0,0,5473,6,nuda,5
40,0.6349206349206349,9.083801,0.0,82.82011994862694,0,0.19536033678094175,0.1953661541107735,0.1956485981040796,-0.0002551905781801621,0,0,0,0,0,0,0,5474,6,nuda,5
41,0.6507936507936507,3.825165,0.0,82.79038027432861,0,0.19552449170822894,0.19552699965348128,0.1956513148584925,-9.732382531277511e-05,0,0,0,0,0,0,0,5475,6,nuda,5
42,0.6666666666666666,-0.5541382,0.0,82.76018323441377,0,0.1956934479377425,0.19569259264840055,0.195654038114736,6.528139991523985e-05,0,0,0,0,0,0,0,5476,6,nuda,5
43,0.6825396825396826,-4.383636,0.0,82.7294515730285,0,0.19586584986162206,0.1958617957976788,0.1956567678448075,0.00023148781678752938,0,0,0,0,0,0,0,5477,6,nuda,5
44,0.6984126984126984,-8.179321,0.0,82.69810828496759,0,0.19604034187200733,0.19603344447244547,0.19565950402072776,0.0004001308135308083,0,0,0,0,0,0,0,5478,6,nuda,5
45,0.7142857142857142,-12.49158,0.0,82.6660766261685,0,0.19621556836103804,0.19620635093706285,0.1956622466146373,0.0005700226714695227,0,0,0,0,0,0,0,5479,6,nuda,5
46,0.7301587301587301,-17.68939,0.0,82.63328012560467,0,0.19639017372085382,0.19637930633228468,0.19566499559889408,0.0007399545480869171,0,0,0,0,0,0,0,5480,6,nuda,5
47,0.746031746031746,-23.71335,0.0,82.59964259856368,0,0.19656280234359452,0.19655107925307408,0.19566775094617203,0.0009086950547445617,0,0,0,0,0,0,0,5481,6,nuda,5
48,0.7619047619047619,-30.05939,0.0,82.56508816129464,0,0.1967320986213998,0.19672041013981728,0.19567051262955948,0.0010749846477979103,0,0,0,0,0,0,0,5482,6,nuda,5
49,0.7777777777777777,-35.84058,0.0,82.52954124700834,0,0.1968967069464093,0.1968860012151076,0.19567328062265693,0.0012375255652826028,0,0,0,0,0,0,0,5483,6,nuda,5
50,0.7936507936507936,-40.13037,0.0,82.4929266232123,0,0.1970552717107629,0.1970465023033965,0.19567605489967332,0.0013949676464693529,0,0,0,0,0,0,0,5484,6,nuda,5
51,0.8095238095238095,-42.16364,0.0,82.45516941036163,0,0.1972064373066002,0.19720049352174154,0.19567883543552023,0.0015458910225180412,0,0,0,0,0,0,0,5485,6,nuda,5
52,0.8253968253968254,-41.50821,0.0,82.41619510180571,0,0.1973488334710513,0.1973464664755792,0.195681622205903,0.001688787312159309,0,0,0,0,0,0,0,5486,6,nuda,5
53,0.8412698412698412,-37.89609,0.0,82.37592958500846,0,0.19748092482047366,0.1974828061801565,0.19568441518740817,0.0018220415430391561,0,0,0,0,0,0,0,5487,6,nuda,5
54,0.8571428571428571,-31.16092,0.0,82.33429916401926,0,0.19760107187988313,0.1976077764023874,0.19568721435758618,0.001943917493492815,0,0,0,0,0,0,0,5488,6,nuda,5
55,0.873015873015873,-21.15216,0.0,82.2912305831695,0,0.19770763354576415,0.19771951142884323,0.1956900196950282,0.002052549460458345,0,0,0,0,0,0,0,5489,6,nuda,5
56,0.8888888888888888,-7.821899,0.0,82.24665105196823,0,0.19779896871460126,0.19781601736785023,0.19569283117943667,0.002145943561503794,0,0,0,0,0,0,0,5490,6,nuda,5
57,0.9047619047619047,8.630188,0.0,82.20048827116865,0,0.19787343628287907,0.19789518594879557,0.19569564879168797,0.002221991534070949,0,0,0,0,0,0,0,5491,6,nuda,5
58,0.9206349206349206,27.70929,0.0,82.1526704599753,0,0.19792939514708202,0.1979548233612104,0.1956984725138862,0.002278499574504646,0,0,0,0,0,0,0,5492,6,nuda,5
59,0.9365079365079365,48.68585,19.829635113075103,82.10312638435985,0,0.19796520420369468,0.1979926959660975,0.1957013023294068,0.002313234049336857,0,0,0,0,0,0,0,5493,6,nuda,5
60,0.9523809523809523,70.56931,42.84250148451492,82.05178538645193,0,0.19797922234920157,0.1980065937189598,0.19570413822292898,0.0023239849182831217,0,1,0,0,0,0,0,5494,6,nuda,5
61,0.9682539682539681,92.17166,65.50736867731423,81.99857741496854,0,0.1979698084800873,0.19799441090100953,0.1957069801804554,0.002308646465432238,0,0,0,0,0,0,0,5495,6,nuda,5
62,0.9841269841269841,112.0808,86.29686288623334,81.94343305664475,0,0.19793532149283627,0.19795424232544936,0.19570982818931795,0.0022653135055216234,0,0,0,0,0,0,0,5496,6,nuda,5
63,1.0,128.8071,103.72673167091428,81.88628356862512,0,0.19787412028393309,0.1978844916646283,0.19571268223816857,0.0021923897111027473,0,0,0,0,0,0,0,5497,6,nuda,5
