timestamp,value,norm_ts
1619090429.08887,-13.69984,5.1617701053619385
1619090429.10449,-16.53616,5.177390098571777
1619090429.12012,-19.03872,5.1930201053619385
1619090429.13575,-21.49344,5.2086501121521
1619090429.15137,-24.26105,5.2242701053619385
1619090429.167,-27.57262,5.2399001121521
1619090429.18262,-31.30398,5.2555201053619385
1619090429.19825,-34.9202,5.2711501121521
1619090429.21388,-37.55896,5.286780118942261
1619090429.2295,-38.3494,5.3024001121521
1619090429.24513,-36.69617,5.318030118942261
1619090429.26075,-32.55933,5.3336501121521
1619090429.27638,-26.42243,5.349280118942261
1619090429.292,-19.09652,5.3649001121521
1619090429.30763,-11.4437,5.380530118942261
1619090429.32326,-4.160149,5.396160125732422
1619090429.33888,2.326912,5.411780118942261
1619090429.35451,7.8321,5.427410125732422
1619090429.37013,12.33641,5.443030118942261
1619090429.38576,15.92854,5.458660125732422
1619090429.40138,18.72842,5.474280118942261
1619090429.41701,20.8451,5.489910125732422
1619090429.43264,22.31693,5.505540132522583
1619090429.44826,23.14476,5.521160125732422
1619090429.46389,23.32746,5.536790132522583
1619090429.47951,22.95155,5.552410125732422
1619090429.49514,22.19061,5.568040132522583
1619090429.51076,21.23413,5.583660125732422
1619090429.52639,20.22591,5.599290132522583
1619090429.54202,19.17502,5.614920139312744
1619090429.55764,18.00929,5.630540132522583
1619090429.57327,16.73115,5.646170139312744
1619090429.58889,15.49332,5.661790132522583
1619090429.60452,14.56772,5.677420139312744
1619090429.62014,14.18983,5.693040132522583
1619090429.63577,14.35598,5.708670139312744
1619090429.6514,14.74557,5.724300146102905
1619090429.66702,14.81916,5.739920139312744
1619090429.68265,14.07554,5.755550146102905
1619090429.69827,12.25143,5.771170139312744
1619090429.7139,9.466011,5.786800146102905
1619090429.72952,6.113602,5.802420139312744
1619090429.74515,2.710732,5.818050146102905
1619090429.76078,-0.3169861,5.833680152893066
1619090429.7764,-2.749489,5.849300146102905
1619090429.79203,-4.62101,5.864930152893066
1619090429.80765,-6.169998,5.880550146102905
1619090429.82328,-7.801491,5.896180152893066
1619090429.8389,-9.982407,5.911800146102905
1619090429.85453,-13.08357,5.927430152893066
1619090429.87016,-17.1954,5.9430601596832275
1619090429.88578,-22.00219,5.958680152893066
1619090429.90141,-26.75031,5.9743101596832275
1619090429.91703,-30.46215,5.989930152893066
1619090429.93266,-32.25616,6.0055601596832275
1619090429.94828,-31.62806,6.021180152893066
1619090429.96391,-28.64254,6.0368101596832275
1619090429.97954,-23.8376,6.052440166473389
1619090429.99516,-17.99081,6.0680601596832275
1619090430.01079,-11.86314,6.083690166473389
1619090430.02641,-5.979118,6.0993101596832275
1619090430.04204,-0.5968399,6.114940166473389
1619090430.05766,4.184532,6.1305601596832275
1619090430.07329,8.344444,6.146190166473389
1619090430.08892,11.85706,6.16182017326355
1619090430.10454,14.6717,6.177440166473389
1619090430.12017,16.74734,6.19307017326355
1619090430.13579,18.06342,6.208690166473389
1619090430.15142,18.62447,6.22432017326355
1619090430.16704,18.43157,6.239940166473389
1619090430.18267,17.56534,6.25557017326355
1619090430.1983,16.20023,6.271199941635132
1619090430.21392,14.61289,6.28682017326355
1619090430.22955,13.10466,6.302449941635132
1619090430.24517,11.91463,6.31807017326355
1619090430.2608,11.09083,6.333699941635132
1619090430.27642,10.51408,6.34932017326355
1619090430.29205,9.969872,6.364949941635132
1619090430.30768,9.24353,6.380579948425293
1619090430.3233,8.237198,6.396199941635132
1619090430.33893,6.987724,6.411829948425293
1619090430.35455,5.592781,6.427449941635132
1619090430.37018,4.151283,6.443079948425293
1619090430.3858,2.693886,6.458699941635132
1619090430.40143,1.171074,6.474329948425293
1619090430.41706,-0.5010223,6.489959955215454
1619090430.43268,-2.390167,6.505579948425293
1619090430.44831,-4.513924,6.521209955215454
1619090430.46393,-6.826965,6.536829948425293
1619090430.47956,-9.288635,6.552459955215454
1619090430.49518,-11.91724,6.568079948425293
1619090430.51081,-14.79565,6.583709955215454
1619090430.52644,-18.0433,6.599339962005615
1619090430.54206,-21.69801,6.614959955215454
1619090430.55769,-25.61496,6.630589962005615
1619090430.57331,-29.38669,6.646209955215454
1619090430.58894,-32.40135,6.661839962005615
1619090430.60456,-34.0019,6.677459955215454
1619090430.62019,-33.71828,6.693089962005615
1619090430.63582,-31.3819,6.708719968795776
1619090430.65144,-27.20373,6.724339962005615
1619090430.66707,-21.70717,6.739969968795776
1619090430.68269,-15.551,6.755589962005615
1619090430.69832,-9.345169,6.771219968795776
1619090430.71394,-3.54306,6.786839962005615
1619090430.72957,1.637512,6.802469968795776
1619090430.7452,6.165558,6.8180999755859375
1619090430.76082,10.07799,6.833719968795776
1619090430.77645,13.41897,6.8493499755859375
1619090430.79207,16.19053,6.864969968795776
1619090430.8077,18.30611,6.8805999755859375
1619090430.82332,19.69302,6.896219968795776
1619090430.83895,20.32292,6.9118499755859375
1619090430.85458,20.26621,6.927479982376099
1619090430.8702,19.69251,6.9430999755859375
1619090430.88583,18.79462,6.958729982376099
1619090430.90145,17.73822,6.9743499755859375
1619090430.91708,16.64923,6.989979982376099
1619090430.9327,15.61521,7.0055999755859375
1619090430.94833,14.67085,7.021229982376099
1619090430.96396,13.84242,7.03685998916626
1619090430.97958,13.11357,7.052479982376099
1619090430.99521,12.3977,7.06810998916626
1619090431.01083,11.57084,7.083729982376099
1619090431.02646,10.4912,7.09935998916626
1619090431.04208,9.062279,7.114979982376099
1619090431.05771,7.265457,7.13060998916626
1619090431.07334,5.15107,7.146239995956421
1619090431.08896,2.788437,7.16185998916626
1619090431.10459,0.2683334,7.177489995956421
1619090431.12021,-2.338936,7.19310998916626
1619090431.13584,-4.970261,7.208739995956421
1619090431.15146,-7.536797,7.22435998916626
1619090431.16709,-9.997086,7.239989995956421
1619090431.18272,-12.40282,7.255620002746582
1619090431.19834,-14.94804,7.271239995956421
1619090431.21397,-17.92999,7.286870002746582
1619090431.22959,-21.51942,7.302489995956421
1619090431.24522,-25.53728,7.318120002746582
1619090431.26084,-29.36661,7.333739995956421
1619090431.27647,-32.09222,7.349370002746582
1619090431.2921,-32.814,7.365000009536743
1619090431.30772,-31.07752,7.380620002746582
1619090431.32335,-27.05927,7.396250009536743
1619090431.33897,-21.4741,7.411870002746582
1619090431.3546,-15.25002,7.427500009536743
1619090431.37022,-9.098167,7.443120002746582
1619090431.38585,-3.368561,7.458750009536743
1619090431.40148,1.920258,7.474380016326904
1619090431.4171,6.849518,7.490000009536743
1619090431.43273,11.36933,7.505630016326904
1619090431.44835,15.2728,7.521250009536743
1619090431.46398,18.31062,7.536880016326904
1619090431.4796,20.40494,7.552500009536743
1619090431.49523,21.70676,7.568130016326904
1619090431.51086,22.51334,7.583760023117065
1619090431.52648,23.07375,7.599380016326904
1619090431.54211,23.423,7.615010023117065
1619090431.55773,23.39745,7.630630016326904
1619090431.57336,22.78037,7.646260023117065
1619090431.58898,21.46999,7.661880016326904
1619090431.60461,19.62526,7.677510023117065
1619090431.62024,17.62229,7.693140029907227
1619090431.63586,15.8773,7.708760023117065
1619090431.65149,14.6768,7.724390029907227
1619090431.66711,14.03115,7.740010023117065
1619090431.68274,13.69887,7.755640029907227
1619090431.69836,13.30314,7.771260023117065
1619090431.71399,12.49593,7.786890029907227
1619090431.72962,11.08698,7.802520036697388
1619090431.74524,9.083504,7.818140029907227
1619090431.76087,6.615471,7.833770036697388
1619090431.77649,3.860374,7.849390029907227
1619090431.79212,0.9732285,7.865020036697388
1619090431.80775,-1.948532,7.880650043487549
1619090431.82337,-4.863617,7.896270036697388
1619090431.839,-7.741386,7.911900043487549
1619090431.85462,-10.62446,7.927520036697388
1619090431.87025,-13.5915,7.943150043487549
1619090431.88587,-16.80637,7.958770036697388
1619090431.9015,-20.41271,7.974400043487549
1619090431.91713,-24.38017,7.99003005027771
1619090431.93275,-28.39447,8.005650043487549
1619090431.94838,-31.80511,8.02128005027771
1619090431.964,-33.81123,8.036900043487549
1619090431.97963,-33.73115,8.05253005027771
1619090431.99525,-31.28951,8.068150043487549
1619090432.01088,-26.68504,8.08378005027771
1619090432.02651,-20.50816,8.099410057067871
1619090432.04213,-13.5322,8.11503005027771
1619090432.05776,-6.480095,8.130660057067871
1619090432.07338,0.1244125,8.14628005027771
1619090432.08901,5.92601,8.161910057067871
1619090432.10463,10.73308,8.17753005027771
1619090432.12026,14.51315,8.193160057067871
1619090432.13589,17.35963,8.208790063858032
1619090432.15151,19.48408,8.224410057067871
1619090432.16714,21.13563,8.240040063858032
1619090432.18276,22.48281,8.255660057067871
1619090432.19839,23.53544,8.271290063858032
1619090432.21401,24.12354,8.286910057067871
1619090432.22964,24.02417,8.302540063858032
1619090432.24527,23.10255,8.318170070648193
1619090432.26089,21.42645,8.333790063858032
1619090432.27652,19.24118,8.349420070648193
1619090432.29214,16.90356,8.365040063858032
1619090432.30777,14.74316,8.380670070648193
1619090432.32339,12.9695,8.396290063858032
1619090432.33902,11.64797,8.411920070648193
1619090432.35465,10.67365,8.427550077438354
1619090432.37027,9.84642,8.443170070648193
1619090432.3859,8.908737,8.458800077438354
1619090432.40152,7.651001,8.474420070648193
1619090432.41715,5.934891,8.490050077438354
1619090432.43277,3.737755,8.505670070648193
1619090432.4484,1.114204,8.521300077438354
1619090432.46403,-1.790619,8.536930084228516
1619090432.47965,-4.772873,8.552550077438354
1619090432.49528,-7.698524,8.568180084228516
1619090432.5109,-10.49785,8.583800077438354
1619090432.52653,-13.23437,8.599430084228516
1619090432.54215,-16.04725,8.615050077438354
1619090432.55778,-19.13411,8.630680084228516
1619090432.57341,-22.59171,8.646310091018677
1619090432.58903,-26.38216,8.661930084228516
1619090432.60466,-30.28521,8.677560091018677
1619090432.62028,-33.94732,8.693180084228516
1619090432.63591,-36.94686,8.708810091018677
1619090432.65153,-38.88174,8.724430084228516
1619090432.66716,-39.44786,8.740060091018677
1619090432.68279,-38.45525,8.755690097808838
1619090432.69841,-35.85917,8.771310091018677
1619090432.71404,-31.74284,8.786940097808838
1619090432.72966,-26.36336,8.802560091018677
1619090432.74529,-20.09032,8.818190097808838
1619090432.76091,-13.35258,8.833810091018677
1619090432.77654,-6.580559,8.849440097808838
1619090432.79217,-0.140358,8.865070104598999
1619090432.80779,5.714111,8.880690097808838
1619090432.82342,10.83064,8.896320104598999
1619090432.83904,15.14388,8.911940097808838
1619090432.85467,18.64413,8.927570104598999
1619090432.87029,21.33854,8.943190097808838
1619090432.88592,23.23176,8.958820104598999
1619090432.90155,24.29465,8.97445011138916
1619090432.91717,24.5261,8.990070104598999
1619090432.9328,24.03706,9.00570011138916
1619090432.94842,23.0618,9.021320104598999
1619090432.96405,21.92467,9.03695011138916
1619090432.97967,20.9289,9.052570104598999
1619090432.9953,20.22135,9.06820011138916
1619090433.01093,19.76927,9.083830118179321
1619090433.02655,19.35874,9.09945011138916
1619090433.04218,18.77435,9.115080118179321
1619090433.0578,17.91433,9.13070011138916
1619090433.07343,16.83549,9.146330118179321
1619090433.08905,15.66587,9.16195011138916
1619090433.10468,14.53911,9.177580118179321
1619090433.12031,13.45861,9.193210124969482
1619090433.13593,12.34559,9.208830118179321
1619090433.15156,11.08526,9.224460124969482
1619090433.16718,9.59259,9.240080118179321
1619090433.18281,7.841751,9.255710124969482
1619090433.19843,5.822769,9.271330118179321
1619090433.21406,3.519218,9.286960124969482
1619090433.22969,0.9165726,9.302590131759644
1619090433.24531,-1.941933,9.318210124969482
1619090433.26094,-4.909706,9.333840131759644
1619090433.27656,-7.781548,9.349460124969482
1619090433.29219,-10.37309,9.365090131759644
1619090433.30781,-12.62621,9.380710124969482
1619090433.32344,-14.67254,9.396340131759644
1619090433.33907,-16.79764,9.411970138549805
1619090433.35469,-19.33854,9.427590131759644
1619090433.37032,-22.49966,9.443220138549805
1619090433.38594,-26.24213,9.458840131759644
1619090433.40157,-30.17613,9.474470138549805
1619090433.41719,-33.69151,9.490090131759644
1619090433.43282,-36.07529,9.505720138549805
1619090433.44845,-36.71666,9.521350145339966
1619090433.46407,-35.24931,9.536970138549805
1619090433.4797,-31.61676,9.552600145339966
1619090433.49532,-26.05365,9.568220138549805
1619090433.51095,-19.05396,9.583850145339966
1619090433.52657,-11.30144,9.599470138549805
1619090433.5422,-3.591736,9.615100145339966
1619090433.55783,3.305573,9.630730152130127
1619090433.57345,8.832787,9.646350145339966
1619090433.58908,12.77354,9.661980152130127
1619090433.6047,15.29794,9.677600145339966
1619090433.62033,16.87399,9.693230152130127
1619090433.63595,18.02419,9.708850145339966
1619090433.65158,19.12842,9.724480152130127
1619090433.66721,20.30264,9.740110158920288
1619090433.68283,21.4796,9.755730152130127
1619090433.69846,22.50489,9.771360158920288
1619090433.71408,23.25383,9.786980152130127
1619090433.72971,23.65732,9.802610158920288
1619090433.74533,23.69916,9.818230152130127
1619090433.76096,23.37418,9.833860158920288
1619090433.77659,22.69984,9.84949016571045
1619090433.79221,21.77383,9.865110158920288
1619090433.80784,20.7527,9.88074016571045
1619090433.82346,19.82753,9.896360158920288
1619090433.83909,19.10954,9.91199016571045
1619090433.85471,18.58621,9.927610158920288
1619090433.87034,18.1066,9.94324016571045
1619090433.88597,17.41719,9.95887017250061
1619090433.90159,16.31583,9.97449016571045
1619090433.91722,14.6786,9.99012017250061
1619090433.93284,12.51498,10.00574016571045
1619090433.94847,9.940529,10.02137017250061
1619090433.96409,7.136765,10.03699016571045
1619090433.97972,4.28582,10.05262017250061
1619090433.99535,1.55249,10.068249940872192
1619090434.01097,-0.9703903,10.08387017250061
1619090434.0266,-3.26223,10.099499940872192
1619090434.04222,-5.374619,10.11512017250061
1619090434.05785,-7.393364,10.130749940872192
1619090434.07348,-9.418221,10.146379947662354
1619090434.0891,-11.53075,10.161999940872192
1619090434.10473,-13.87836,10.177629947662354
1619090434.12035,-16.61703,10.193249940872192
1619090434.13598,-19.86505,10.208879947662354
1619090434.1516,-23.60178,10.224499940872192
1619090434.16723,-27.57488,10.240129947662354
1619090434.18286,-31.23194,10.255759954452515
1619090434.19848,-33.84429,10.271379947662354
1619090434.21411,-34.70078,10.287009954452515
1619090434.22973,-33.37794,10.302629947662354
1619090434.24536,-29.86986,10.318259954452515
1619090434.26098,-24.61195,10.333879947662354
1619090434.27661,-18.33369,10.349509954452515
1619090434.29224,-11.81329,10.365139961242676
1619090434.30786,-5.683716,10.380759954452515
1619090434.32349,-0.3042755,10.396389961242676
1619090434.33911,4.202789,10.412009954452515
1619090434.35474,7.872139,10.427639961242676
1619090434.37036,10.81737,10.443259954452515
1619090434.38599,13.14607,10.458889961242676
1619090434.40162,14.96181,10.474519968032837
1619090434.41724,16.38326,10.490139961242676
1619090434.43287,17.4984,10.505769968032837
1619090434.44849,18.35961,10.521389961242676
1619090434.46412,18.96354,10.537019968032837
1619090434.47974,19.23487,10.552639961242676
1619090434.49537,19.08797,10.568269968032837
1619090434.511,18.4535,10.583899974822998
1619090434.52662,17.34858,10.599519968032837
1619090434.54225,15.89719,10.615149974822998
1619090434.55787,14.33025,10.630769968032837
1619090434.5735,12.91753,10.646399974822998
1619090434.58912,11.91442,10.662019968032837
1619090434.60475,11.41801,10.677649974822998
1619090434.62038,11.32156,10.69327998161316
1619090434.636,11.32477,10.708899974822998
1619090434.65163,11.03934,10.72452998161316
1619090434.66725,10.13718,10.740149974822998
1619090434.68288,8.446419,10.75577998161316
1619090434.6985,6.048218,10.771399974822998
1619090434.71413,3.219948,10.78702998161316
1619090434.72976,0.2991714,10.80265998840332
1619090434.74538,-2.414024,10.81827998161316
1619090434.76101,-4.774277,10.83390998840332
1619090434.77663,-6.780426,10.84952998161316
1619090434.79226,-8.536476,10.86515998840332
1619090434.80788,-10.20127,10.88077998161316
1619090434.82351,-11.92754,10.89640998840332
1619090434.83914,-13.88164,10.912039995193481
1619090434.85476,-16.2442,10.92765998840332
1619090434.87039,-19.18726,10.943289995193481
1619090434.88601,-22.76369,10.95890998840332
1619090434.90164,-26.83244,10.974539995193481
1619090434.91726,-30.89873,10.99015998840332
1619090434.93289,-34.23161,11.005789995193481
1619090434.94852,-35.95238,11.021420001983643
1619090434.96414,-35.37971,11.037039995193481
1619090434.97977,-32.30438,11.052670001983643
1619090434.99539,-27.06418,11.068289995193481
1619090435.01102,-20.47035,11.083920001983643
1619090435.02664,-13.47649,11.099539995193481
1619090435.04227,-6.86348,11.115170001983643
1619090435.0579,-1.003082,11.130800008773804
1619090435.07352,4.098572,11.146420001983643
1619090435.08915,8.635338,11.162050008773804
1619090435.10477,12.74354,11.177670001983643
1619090435.1204,16.3992,11.193300008773804
1619090435.13602,19.41844,11.208920001983643
1619090435.15165,21.62479,11.224550008773804
1619090435.16728,22.96518,11.240180015563965
1619090435.1829,23.53365,11.255800008773804
1619090435.19853,23.56083,11.271430015563965
1619090435.21415,23.29028,11.287050008773804
1619090435.22978,22.89146,11.302680015563965
1619090435.2454,22.45491,11.318300008773804
1619090435.26103,21.96887,11.333930015563965
1619090435.27666,21.37429,11.349560022354126
1619090435.29228,20.58869,11.365180015563965
1619090435.30791,19.53968,11.380810022354126
1619090435.32353,18.24298,11.396430015563965
1619090435.33916,16.7959,11.412060022354126
1619090435.35478,15.39447,11.427680015563965
1619090435.37041,14.20866,11.443310022354126
1619090435.38604,13.28665,11.458940029144287
1619090435.40166,12.45536,11.474560022354126
1619090435.41729,11.38825,11.490190029144287
1619090435.43291,9.703758,11.505810022354126
1619090435.44854,7.182816,11.521440029144287
1619090435.46416,3.908958,11.537060022354126
1619090435.47979,0.2276993,11.552690029144287
1619090435.49542,-3.382408,11.568320035934448
1619090435.51104,-6.533012,11.583940029144287
1619090435.52667,-9.049133,11.599570035934448
1619090435.54229,-11.01826,11.615190029144287
1619090435.55792,-12.72772,11.630820035934448
1619090435.57354,-14.55956,11.646440029144287
1619090435.58917,-16.86745,11.662070035934448
1619090435.6048,-19.90692,11.67770004272461
1619090435.62042,-23.69735,11.693320035934448
1619090435.63605,-27.9401,11.70895004272461
1619090435.65167,-31.98161,11.724570035934448
1619090435.6673,-34.92159,11.74020004272461
1619090435.68292,-35.88157,11.755820035934448
1619090435.69855,-34.30338,11.77145004272461
1619090435.71418,-30.18676,11.78708004951477
1619090435.7298,-24.11253,11.80270004272461
1619090435.74543,-17.05154,11.81833004951477
1619090435.76105,-9.996269,11.83395004272461
1619090435.77668,-3.633781,11.84958004951477
1619090435.7923,1.787872,11.86520004272461
1619090435.80793,6.362526,11.88083004951477
1619090435.82356,10.33669,11.896460056304932
1619090435.83918,13.84869,11.91208004951477
1619090435.85481,16.9152,11.927710056304932
1619090435.87043,19.46589,11.94333004951477
1619090435.88606,21.43345,11.958960056304932
1619090435.90168,22.82172,11.97458004951477
1619090435.91731,23.68755,11.990210056304932
1619090435.93294,24.10261,12.005840063095093
1619090435.94856,24.12894,12.021460056304932
1619090435.96419,23.81466,12.037090063095093
1619090435.97981,23.21527,12.052710056304932
1619090435.99544,22.40604,12.068340063095093
1619090436.01106,21.45809,12.083960056304932
1619090436.02669,20.39291,12.099590063095093
1619090436.04232,19.22425,12.115220069885254
1619090436.05794,17.96976,12.130840063095093
1619090436.07357,16.70218,12.146470069885254
1619090436.08919,15.55202,12.162090063095093
1619090436.10482,14.617,12.177720069885254
1619090436.12044,13.87892,12.193340063095093
1619090436.13607,13.18524,12.208970069885254
1619090436.1517,12.30656,12.224600076675415
1619090436.16732,11.07601,12.240220069885254
1619090436.18295,9.484177,12.255850076675415
1619090436.19857,7.702881,12.271470069885254
1619090436.2142,5.972275,12.287100076675415
1619090436.22983,4.474167,12.302730083465576
1619090436.24545,3.191299,12.318350076675415
1619090436.26108,1.888504,12.333980083465576
1619090436.2767,0.2209396,12.349600076675415
1619090436.29233,-2.111786,12.365230083465576
1619090436.30795,-5.207634,12.380850076675415
1619090436.32358,-8.867699,12.396480083465576
1619090436.33921,-12.69772,12.412110090255737
1619090436.35483,-16.21748,12.427730083465576
1619090436.37046,-19.0993,12.443360090255737
1619090436.38608,-21.29014,12.458980083465576
1619090436.40171,-23.02105,12.474610090255737
1619090436.41733,-24.6707,12.490230083465576
1619090436.43296,-26.63463,12.505860090255737
1619090436.44859,-29.18073,12.521490097045898
1619090436.46421,-32.37608,12.537110090255737
1619090436.47984,-36.05116,12.552740097045898
1619090436.49546,-39.80073,12.568360090255737
1619090436.51109,-43.00735,12.583990097045898
1619090436.52671,-44.95396,12.599610090255737
1619090436.54234,-44.96631,12.615240097045898
1619090436.55797,-42.65446,12.63087010383606
1619090436.57359,-38.07997,12.646490097045898
1619090436.58922,-31.77818,12.66212010383606
1619090436.60484,-24.61127,12.677740097045898
1619090436.62047,-17.45963,12.69337010383606
1619090436.63609,-10.9796,12.708990097045898
1619090436.65172,-5.450615,12.72462010383606
1619090436.66735,-0.8319626,12.74025011062622
1619090436.68297,3.084846,12.75587010383606
1619090436.6986,6.502243,12.77150011062622
1619090436.71422,9.530182,12.78712010383606
1619090436.72985,12.17449,12.80275011062622
1619090436.74547,14.40788,12.81837010383606
1619090436.7611,16.15874,12.83400011062622
1619090436.77673,17.38985,12.849630117416382
1619090436.79235,18.1243,12.86525011062622
1619090436.80798,18.46144,12.880880117416382
1619090436.8236,18.60311,12.89650011062622
1619090436.83923,18.74486,12.912130117416382
1619090436.85485,19.0368,12.92775011062622
1619090436.87048,19.48837,12.943380117416382
1619090436.88611,19.96407,12.959010124206543
1619090436.90173,20.26634,12.974630117416382
1619090436.91736,20.25929,12.990260124206543
1619090436.93298,19.92494,13.005880117416382
1619090436.94861,19.3201,13.021510124206543
1619090436.96423,18.54537,13.037130117416382
1619090436.97986,17.61221,13.052760124206543
1619090436.99549,16.48149,13.068390130996704
1619090437.01111,15.10944,13.084010124206543
1619090437.02674,13.51007,13.099640130996704
1619090437.04236,11.77357,13.115260124206543
1619090437.05799,10.02706,13.130890130996704
1619090437.07361,8.338013,13.146510124206543
1619090437.08924,6.65313,13.162140130996704
1619090437.10487,4.802155,13.177770137786865
1619090437.12049,2.560387,13.193390130996704
1619090437.13612,-0.2361221,13.209020137786865
1619090437.15174,-3.62854,13.224640130996704
1619090437.16737,-7.476143,13.240270137786865
1619090437.18299,-11.48511,13.255890130996704
1619090437.19862,-15.2927,13.271520137786865
1619090437.21425,-18.59785,13.287150144577026
1619090437.22987,-21.28915,13.302770137786865
1619090437.2455,-23.52153,13.318400144577026
1619090437.26112,-25.68089,13.334020137786865
1619090437.27675,-28.21976,13.349650144577026
1619090437.29237,-31.3825,13.365270137786865
1619090437.308,-35.01495,13.380900144577026
1619090437.32363,-38.53126,13.396530151367188
1619090437.33925,-41.06129,13.412150144577026
1619090437.35488,-41.74705,13.427780151367188
1619090437.3705,-40.04176,13.443400144577026
1619090437.38613,-35.89191,13.459030151367188
1619090437.40175,-29.75452,13.474650144577026
1619090437.41738,-22.42431,13.490280151367188
1619090437.43301,-14.78045,13.505910158157349
1619090437.44863,-7.584976,13.521530151367188
1619090437.46426,-1.278923,13.537160158157349
1619090437.47988,4.016861,13.552780151367188
1619090437.49551,8.413582,13.568410158157349
1619090437.51113,12.17774,13.584030151367188
1619090437.52676,15.5652,13.599660158157349
1619090437.54239,18.69784,13.61529016494751
1619090437.55801,21.51601,13.630910158157349
1619090437.57364,23.79701,13.64654016494751
1619090437.58926,25.26054,13.662160158157349
1619090437.60489,25.71874,13.67779016494751
1619090437.62051,25.20293,13.693410158157349
1619090437.63614,23.95333,13.70904016494751
1619090437.65177,22.35712,13.724670171737671
1619090437.66739,20.80299,13.74029016494751
1619090437.68302,19.52386,13.755920171737671
1619090437.69864,18.60484,13.77154016494751
1619090437.71427,17.99574,13.787170171737671
1619090437.72989,17.6321,13.80279016494751
1619090437.74552,17.44728,13.818420171737671
1619090437.76115,17.40325,13.834049940109253
1619090437.77677,17.39365,13.849670171737671
1619090437.7924,17.25054,13.865299940109253
1619090437.80802,16.75819,13.880920171737671
1619090437.82365,15.76652,13.896549940109253
1619090437.83927,14.23426,13.912170171737671
1619090437.8549,12.26097,13.927799940109253
1619090437.87053,9.999344,13.943429946899414
1619090437.88615,7.572716,13.959049940109253
1619090437.90178,5.028778,13.974679946899414
1619090437.9174,2.334885,13.990299940109253
1619090437.93303,-0.53228,14.005929946899414
1619090437.94865,-3.564194,14.021549940109253
1619090437.96428,-6.651321,14.037179946899414
1619090437.97991,-9.628029,14.052809953689575
1619090437.99553,-12.38927,14.068429946899414
1619090438.01116,-14.92759,14.084059953689575
1619090438.02678,-17.38502,14.099679946899414
1619090438.04241,-20.02019,14.115309953689575
1619090438.05803,-23.10332,14.130929946899414
1619090438.07366,-26.75748,14.146559953689575
1619090438.08929,-30.85371,14.162189960479736
1619090438.10491,-34.90879,14.177809953689575
1619090438.12054,-38.14519,14.193439960479736
1619090438.13616,-39.70124,14.209059953689575
1619090438.15179,-38.91251,14.224689960479736
1619090438.16741,-35.57344,14.240309953689575
1619090438.18304,-30.03841,14.255939960479736
1619090438.19867,-23.09541,14.271569967269897
1619090438.21429,-15.69713,14.287189960479736
1619090438.22992,-8.664352,14.302819967269897
1619090438.24554,-2.454277,14.318439960479736
1619090438.26117,2.847481,14.334069967269897
1619090438.27679,7.394424,14.349689960479736
1619090438.29242,11.38605,14.365319967269897
1619090438.30805,14.86883,14.380949974060059
1619090438.32367,17.74028,14.396569967269897
1619090438.3393,19.82491,14.412199974060059
1619090438.35492,21.01994,14.427819967269897
1619090438.37055,21.45176,14.443449974060059
1619090438.38617,21.38711,14.459069967269897
1619090438.4018,21.16869,14.474699974060059
1619090438.41743,21.01913,14.49032998085022
1619090438.43305,20.99876,14.505949974060059
1619090438.44868,20.9984,14.52157998085022
1619090438.4643,20.86453,14.537199974060059
1619090438.47993,20.50501,14.55282998085022
1619090438.49555,19.91518,14.568449974060059
1619090438.51118,19.19009,14.58407998085022
1619090438.52681,18.45342,14.59970998764038
1619090438.54243,17.76236,14.61532998085022
1619090438.55806,17.0495,14.63095998764038
1619090438.57368,16.1002,14.64657998085022
1619090438.58931,14.60394,14.66220998764038
1619090438.60493,12.30793,14.67782998085022
1619090438.62056,9.132195,14.69345998764038
1619090438.63619,5.303406,14.709089994430542
1619090438.65181,1.285553,14.72470998764038
1619090438.66744,-2.379356,14.740339994430542
1619090438.68306,-5.31842,14.75595998764038
1619090438.69869,-7.535316,14.771589994430542
1619090438.71431,-9.361458,14.78720998764038
1619090438.72994,-11.32426,14.802839994430542
1619090438.74557,-13.8261,14.818470001220703
1619090438.76119,-16.98883,14.834089994430542
1619090438.77682,-20.67867,14.849720001220703
1619090438.79244,-24.57156,14.865339994430542
1619090438.80807,-28.31261,14.880970001220703
1619090438.82369,-31.48405,14.896589994430542
1619090438.83932,-33.62589,14.912220001220703
1619090438.85495,-34.24976,14.927850008010864
1619090438.87057,-32.94483,14.943470001220703
1619090438.8862,-29.57903,14.959100008010864
1619090438.90182,-24.40338,14.974720001220703
1619090438.91745,-18.00911,14.990350008010864
1619090438.93308,-11.10675,15.005980014801025
1619090438.9487,-4.31926,15.021600008010864
1619090438.96433,1.984283,15.037230014801025
1619090438.97995,7.648071,15.052850008010864
1619090438.99558,12.61571,15.068480014801025
1619090439.0112,16.8295,15.084100008010864
1619090439.02683,20.23402,15.099730014801025
1619090439.04246,22.76631,15.115360021591187
1619090439.05808,24.4548,15.130980014801025
1619090439.07371,25.42596,15.146610021591187
1619090439.08933,25.84703,15.162230014801025
1619090439.10496,25.88867,15.177860021591187
1619090439.12058,25.62047,15.193480014801025
1619090439.13621,25.06479,15.209110021591187
1619090439.15184,24.17697,15.224740028381348
1619090439.16746,22.91147,15.240360021591187
1619090439.18309,21.28557,15.255990028381348
1619090439.19871,19.37997,15.271610021591187
1619090439.21434,17.411,15.287240028381348
1619090439.22996,15.58609,15.302860021591187
1619090439.24559,14.0712,15.318490028381348
1619090439.26122,12.90927,15.334120035171509
1619090439.27684,11.96855,15.349740028381348
1619090439.29247,11.02817,15.365370035171509
1619090439.30809,9.856857,15.380990028381348
1619090439.32372,8.303406,15.396620035171509
1619090439.33934,6.339188,15.412240028381348
1619090439.35497,4.011765,15.427870035171509
1619090439.3706,1.384842,15.44350004196167
1619090439.38622,-1.479507,15.459120035171509
1619090439.40185,-4.530273,15.47475004196167
1619090439.41747,-7.719193,15.490370035171509
1619090439.4331,-11.00034,15.50600004196167
1619090439.44872,-14.4006,15.521620035171509
1619090439.46435,-18.01143,15.53725004196167
1619090439.47998,-21.95149,15.552880048751831
1619090439.4956,-26.20612,15.56850004196167
1619090439.51123,-30.50606,15.584130048751831
1619090439.52685,-34.22725,15.59975004196167
1619090439.54248,-36.59747,15.615380048751831
1619090439.5581,-36.93587,15.63100004196167
1619090439.57373,-34.93542,15.646630048751831
1619090439.58936,-30.81131,15.662260055541992
1619090439.60498,-25.15413,15.677880048751831
1619090439.62061,-18.70943,15.693510055541992
1619090439.63623,-12.12099,15.709130048751831
1619090439.65186,-5.801331,15.724760055541992
1619090439.66748,0.06166077,15.740380048751831
1619090439.68311,5.348068,15.756010055541992
1619090439.69874,9.987808,15.771640062332153
1619090439.71436,13.95369,15.787260055541992
1619090439.72999,17.27081,15.802890062332153
1619090439.74561,19.99988,15.818510055541992
1619090439.76124,22.19151,15.834140062332153
1619090439.77686,23.76837,15.849760055541992
1619090439.79249,24.54852,15.865390062332153
1619090439.80812,24.38676,15.881020069122314
1619090439.82374,23.31046,15.896640062332153
1619090439.83937,21.62906,15.912270069122314
1619090439.85499,19.82884,15.927890062332153
1619090439.87062,18.38802,15.943520069122314
1619090439.88624,17.57123,15.959140062332153
1619090439.90187,17.31749,15.974770069122314
1619090439.9175,17.30484,15.990400075912476
1619090439.93312,17.12636,16.006020069122314
1619090439.94875,16.48509,16.021650075912476
1619090439.96437,15.28459,16.037270069122314
1619090439.98,13.62946,16.052900075912476
1619090439.99562,11.67207,16.068520069122314
1619090440.01125,9.542984,16.084150075912476
1619090440.02688,7.294907,16.099780082702637
1619090440.0425,4.914627,16.115400075912476
1619090440.05813,2.401627,16.131030082702637
1619090440.07375,-0.1802673,16.146650075912476
1619090440.08938,-2.741302,16.162280082702637
1619090440.105,-5.194366,16.177900075912476
1619090440.12063,-7.515457,16.193530082702637
1619090440.13626,-9.744812,16.209160089492798
1619090440.15188,-11.99062,16.224780082702637
1619090440.16751,-14.35237,16.240410089492798
1619090440.18313,-16.97723,16.256030082702637
1619090440.19876,-20.00403,16.271660089492798
1619090440.21438,-23.5546,16.287280082702637
1619090440.23001,-27.64915,16.302910089492798
1619090440.24564,-32.07402,16.31854009628296
1619090440.26126,-36.2905,16.334160089492798
1619090440.27689,-39.50748,16.34979009628296
1619090440.29251,-40.89285,16.365410089492798
1619090440.30814,-39.90387,16.38104009628296
1619090440.32376,-36.47592,16.396660089492798
1619090440.33939,-31.02698,16.41229009628296
1619090440.35502,-24.26897,16.42792010307312
1619090440.37064,-16.93037,16.44354009628296
1619090440.38627,-9.56842,16.45917010307312
1619090440.40189,-2.532455,16.47479009628296
1619090440.41752,3.95723,16.49042010307312
1619090440.43314,9.693329,16.50604009628296
1619090440.44877,14.50302,16.52167010307312
1619090440.4644,18.29042,16.53730010986328
1619090440.48002,21.10809,16.55292010307312
1619090440.49565,23.11502,16.56855010986328
1619090440.51127,24.49269,16.58417010307312
1619090440.5269,25.33932,16.59980010986328
1619090440.54252,25.60997,16.61542010307312
1619090440.55815,25.24699,16.63105010986328
1619090440.57378,24.29504,16.646680116653442
1619090440.5894,22.98979,16.66230010986328
1619090440.60503,21.69255,16.677930116653442
1619090440.62065,20.72789,16.69355010986328
1619090440.63628,20.23106,16.709180116653442
1619090440.6519,20.06697,16.72480010986328
1619090440.66753,19.93214,16.740430116653442
1619090440.68316,19.48793,16.756060123443604
1619090440.69878,18.52585,16.771680116653442
1619090440.71441,17.0199,16.787310123443604
1619090440.73003,15.07948,16.802930116653442
1619090440.74566,12.90549,16.818560123443604
1619090440.76128,10.64836,16.834180116653442
1619090440.77691,8.401596,16.849810123443604
1619090440.79254,6.191345,16.865440130233765
1619090440.80816,4.010162,16.881060123443604
1619090440.82379,1.808456,16.896690130233765
1619090440.83941,-0.4550476,16.912310123443604
1619090440.85504,-2.780792,16.927940130233765
1619090440.87066,-5.135162,16.943560123443604
1619090440.88629,-7.468521,16.959190130233765
1619090440.90192,-9.766785,16.974820137023926
1619090440.91754,-12.06375,16.990440130233765
1619090440.93317,-14.47566,17.006070137023926
1619090440.94879,-17.17107,17.021690130233765
1619090440.96442,-20.28127,17.037320137023926
1619090440.98004,-23.86571,17.052940130233765
1619090440.99567,-27.83249,17.068570137023926
1619090441.0113,-31.92891,17.084200143814087
1619090441.02692,-35.74239,17.099820137023926
1619090441.04255,-38.7907,17.115450143814087
1619090441.05817,-40.56296,17.131070137023926
1619090441.0738,-40.62955,17.146700143814087
1619090441.08943,-38.69989,17.162330150604248
1619090441.10505,-34.70383,17.177950143814087
1619090441.12068,-28.85747,17.193580150604248
1619090441.1363,-21.61636,17.209200143814087
1619090441.15193,-13.65509,17.224830150604248
1619090441.16755,-5.711029,17.240450143814087
1619090441.18318,1.530533,17.256080150604248
1619090441.19881,7.598114,17.27171015739441
1619090441.21443,12.30949,17.287330150604248
1619090441.23006,15.74529,17.30296015739441
1619090441.24568,18.21085,17.318580150604248
1619090441.26131,20.05884,17.33421015739441
1619090441.27693,21.58916,17.349830150604248
1619090441.29256,22.90555,17.36546015739441
1619090441.30819,23.97961,17.38109016418457
1619090441.32381,24.6456,17.39671015739441
1619090441.33944,24.76768,17.41234016418457
1619090441.35506,24.34059,17.42796015739441
1619090441.37069,23.5285,17.44359016418457
1619090441.38631,22.65033,17.45921015739441
1619090441.40194,21.99487,17.47484016418457
1619090441.41757,21.71869,17.49047017097473
1619090441.43319,21.74883,17.50609016418457
1619090441.44882,21.839,17.52172017097473
1619090441.46444,21.74078,17.53734016418457
1619090441.48007,21.35304,17.55297017097473
1619090441.49569,20.75755,17.56859016418457
1619090441.51132,20.14813,17.58422017097473
1619090441.52695,19.65527,17.599849939346313
1619090441.54257,19.19968,17.61547017097473
1619090441.5582,18.46252,17.631099939346313
1619090441.57382,17.06796,17.64672017097473
1619090441.58945,14.77548,17.662349939346313
1619090441.60507,11.63319,17.67797017097473
1619090441.6207,7.905182,17.693599939346313
1619090441.63633,3.941269,17.709229946136475
1619090441.65195,0.007125854,17.724849939346313
1619090441.66758,-3.796539,17.740479946136475
1619090441.6832,-7.446152,17.756099939346313
1619090441.69883,-10.89972,17.771729946136475
1619090441.71445,-14.04156,17.787349939346313
1619090441.73008,-16.70863,17.802979946136475
1619090441.74571,-18.85092,17.818609952926636
1619090441.76133,-20.6602,17.834229946136475
1619090441.77696,-22.55373,17.849859952926636
1619090441.79258,-25.04176,17.865479946136475
1619090441.80821,-28.4635,17.881109952926636
1619090441.82383,-32.74911,17.896729946136475
1619090441.83946,-37.36765,17.912359952926636
1619090441.85509,-41.41054,17.927989959716797
1619090441.87071,-43.91595,17.943609952926636
1619090441.88634,-44.11789,17.959239959716797
1619090441.90196,-41.71466,17.974859952926636
1619090441.91759,-36.90387,17.990489959716797
1619090441.93321,-30.26414,18.006109952926636
1619090441.94884,-22.5786,18.021739959716797
1619090441.96447,-14.57849,18.037369966506958
1619090441.98009,-6.833435,18.052989959716797
1619090441.99572,0.2735138,18.068619966506958
1619090442.01134,6.517487,18.084239959716797
1619090442.02697,11.77272,18.099869966506958
1619090442.04259,16.01953,18.115489959716797
1619090442.05822,19.26593,18.131119966506958
1619090442.07385,21.5907,18.14674997329712
1619090442.08947,23.06705,18.162369966506958
1619090442.1051,23.81453,18.17799997329712
1619090442.12072,23.96869,18.193619966506958
1619090442.13635,23.68636,18.20924997329712
1619090442.15197,23.15054,18.224869966506958
1619090442.1676,22.49341,18.24049997329712
1619090442.18323,21.77248,18.25612998008728
1619090442.19885,20.9296,18.27174997329712
1619090442.21448,19.85135,18.28737998008728
1619090442.2301,18.4808,18.30299997329712
1619090442.24573,16.9106,18.31862998008728
1619090442.26135,15.36995,18.33424997329712
1619090442.27698,14.132,18.34987998008728
1619090442.29261,13.38353,18.36550998687744
1619090442.30823,13.07794,18.38112998008728
1619090442.32386,13.02933,18.39675998687744
1619090442.33948,12.92078,18.41237998008728
1619090442.35511,12.48138,18.42800998687744
1619090442.37073,11.50008,18.44362998008728
1619090442.38636,9.84288,18.45925998687744
1619090442.40199,7.465286,18.474889993667603
1619090442.41761,4.394241,18.49050998687744
1619090442.43324,0.8371735,18.506139993667603
1619090442.44886,-2.89534,18.52175998687744
1619090442.46449,-6.397003,18.537389993667603
1619090442.48011,-9.346725,18.55300998687744
1619090442.49574,-11.62425,18.568639993667603
1619090442.51137,-13.38237,18.584270000457764
1619090442.52699,-15.00301,18.599889993667603
1619090442.54262,-16.92242,18.615520000457764
1619090442.55824,-19.50293,18.631139993667603
1619090442.57387,-22.87666,18.646770000457764
1619090442.58949,-26.95465,18.662389993667603
1619090442.60512,-31.42184,18.678020000457764
1619090442.62075,-35.81998,18.693650007247925
1619090442.63637,-39.54039,18.709270000457764
1619090442.652,-41.91629,18.724900007247925
1619090442.66762,-42.31633,18.740520000457764
1619090442.68325,-40.26648,18.756150007247925
1619090442.69887,-35.64174,18.771770000457764
1619090442.7145,-28.71733,18.787400007247925
1619090442.73013,-20.21909,18.803030014038086
1619090442.74575,-11.13661,18.818650007247925
1619090442.76138,-2.522141,18.834280014038086
1619090442.777,4.835403,18.849900007247925
1619090442.79263,10.5769,18.865530014038086
1619090442.80825,14.76773,18.881150007247925
1619090442.82388,17.78816,18.896780014038086
1619090442.83951,20.03961,18.912410020828247
1619090442.85513,21.76723,18.928030014038086
1619090442.87076,22.96901,18.943660020828247
1619090442.88638,23.52544,18.959280014038086
1619090442.90201,23.38663,18.974910020828247
1619090442.91763,22.71327,18.990530014038086
1619090442.93326,21.88042,19.006160020828247
1619090442.94889,21.29013,19.021790027618408
1619090442.96451,21.14844,19.037410020828247
1619090442.98014,21.31613,19.053040027618408
1619090442.99576,21.39149,19.068660020828247
1619090443.01139,20.93411,19.084290027618408
1619090443.02701,19.72372,19.099910020828247
1619090443.04264,17.91803,19.115540027618408
1619090443.05827,15.9489,19.13117003440857
1619090443.07389,14.29269,19.146790027618408
1619090443.08952,13.20689,19.16242003440857
1619090443.10514,12.61952,19.178040027618408
1619090443.12077,12.18007,19.19367003440857
1619090443.13639,11.50441,19.209290027618408
1619090443.15202,10.34824,19.22492003440857
1619090443.16765,8.702972,19.24055004119873
1619090443.18327,6.708054,19.25617003440857
1619090443.1989,4.516159,19.27180004119873
1619090443.21452,2.217102,19.28742003440857
1619090443.23015,-0.2094879,19.30305004119873
1619090443.24577,-2.846329,19.31867003440857
1619090443.2614,-5.796677,19.33430004119873
1619090443.27703,-9.117081,19.34993004798889
1619090443.29265,-12.79355,19.36555004119873
1619090443.30828,-16.70605,19.38118004798889
1619090443.3239,-20.55446,19.39680004119873
1619090443.33953,-23.83742,19.41243004798889
1619090443.35515,-25.88661,19.42805004119873
1619090443.37078,-26.05406,19.44368004798889
1619090443.38641,-23.92329,19.459310054779053
1619090443.40203,-19.55884,19.47493004798889
1619090443.41766,-13.52324,19.490560054779053
1619090443.43328,-6.730194,19.50618004798889
1619090443.44891,-0.1327362,19.521810054779053
1619090443.46454,5.589569,19.537440061569214
1619090443.48016,10.19269,19.553060054779053
1619090443.49579,13.83682,19.568690061569214
1619090443.51141,16.84619,19.584310054779053
1619090443.52704,19.46107,19.599940061569214
1619090443.54266,21.65208,19.615560054779053
1619090443.55829,23.17685,19.631190061569214
1619090443.57392,23.72992,19.646820068359375
1619090443.58954,23.2029,19.662440061569214
1619090443.60517,21.83653,19.678070068359375
1619090443.62079,20.14041,19.693690061569214
1619090443.63642,18.72147,19.709320068359375
1619090443.65204,17.98837,19.724940061569214
1619090443.66767,18.03685,19.740570068359375
1619090443.6833,18.60037,19.756200075149536
1619090443.69892,19.25777,19.771820068359375
1619090443.71455,19.64938,19.787450075149536
1619090443.73017,19.62637,19.803070068359375
1619090443.7458,19.27769,19.818700075149536
1619090443.76142,18.81326,19.834320068359375
1619090443.77705,18.42036,19.849950075149536
1619090443.79268,18.15898,19.865580081939697
1619090443.8083,17.96529,19.881200075149536
1619090443.82393,17.70405,19.896830081939697
1619090443.83955,17.21796,19.912450075149536
1619090443.85518,16.40519,19.928080081939697
1619090443.8708,15.20437,19.943700075149536
1619090443.88643,13.63663,19.959330081939697
1619090443.90206,11.75504,19.97496008872986
1619090443.91768,9.682007,19.990580081939697
1619090443.93331,7.579475,20.00621008872986
1619090443.94893,5.589211,20.021830081939697
1619090443.96456,3.789261,20.03746008872986
1619090443.98018,2.133804,20.053080081939697
1619090443.99581,0.5044327,20.06871008872986
1619090444.01144,-1.233818,20.08434009552002
1619090444.02706,-3.141319,20.09996008872986
1619090444.04269,-5.197868,20.11559009552002
1619090444.05831,-7.299706,20.13121008872986
1619090444.07394,-9.31485,20.14684009552002
1619090444.08956,-11.14322,20.16246008872986
1619090444.10519,-12.73257,20.17809009552002
1619090444.12082,-14.06979,20.19372010231018
1619090444.13644,-15.18634,20.20934009552002
1619090444.15207,-16.17647,20.22497010231018
1619090444.16769,-17.19421,20.24059009552002
1619090444.18332,-18.46027,20.25622010231018
1619090444.19894,-20.16362,20.27184009552002
1619090444.21457,-22.36816,20.28747010231018
1619090444.2302,-24.9771,20.303100109100342
1619090444.24582,-27.72231,20.31872010231018
1619090444.26145,-30.31554,20.334350109100342
1619090444.27707,-32.59662,20.34997010231018
1619090444.2927,-34.61362,20.365600109100342
1619090444.30832,-36.66089,20.38122010231018
1619090444.32395,-39.08762,20.396850109100342
1619090444.33958,-42.16255,20.412480115890503
1619090444.3552,-45.83504,20.428100109100342
1619090444.37083,-49.69537,20.443730115890503
1619090444.38645,-52.97352,20.459350109100342
1619090444.40208,-54.77137,20.474980115890503
1619090444.4177,-54.27003,20.490600109100342
1619090444.43333,-51.02431,20.506230115890503
1619090444.44896,-45.09386,20.521860122680664
1619090444.46458,-37.05028,20.537480115890503
1619090444.48021,-27.82622,20.553110122680664
1619090444.49583,-18.43053,20.568730115890503
1619090444.51146,-9.695992,20.584360122680664
1619090444.52708,-2.099823,20.599980115890503
1619090444.54271,4.229317,20.615610122680664
1619090444.55834,9.393539,20.631240129470825
1619090444.57396,13.54666,20.646860122680664
1619090444.58959,16.8046,20.662490129470825
1619090444.60521,19.23685,20.678110122680664
1619090444.62084,20.93453,20.693740129470825
1619090444.63646,22.03548,20.709360122680664
1619090444.65209,22.73176,20.724990129470825
1619090444.66772,23.23153,20.740620136260986
1619090444.68334,23.67763,20.756240129470825
1619090444.69897,24.11783,20.771870136260986
1619090444.71459,24.51826,20.787490129470825
1619090444.73022,24.78077,20.803120136260986
1619090444.74584,24.81116,20.818740129470825
1619090444.76147,24.54211,20.834370136260986
1619090444.7771,23.93711,20.850000143051147
1619090444.79272,23.06174,20.865620136260986
1619090444.80835,22.01274,20.881250143051147
1619090444.82397,20.90797,20.896870136260986
1619090444.8396,19.8334,20.912500143051147
1619090444.85522,18.80789,20.928120136260986
1619090444.87085,17.78207,20.943750143051147
1619090444.88648,16.67596,20.95938014984131
1619090444.9021,15.37531,20.975000143051147
1619090444.91773,13.77479,20.99063014984131
1619090444.93335,11.7681,21.006250143051147
1619090444.94898,9.319542,21.02188014984131
1619090444.9646,6.516991,21.037500143051147
1619090444.98023,3.580696,21.05313014984131
1619090444.99586,0.8285522,21.06876015663147
1619090445.01148,-1.50457,21.08438014984131
1619090445.02711,-3.431572,21.10001015663147
1619090445.04273,-5.244873,21.11563014984131
1619090445.05836,-7.410675,21.13126015663147
1619090445.07398,-10.30482,21.14688014984131
1619090445.08961,-14.05963,21.16251015663147
1619090445.10524,-18.45716,21.17814016342163
1619090445.12086,-23.0505,21.19376015663147
1619090445.13649,-27.3108,21.20939016342163
1619090445.15211,-30.73153,21.22501015663147
1619090445.16774,-32.89737,21.24064016342163
1619090445.18336,-33.52337,21.25626015663147
1619090445.19899,-32.55469,21.27189016342163
1619090445.21462,-30.20046,21.287520170211792
1619090445.23024,-26.93343,21.30314016342163
1619090445.24587,-23.30066,21.318770170211792
1619090445.26149,-19.7374,21.33439016342163
1619090445.27712,-16.4058,21.350020170211792
1619090445.29274,-13.16553,21.36564016342163
1619090445.30837,-9.708885,21.381270170211792
1619090445.324,-5.729271,21.396899938583374
1619090445.33962,-0.9882889,21.412520170211792
1619090445.35525,4.591774,21.428149938583374
1619090445.37087,10.92905,21.443770170211792
1619090445.3865,17.68199,21.459399938583374
1619090445.40212,24.21098,21.475020170211792
1619090445.41775,29.68301,21.490649938583374
1619090445.43338,33.28983,21.506279945373535
1619090445.449,34.62035,21.521899938583374
1619090445.46463,33.8586,21.537529945373535
1619090445.48025,31.71433,21.553149938583374
1619090445.49588,29.15313,21.568779945373535
1619090445.5115,27.02338,21.584399938583374
1619090445.52713,25.83035,21.600029945373535
1619090445.54276,25.74162,21.615659952163696
1619090445.55838,26.74826,21.631279945373535
1619090445.57401,28.7309,21.646909952163696
1619090445.58963,31.37035,21.662529945373535
1619090445.60526,34.12328,21.678159952163696
1619090445.62088,36.32258,21.693779945373535
1619090445.63651,37.45177,21.709409952163696
1619090445.65214,37.51585,21.725039958953857
1619090445.66776,37.10992,21.740659952163696
1619090445.68339,37.14623,21.756289958953857
1619090445.69901,38.46,21.771909952163696
1619090445.71464,41.30673,21.787539958953857
1619090445.73026,45.07941,21.803159952163696
1619090445.74589,48.49545,21.818789958953857
1619090445.76152,50.0701,21.83441996574402
1619090445.77714,48.69542,21.850039958953857
1619090445.79277,44.1535,21.86566996574402
1619090445.80839,37.11801,21.881289958953857
1619090445.82402,28.83094,21.89691996574402
1619090445.83964,20.72474,21.912539958953857
1619090445.85527,14.05803,21.92816996574402
1619090445.8709,9.747482,21.94379997253418
1619090445.88652,8.270157,21.95941996574402
1619090445.90215,9.585522,21.97504997253418
1619090445.91777,12.5784,21.99066996574402
1619090445.9334,15.75867,22.00629997253418
1619090445.94903,17.1752,22.02192997932434
1619090445.96465,14.92027,22.03754997253418
1619090445.98028,8.354424,22.05317997932434
1619090445.9959,-1.089167,22.06879997253418
1619090446.01153,-10.35014,22.08442997932434
1619090446.02715,-16.22325,22.10004997253418
1619090446.04278,-17.15218,22.11567997932434
1619090446.05841,-13.69929,22.131309986114502
1619090446.07403,-8.07686,22.14692997932434
1619090446.08966,-2.229695,22.162559986114502
1619090446.10528,3.034469,22.17817997932434
1619090446.12091,7.996057,22.193809986114502
1619090446.13653,13.16418,22.20942997932434
1619090446.15216,18.18674,22.225059986114502
1619090446.16779,21.48167,22.240689992904663
1619090446.18341,20.34993,22.256309986114502
1619090446.19904,12.5206,22.271939992904663
1619090446.21466,-2.588926,22.287559986114502
1619090446.23029,-23.01709,22.303189992904663
1619090446.24591,-44.97927,22.318809986114502
1619090446.26154,-64.20868,22.334439992904663
1619090446.27717,-77.56438,22.350069999694824
1619090446.29279,-84.13834,22.365689992904663
1619090446.30842,-85.20035,22.381319999694824
1619090446.32404,-83.95197,22.396939992904663
1619090446.33967,-83.95552,22.412569999694824
1619090446.35529,-87.9752,22.428189992904663
1619090446.37092,-96.97753,22.443819999694824
1619090446.38655,-109.8972,22.459450006484985
1619090446.40217,-123.8984,22.475069999694824
1619090446.4178,-135.1019,22.490700006484985
1619090446.43342,-139.8188,22.506319999694824
1619090446.44905,-132.6504,22.521950006484985
1619090446.46467,-111.3433,22.537569999694824
1619090446.4803,-77.89041,22.553200006484985
1619090446.49593,-38.62756,22.568830013275146
1619090446.51155,-2.019032,22.584450006484985
1619090446.52718,24.45822,22.600080013275146
1619090446.5428,36.76458,22.615700006484985
1619090446.55843,34.91013,22.631330013275146
1619090446.57405,21.94119,22.646950006484985
1619090446.58968,2.213436,22.662580013275146
1619090446.60531,-20.43167,22.678210020065308
1619090446.62093,-42.56378,22.693830013275146
1619090446.63656,-61.30489,22.709460020065308
1619090446.65218,-74.50931,22.725080013275146
1619090446.66781,-81.06772,22.740710020065308
1619090446.68343,-81.14023,22.756330013275146
1619090446.69906,-74.9519,22.771960020065308
1619090446.71469,-64.24977,22.78759002685547
1619090446.73031,-51.29715,22.803210020065308
1619090446.74594,-38.58708,22.81884002685547
1619090446.76156,-27.88483,22.834460020065308
1619090446.77719,-19.87784,22.85009002685547
1619090446.79281,-14.10238,22.865710020065308
1619090446.80844,-9.297754,22.88134002685547
1619090446.82407,-4.099573,22.89697003364563
1619090446.83969,2.410019,22.91259002685547
1619090446.85532,10.06783,22.92822003364563
1619090446.87094,17.96703,22.94384002685547
1619090446.88657,24.65797,22.95947003364563
1619090446.90219,28.97835,22.97509002685547
1619090446.91782,30.57801,22.99072003364563
1619090446.93345,29.99703,23.00635004043579
1619090446.94907,28.41508,23.02197003364563
1619090446.9647,27.00944,23.03760004043579
1619090446.98032,26.48843,23.05322003364563
1619090446.99595,26.75611,23.06885004043579
1619090447.01157,27.34415,23.08447003364563
1619090447.0272,27.64482,23.10010004043579
1619090447.04283,27.37821,23.115730047225952
1619090447.05845,26.64979,23.13135004043579
1619090447.07408,25.82793,23.146980047225952
1619090447.0897,25.32437,23.16260004043579
1619090447.10533,25.34792,23.178230047225952
1619090447.12095,25.82501,23.19385004043579
1619090447.13658,26.35828,23.209480047225952
1619090447.15221,26.47498,23.225110054016113
1619090447.16783,25.77324,23.240730047225952
1619090447.18346,24.0125,23.256360054016113
1619090447.19908,21.16236,23.271980047225952
1619090447.21471,17.33506,23.287610054016113
1619090447.23033,12.78434,23.303230047225952
1619090447.24596,7.783005,23.318860054016113
1619090447.26159,2.519119,23.334490060806274
1619090447.27721,-2.98703,23.350110054016113
1619090447.29284,-8.78508,23.365740060806274
1619090447.30846,-14.90886,23.381360054016113
1619090447.32409,-21.27557,23.396990060806274
1619090447.33971,-27.59343,23.412610054016113
1619090447.35534,-33.38474,23.428240060806274
1619090447.37097,-38.04588,23.443870067596436
1619090447.38659,-40.95055,23.459490060806274
1619090447.40222,-41.60191,23.475120067596436
1619090447.41784,-39.7796,23.490740060806274
1619090447.43347,-35.61703,23.506370067596436
1619090447.44909,-29.6003,23.521990060806274
1619090447.46472,-22.45982,23.537620067596436
1619090447.48035,-14.98007,23.553250074386597
1619090447.49597,-7.769791,23.568870067596436
1619090447.5116,-1.150223,23.584500074386597
1619090447.52722,4.830688,23.600120067596436
1619090447.54285,10.28685,23.615750074386597
1619090447.55847,15.27686,23.631370067596436
1619090447.5741,19.68103,23.647000074386597
1619090447.58973,23.24551,23.662630081176758
1619090447.60535,25.7556,23.678250074386597
1619090447.62098,27.21375,23.693880081176758
1619090447.6366,27.8848,23.709500074386597
1619090447.65223,28.15196,23.725130081176758
1619090447.66785,28.2677,23.740750074386597
1619090447.68348,28.25087,23.756380081176758
1619090447.69911,27.90073,23.77201008796692
1619090447.71473,27.0117,23.787630081176758
1619090447.73036,25.58995,23.80326008796692
1619090447.74598,23.93672,23.818880081176758
1619090447.76161,22.49268,23.83451008796692
1619090447.77723,21.59927,23.850130081176758
1619090447.79286,21.25421,23.86576008796692
1619090447.80849,21.11969,23.88139009475708
1619090447.82411,20.71829,23.89701008796692
1619090447.83974,19.68674,23.91264009475708
1619090447.85536,17.95456,23.92826008796692
1619090447.87099,15.74332,23.94389009475708
1619090447.88661,13.40344,23.95951008796692
1619090447.90224,11.18387,23.97514009475708
1619090447.91787,9.158783,23.99077010154724
1619090447.93349,7.231201,24.00639009475708
1619090447.94912,5.237091,24.02202010154724
1619090447.96474,3.068726,24.03764009475708
1619090447.98037,0.7298279,24.05327010154724
1619090447.99599,-1.650635,24.06889009475708
1619090448.01162,-3.934906,24.08452010154724
1619090448.02725,-6.061523,24.100150108337402
1619090448.04287,-8.120911,24.11577010154724
1619090448.0585,-10.32938,24.131400108337402
1619090448.07412,-13.00433,24.14702010154724
1619090448.08975,-16.38855,24.162650108337402
1619090448.10537,-20.49689,24.17827010154724
1619090448.121,-25.0282,24.193900108337402
1619090448.13663,-29.34906,24.209530115127563
1619090448.15225,-32.61368,24.225150108337402
1619090448.16788,-34.02133,24.240780115127563
1619090448.1835,-33.02182,24.256400108337402
1619090448.19913,-29.47925,24.272030115127563
1619090448.21476,-23.68573,24.287660121917725
1619090448.23038,-16.27341,24.303280115127563
1619090448.24601,-8.008026,24.318910121917725
1619090448.26163,0.348938,24.334530115127563
1619090448.27726,8.184113,24.350160121917725
1619090448.29288,15.06183,24.365780115127563
1619090448.30851,20.75525,24.381410121917725
1619090448.32414,25.22205,24.397040128707886
1619090448.33976,28.59348,24.412660121917725
1619090448.35539,31.12033,24.428290128707886
1619090448.37101,33.09628,24.443910121917725
1619090448.38664,34.77725,24.459540128707886
1619090448.40226,36.26175,24.475160121917725
1619090448.41789,37.49316,24.490790128707886
1619090448.43352,38.33051,24.506420135498047
1619090448.44914,38.65997,24.522040128707886
1619090448.46477,38.4783,24.537670135498047
1619090448.48039,37.8934,24.553290128707886
1619090448.49602,37.08563,24.568920135498047
1619090448.51164,36.17133,24.584540128707886
1619090448.52727,35.20023,24.600170135498047
1619090448.5429,34.18762,24.615800142288208
1619090448.55852,33.17505,24.631420135498047
1619090448.57415,32.25995,24.647050142288208
1619090448.58977,31.53241,24.662670135498047
1619090448.6054,30.96204,24.678300142288208
1619090448.62102,30.34641,24.693920135498047
1619090448.63665,29.36658,24.709550142288208
1619090448.65228,27.74329,24.72518014907837
1619090448.6679,25.42105,24.740800142288208
1619090448.68353,22.62201,24.75643014907837
1619090448.69915,19.71017,24.772050142288208
1619090448.71478,17.00012,24.78768014907837
1619090448.7304,14.53992,24.803300142288208
1619090448.74603,12.14236,24.81893014907837
1619090448.76166,9.514221,24.83456015586853
1619090448.77728,6.522339,24.85018014907837
1619090448.79291,3.273499,24.86581015586853
1619090448.80853,0.09686279,24.88143014907837
1619090448.82416,-2.64566,24.89706015586853
1619090448.83978,-4.80777,24.91268014907837
1619090448.85541,-6.528076,24.92831015586853
1619090448.87104,-8.203491,24.94394016265869
1619090448.88666,-10.33691,24.95956015586853
1619090448.90229,-13.36444,24.97519016265869
1619090448.91791,-17.51312,24.99081015586853
1619090448.93354,-22.70154,25.00644016265869
1619090448.94916,-28.51202,25.02206015586853
1619090448.96479,-34.20047,25.03769016265869
1619090448.98042,-38.85748,25.053320169448853
1619090448.99604,-41.54453,25.06894016265869
1619090449.01167,-41.55835,25.084570169448853
1619090449.02729,-38.61685,25.10019016265869
1619090449.04292,-32.91632,25.115820169448853
1619090449.05854,-25.1167,25.13144016265869
1619090449.07417,-16.16486,25.147070169448853
1619090449.0898,-7.037842,25.162699937820435
1619090449.10542,1.4487,25.178320169448853
1619090449.12105,8.738953,25.193949937820435
1619090449.13667,14.65903,25.209570169448853
1619090449.1523,19.28149,25.225199937820435
1619090449.16792,22.87909,25.240820169448853
1619090449.18355,25.7605,25.256449937820435
1619090449.19918,28.11371,25.272079944610596
1619090449.2148,29.98993,25.287699937820435
1619090449.23043,31.31277,25.303329944610596
1619090449.24605,31.99838,25.318949937820435
1619090449.26168,32.03479,25.334579944610596
1619090449.2773,31.5712,25.350199937820435
1619090449.29293,30.86984,25.365829944610596
1619090449.30856,30.20584,25.381459951400757
1619090449.32418,29.78369,25.397079944610596
1619090449.33981,29.64026,25.412709951400757
1619090449.35543,29.6489,25.428329944610596
1619090449.37106,29.57123,25.443959951400757
1619090449.38668,29.18954,25.459579944610596
1619090449.40231,28.38208,25.475209951400757
1619090449.41794,27.19464,25.490839958190918
1619090449.43356,25.79092,25.506459951400757
1619090449.44919,24.38461,25.522089958190918
1619090449.46481,23.12564,25.537709951400757
1619090449.48044,22.0452,25.553339958190918
1619090449.49606,21.08673,25.568959951400757
1619090449.51169,20.17505,25.584589958190918
1619090449.52732,19.29297,25.60021996498108
1619090449.54294,18.50839,25.615839958190918
1619090449.55857,17.93515,25.63146996498108
1619090449.57419,17.60168,25.647089958190918
1619090449.58982,17.36496,25.66271996498108
1619090449.60544,16.92404,25.678339958190918
1619090449.62107,15.88986,25.69396996498108
1619090449.6367,13.983,25.70959997177124
1619090449.65232,11.14316,25.72521996498108
1619090449.66795,7.608612,25.74084997177124
1619090449.68357,3.819305,25.75646996498108
1619090449.6992,0.2461853,25.77209997177124
1619090449.71482,-2.839325,25.78771996498108
1619090449.73045,-5.444366,25.80334997177124
1619090449.74608,-7.838531,25.8189799785614
1619090449.7617,-10.39542,25.83459997177124
1619090449.77733,-13.41034,25.8502299785614
1619090449.79295,-17.02484,25.86584997177124
1619090449.80858,-21.1575,25.8814799785614
1619090449.8242,-25.58148,25.89709997177124
1619090449.83983,-29.9216,25.9127299785614
1619090449.85546,-33.71335,25.928359985351562
1619090449.87108,-36.3956,25.9439799785614
1619090449.88671,-37.38577,25.959609985351562
1619090449.90233,-36.23236,25.9752299785614
1619090449.91796,-32.76761,25.990859985351562
1619090449.93358,-27.25302,26.0064799785614
1619090449.94921,-20.33133,26.022109985351562
1619090449.96484,-12.88843,26.037739992141724
1619090449.98046,-5.78595,26.053359985351562
1619090449.99609,0.3884583,26.068989992141724
1619090450.01171,5.403809,26.084609985351562
1619090450.02734,9.355774,26.100239992141724
1619090450.04296,12.46188,26.115859985351562
1619090450.05859,14.86835,26.131489992141724
1619090450.07422,16.61771,26.147119998931885
1619090450.08984,17.629,26.162739992141724
1619090450.10547,17.85114,26.178369998931885
1619090450.12109,17.36212,26.193989992141724
1619090450.13672,16.43576,26.209619998931885
1619090450.15234,15.44772,26.225239992141724
1619090450.16797,14.76434,26.240869998931885
1619090450.1836,14.54782,26.256500005722046
1619090450.19922,14.71844,26.272119998931885
1619090450.21485,14.98453,26.287750005722046
1619090450.23047,15.05463,26.303369998931885
1619090450.2461,14.71259,26.319000005722046
1619090450.26172,13.96207,26.334619998931885
1619090450.27735,12.97107,26.350250005722046
1619090450.29298,11.9415,26.365880012512207
1619090450.3086,10.98431,26.381500005722046
1619090450.32423,10.04636,26.397130012512207
1619090450.33985,8.924622,26.412750005722046
1619090450.35548,7.334015,26.428380012512207
1619090450.3711,5.090332,26.444000005722046
1619090450.38673,2.181122,26.459630012512207
1619090450.40236,-1.199188,26.475260019302368
1619090450.41798,-4.718994,26.490880012512207
1619090450.43361,-8.074249,26.506510019302368
1619090450.44923,-11.07187,26.522130012512207
1619090450.46486,-13.70361,26.537760019302368
1619090450.48048,-16.13239,26.553380012512207
1619090450.49611,-18.57547,26.569010019302368
1619090450.51174,-21.24652,26.58464002609253
1619090450.52736,-24.27249,26.600260019302368
1619090450.54299,-27.67532,26.61589002609253
1619090450.55861,-31.32761,26.631510019302368
1619090450.57424,-34.91776,26.64714002609253
1619090450.58986,-37.9527,26.662760019302368
1619090450.60549,-39.80321,26.67839002609253
1619090450.62112,-39.87666,26.69402003288269
1619090450.63674,-37.78802,26.70964002609253
1619090450.65237,-33.55214,26.72527003288269
1619090450.66799,-27.55286,26.74089002609253
1619090450.68362,-20.44708,26.75652003288269
1619090450.69924,-12.93985,26.77214002609253
1619090450.71487,-5.603394,26.78777003288269
1619090450.7305,1.319275,26.80340003967285
1619090450.74612,7.758759,26.81902003288269
1619090450.76175,13.68817,26.83465003967285
1619090450.77737,18.95026,26.85027003288269
1619090450.793,23.20923,26.86590003967285
1619090450.80863,26.07312,26.881530046463013
1619090450.82425,27.30365,26.89715003967285
1619090450.83988,27.0137,26.912780046463013
1619090450.8555,25.65332,26.92840003967285
1619090450.87113,24.04483,26.944030046463013
1619090450.88675,22.9115,26.95965003967285
1619090450.90238,22.67813,26.975280046463013
1619090450.91801,23.30301,26.990910053253174
1619090450.93363,24.39078,27.006530046463013
1619090450.94926,25.50029,27.022160053253174
1619090450.96488,26.37769,27.037780046463013
1619090450.98051,27.06219,27.053410053253174
1619090450.99613,27.72781,27.069030046463013
1619090451.01176,28.75772,27.084660053253174
1619090451.02739,30.34798,27.100290060043335
1619090451.04301,32.42105,27.115910053253174
1619090451.05864,34.70192,27.131540060043335
1619090451.07426,36.76292,27.147160053253174
1619090451.08989,38.15326,27.162790060043335
1619090451.10551,38.54442,27.178410053253174
1619090451.12114,37.80318,27.194040060043335
1619090451.13677,36.06668,27.209670066833496
1619090451.15239,34.09808,27.225290060043335
1619090451.16802,32.78113,27.240920066833496
1619090451.18364,32.77232,27.256540060043335
1619090451.19927,34.20102,27.272170066833496
1619090451.21489,36.52092,27.287790060043335
1619090451.23052,38.84866,27.303420066833496
1619090451.24615,40.48529,27.319050073623657
1619090451.26177,41.30809,27.334670066833496
1619090451.2774,41.79315,27.350300073623657
1619090451.29302,43.20915,27.365920066833496
1619090451.30865,46.67758,27.381550073623657
1619090451.32427,52.66299,27.397170066833496
1619090451.3399,60.85704,27.412800073623657
1619090451.35553,70.09116,27.42843008041382
1619090451.37115,78.95305,27.444050073623657
1619090451.38678,86.26796,27.45968008041382
1619090451.4024,91.29485,27.475300073623657
1619090451.41803,90.5472,27.49093008041382
1619090451.43365,81.56358,27.506550073623657
1619090451.44928,63.36081,27.52218008041382
1619090451.46491,37.48901,27.53781008720398
1619090451.48053,8.183067,27.55343008041382
1619090451.49616,-19.42851,27.56906008720398
1619090451.51178,-40.99566,27.58468008041382
1619090451.52741,-54.16055,27.60031008720398
1619090451.54303,-58.78738,27.61593008041382
1619090451.55866,-56.51587,27.63156008720398
1619090451.57429,-49.47157,27.64719009399414
1619090451.58991,-39.92879,27.66281008720398
1619090451.60554,-29.97807,27.67844009399414
1619090451.62116,-21.29769,27.69406008720398
1619090451.63679,-15.58126,27.70969009399414
1619090451.65241,-13.83259,27.72531008720398
1619090451.66804,-15.99175,27.74094009399414
1619090451.68367,-21.01514,27.7565701007843
1619090451.69929,-27.41031,27.77219009399414
1619090451.71492,-33.64706,27.7878201007843
1619090451.73054,-39.48713,27.80344009399414
1619090451.74617,-45.87448,27.8190701007843
1619090451.76179,-53.98092,27.83469009399414
1619090451.77742,-65.60907,27.8503201007843
1619090451.79305,-81.93602,27.865950107574463
1619090451.80867,-102.6999,27.8815701007843
1619090451.8243,-126.0368,27.897200107574463
1619090451.83992,-148.6363,27.9128201007843
1619090451.85555,-166.0074,27.928450107574463
1619090451.87117,-173.8673,27.9440701007843
1619090451.8868,-168.8643,27.959700107574463
1619090451.90243,-146.7684,27.975330114364624
1619090451.91805,-108.6498,27.990950107574463
1619090451.93368,-61.45197,28.006580114364624
1619090451.9493,-16.00578,28.022200107574463
1619090451.96493,17.39903,28.037830114364624
1619090451.98055,32.5746,28.053450107574463
1619090451.99618,31.43688,28.069080114364624
1619090452.01181,19.24496,28.084710121154785
1619090452.02743,1.621071,28.100330114364624
1619090452.04306,-17.47592,28.115960121154785
1619090452.05868,-36.03307,28.131580114364624
1619090452.07431,-53.4388,28.147210121154785
1619090452.08993,-69.23409,28.162830114364624
1619090452.10556,-82.30749,28.178460121154785
1619090452.12119,-91.05633,28.194090127944946
1619090452.13681,-94.0534,28.209710121154785
1619090452.15244,-91.23823,28.225340127944946
1619090452.16806,-83.71159,28.240960121154785
1619090452.18369,-73.30787,28.256590127944946
1619090452.19931,-62.20461,28.272210121154785
1619090452.21494,-51.91859,28.287840127944946
1619090452.23057,-42.84956,28.303470134735107
1619090452.24619,-34.45227,28.319090127944946
1619090452.26182,-25.89821,28.334720134735107
1619090452.27744,-16.71098,28.350340127944946
1619090452.29307,-7.315418,28.365970134735107
1619090452.30869,1.484272,28.381590127944946
1619090452.32432,8.960487,28.397220134735107
1619090452.33995,14.53283,28.41285014152527
1619090452.35557,18.04695,28.428470134735107
1619090452.3712,19.86718,28.44410014152527
1619090452.38682,20.71738,28.459720134735107
1619090452.40245,21.33654,28.47535014152527
1619090452.41807,22.26471,28.490970134735107
1619090452.4337,23.55834,28.50660014152527
1619090452.44933,25.04326,28.52223014831543
1619090452.46495,26.519,28.53785014152527
1619090452.48058,27.69853,28.55348014831543
1619090452.4962,28.32438,28.56910014152527
1619090452.51183,28.27004,28.58473014831543
1619090452.52745,27.52596,28.60035014152527
1619090452.54308,26.21506,28.61598014831543
1619090452.55871,24.54037,28.63161015510559
1619090452.57433,22.61545,28.64723014831543
1619090452.58996,20.56093,28.66286015510559
1619090452.60558,18.49634,28.67848014831543
1619090452.62121,16.46119,28.69411015510559
1619090452.63683,14.44046,28.70973014831543
1619090452.65246,12.38266,28.72536015510559
1619090452.66809,10.25368,28.740990161895752
1619090452.68371,7.97716,28.75661015510559
1619090452.69934,5.453531,28.772240161895752
1619090452.71496,2.563762,28.78786015510559
1619090452.73059,-0.7579594,28.803490161895752
1619090452.74621,-4.424078,28.81911015510559
1619090452.76184,-8.203039,28.834740161895752
1619090452.77747,-11.78138,28.850370168685913
1619090452.79309,-14.86463,28.865990161895752
1619090452.80872,-17.3086,28.881620168685913
1619090452.82434,-19.18247,28.897240161895752
1619090452.83997,-20.73442,28.912870168685913
1619090452.85559,-22.32069,28.928490161895752
1619090452.87122,-24.30783,28.944120168685913
1619090452.88685,-26.90894,28.959750175476074
1619090452.90247,-30.09101,28.975370168685913
1619090452.9181,-33.49514,28.991000175476074
1619090452.93372,-36.40643,29.006620168685913
1619090452.94935,-37.94329,29.022250175476074
1619090452.96497,-37.26351,29.037870168685913
1619090452.9806,-33.90567,29.053500175476074
1619090452.99623,-27.96993,29.069129943847656
1619090453.01185,-20.09829,29.084750175476074
1619090453.02748,-11.27808,29.100379943847656
1619090453.0431,-2.509155,29.116000175476074
1619090453.05873,5.467606,29.131629943847656
1619090453.07436,12.29339,29.147259950637817
1619090453.08998,17.89223,29.162879943847656
1619090453.10561,22.37455,29.178509950637817
1619090453.12123,25.8744,29.194129943847656
1619090453.13686,28.52822,29.209759950637817
1619090453.15248,30.49105,29.225379943847656
1619090453.16811,31.98719,29.241009950637817
1619090453.18374,33.18846,29.25663995742798
1619090453.19936,34.15457,29.272259950637817
1619090453.21499,34.80173,29.28788995742798
1619090453.23061,34.91309,29.303509950637817
1619090453.24624,34.32442,29.31913995742798
1619090453.26186,33.05199,29.334759950637817
1619090453.27749,31.33704,29.35038995742798
1619090453.29312,29.60271,29.36601996421814
1619090453.30874,28.28136,29.38163995742798
1619090453.32437,27.59597,29.39726996421814
1619090453.33999,27.5149,29.41288995742798
1619090453.35562,27.73099,29.42851996421814
1619090453.37124,27.77853,29.44413995742798
1619090453.38687,27.25575,29.45976996421814
1619090453.4025,25.96317,29.4753999710083
1619090453.41812,23.9451,29.49101996421814
1619090453.43375,21.44414,29.5066499710083
1619090453.44937,18.74434,29.52226996421814
1619090453.465,16.06883,29.5378999710083
1619090453.48062,13.49687,29.55351996421814
1619090453.49625,11.00642,29.5691499710083
1619090453.51188,8.557037,29.584779977798462
1619090453.5275,6.125153,29.6003999710083
1619090453.54313,3.753906,29.616029977798462
1619090453.55875,1.46637,29.6316499710083
1619090453.57438,-0.7613373,29.647279977798462
1619090453.59,-3.001205,29.6628999710083
1619090453.60563,-5.311996,29.678529977798462
1619090453.62126,-7.70665,29.694159984588623
1619090453.63688,-10.14984,29.709779977798462
1619090453.65251,-12.62708,29.725409984588623
1619090453.66813,-15.24342,29.741029977798462
1619090453.68376,-18.26433,29.756659984588623
1619090453.69938,-21.99538,29.772279977798462
1619090453.71501,-26.57404,29.787909984588623
1619090453.73064,-31.76852,29.803539991378784
1619090453.74626,-36.8667,29.819159984588623
1619090453.76189,-40.82344,29.834789991378784
1619090453.77751,-42.5882,29.850409984588623
1619090453.79314,-41.41118,29.866039991378784
1619090453.80876,-37.12582,29.881659984588623
1619090453.82439,-30.22661,29.897289991378784
1619090453.84002,-21.69244,29.912919998168945
1619090453.85564,-12.68988,29.928539991378784
1619090453.87127,-4.208984,29.944169998168945
1619090453.88689,3.135941,29.959789991378784
1619090453.90252,9.195541,29.975419998168945
1619090453.91814,14.13319,29.991039991378784
1619090453.93377,18.25786,30.006669998168945
1619090453.9494,21.79858,30.022300004959106
1619090453.96502,24.84692,30.037919998168945
1619090453.98065,27.32414,30.053550004959106
1619090453.99627,29.0872,30.069169998168945
1619090454.0119,30.04599,30.084800004959106
1619090454.02752,30.2309,30.100419998168945
1619090454.04315,29.86972,30.116050004959106
1619090454.05878,29.25104,30.131680011749268
1619090454.0744,28.60139,30.147300004959106
1619090454.09003,27.98029,30.162930011749268
1619090454.10565,27.31294,30.178550004959106
1619090454.12128,26.43459,30.194180011749268
1619090454.1369,25.31049,30.209800004959106
1619090454.15253,24.08047,30.225430011749268
1619090454.16816,23.00368,30.24106001853943
1619090454.18378,22.31979,30.256680011749268
1619090454.19941,22.07996,30.27231001853943
1619090454.21503,22.01349,30.287930011749268
1619090454.23066,21.69336,30.30356001853943
1619090454.24628,20.72742,30.319180011749268
1619090454.26191,18.9722,30.33481001853943
1619090454.27754,16.59114,30.35044002532959
1619090454.29316,13.90007,30.36606001853943
1619090454.30879,11.15643,30.38169002532959
1619090454.32441,8.419495,30.39731001853943
1619090454.34004,5.54985,30.41294002532959
1619090454.35566,2.382797,30.42856001853943
1619090454.37129,-1.087753,30.44419002532959
1619090454.38692,-4.676727,30.45982003211975
1619090454.40254,-8.095856,30.47544002532959
1619090454.41817,-11.15547,30.49107003211975
1619090454.43379,-13.92641,30.50669002532959
1619090454.44942,-16.72533,30.52232003211975
1619090454.46504,-19.97606,30.53794002532959
1619090454.48067,-23.96867,30.55357003211975
1619090454.4963,-28.65195,30.569200038909912
1619090454.51192,-33.57033,30.58482003211975
1619090454.52755,-37.95253,30.600450038909912
1619090454.54317,-40.93871,30.61607003211975
1619090454.5588,-41.80983,30.631700038909912
1619090454.57442,-40.16266,30.64732003211975
1619090454.59005,-36.01842,30.662950038909912
1619090454.60568,-29.72079,30.678580045700073
1619090454.6213,-21.89493,30.694200038909912
1619090454.63693,-13.26172,30.709830045700073
1619090454.65255,-4.530045,30.725450038909912
1619090454.66818,3.692551,30.741080045700073
1619090454.6838,10.94905,30.756700038909912
1619090454.69943,17.0096,30.772330045700073
1619090454.71506,21.81625,30.787960052490234
1619090454.73068,25.47656,30.803580045700073
1619090454.74631,28.15239,30.819210052490234
1619090454.76193,29.98444,30.834830045700073
1619090454.77756,31.06963,30.850460052490234
1619090454.79318,31.44414,30.866080045700073
1619090454.80881,31.18121,30.881710052490234
1619090454.82444,30.4046,30.897340059280396
1619090454.84006,29.32784,30.912960052490234
1619090454.85569,28.20483,30.928590059280396
1619090454.87131,27.25644,30.944210052490234
1619090454.88694,26.58784,30.959840059280396
1619090454.90256,26.18182,30.975460052490234
1619090454.91819,25.93613,30.991090059280396
1619090454.93382,25.69014,31.006720066070557
1619090454.94944,25.30305,31.022340059280396
1619090454.96507,24.66127,31.037970066070557
1619090454.98069,23.70717,31.053590059280396
1619090454.99632,22.42627,31.069220066070557
1619090455.01194,20.87404,31.084840059280396
1619090455.02757,19.11743,31.100470066070557
1619090455.0432,17.21532,31.116100072860718
1619090455.05882,15.13902,31.131720066070557
1619090455.07445,12.80391,31.147350072860718
1619090455.09007,10.08633,31.162970066070557
1619090455.1057,6.934464,31.178600072860718
1619090455.12132,3.437698,31.194220066070557
1619090455.13695,-0.1851807,31.209850072860718
1619090455.15258,-3.651703,31.22548007965088
1619090455.1682,-6.74707,31.241100072860718
1619090455.18383,-9.432327,31.25673007965088
1619090455.19945,-11.86917,31.272350072860718
1619090455.21508,-14.33109,31.28798007965088
1619090455.2307,-17.07047,31.303600072860718
1619090455.24633,-20.19954,31.31923007965088
1619090455.26196,-23.71127,31.33486008644104
1619090455.27758,-27.54366,31.35048007965088
1619090455.29321,-31.65613,31.36611008644104
1619090455.30883,-35.99167,31.38173007965088
1619090455.32446,-40.37856,31.39736008644104
1619090455.34009,-44.37276,31.4129900932312
1619090455.35571,-47.2298,31.42861008644104
1619090455.37134,-48.05174,31.4442400932312
1619090455.38696,-46.12724,31.45986008644104
1619090455.40259,-41.23254,31.4754900932312
1619090455.41821,-33.77608,31.49111008644104
1619090455.43384,-24.68892,31.5067400932312
1619090455.44947,-15.12694,31.522370100021362
1619090455.46509,-6.103241,31.5379900932312
1619090455.48072,1.722412,31.553620100021362
1619090455.49634,8.116196,31.5692400932312
1619090455.51197,13.19824,31.584870100021362
1619090455.52759,17.26556,31.6004900932312
1619090455.54322,20.65923,31.616120100021362
1619090455.55885,23.6106,31.631750106811523
1619090455.57447,26.20834,31.647370100021362
1619090455.5901,28.36559,31.663000106811523
1619090455.60572,29.92366,31.678620100021362
1619090455.62135,30.76297,31.694250106811523
1619090455.63697,30.88751,31.709870100021362
1619090455.6526,30.46649,31.725500106811523
1619090455.66823,29.76503,31.741130113601685
1619090455.68385,29.02139,31.756750106811523
1619090455.69948,28.36678,31.772380113601685
1619090455.7151,27.7981,31.788000106811523
1619090455.73073,27.23651,31.803630113601685
1619090455.74635,26.63724,31.819250106811523
1619090455.76198,26.03687,31.834880113601685
1619090455.77761,25.49348,31.850510120391846
1619090455.79323,25.03912,31.866130113601685
1619090455.80886,24.5975,31.881760120391846
1619090455.82448,24.00366,31.897380113601685
1619090455.84011,23.05193,31.913010120391846
1619090455.85573,21.59047,31.928630113601685
1619090455.87136,19.60818,31.944260120391846
1619090455.88699,17.24574,31.959890127182007
1619090455.90261,14.73412,31.975510120391846
1619090455.91824,12.31396,31.991140127182007
1619090455.93386,10.1367,32.006760120391846
1619090455.94949,8.177826,32.02239012718201
1619090455.96511,6.224884,32.038010120391846
1619090455.98074,3.975693,32.05364012718201
1619090455.99637,1.150604,32.06927013397217
1619090456.01199,-2.344894,32.08489012718201
1619090456.02762,-6.40451,32.10052013397217
1619090456.04324,-10.748,32.11614012718201
1619090456.05887,-15.03049,32.13177013397217
1619090456.07449,-18.96991,32.14739012718201
1619090456.09012,-22.38362,32.16302013397217
1619090456.10575,-25.26588,32.17865014076233
1619090456.12137,-27.76088,32.19427013397217
1619090456.137,-30.17274,32.20990014076233
1619090456.15262,-32.87138,32.22552013397217
1619090456.16825,-36.20328,32.24115014076233
1619090456.18387,-40.2897,32.25677013397217
1619090456.1995,-44.8615,32.27240014076233
1619090456.21513,-49.25751,32.28803014755249
1619090456.23075,-52.56355,32.30365014076233
1619090456.24638,-53.89061,32.31928014755249
1619090456.262,-52.67291,32.33490014076233
1619090456.27763,-48.8759,32.35053014755249
1619090456.29325,-42.89307,32.36615014076233
1619090456.30888,-35.41024,32.38178014755249
1619090456.32451,-27.13365,32.39741015434265
1619090456.34013,-18.61462,32.41303014755249
1619090456.35576,-10.28783,32.42866015434265
1619090456.37138,-2.478134,32.44428014755249
1619090456.38701,4.501289,32.45991015434265
1619090456.40263,10.39545,32.47553014755249
1619090456.41826,15.04396,32.49116015434265
1619090456.43389,18.46574,32.50679016113281
1619090456.44951,20.85423,32.52241015434265
1619090456.46514,22.49944,32.53804016113281
1619090456.48076,23.69851,32.55366015434265
1619090456.49639,24.6701,32.56929016113281
1619090456.51201,25.53841,32.58491015434265
1619090456.52764,26.33554,32.60054016113281
1619090456.54327,27.0404,32.616170167922974
1619090456.55889,27.62792,32.63179016113281
1619090456.57452,28.06462,32.647420167922974
1619090456.59014,28.35178,32.66304016113281
1619090456.60577,28.49183,32.678670167922974
1619090456.62139,28.50063,32.69429016113281
1619090456.63702,28.36423,32.709920167922974
1619090456.65265,28.09118,32.725550174713135
1619090456.66827,27.68781,32.741170167922974
1619090456.6839,27.13686,32.756800174713135
1619090456.69952,26.42002,32.772420167922974
1619090456.71515,25.49318,32.788050174713135
1619090456.73077,24.3272,32.803670167922974
1619090456.7464,22.94035,32.819300174713135
1619090456.76203,21.38003,32.83492994308472
1619090456.77765,19.68992,32.850550174713135
1619090456.79328,17.88638,32.86617994308472
1619090456.8089,15.90889,32.881800174713135
1619090456.82453,13.65247,32.89742994308472
1619090456.84015,11.09805,32.913050174713135
1619090456.85578,8.32206,32.92867994308472
1619090456.87141,5.551811,32.94430994987488
1619090456.88703,3.018127,32.95992994308472
1619090456.90266,0.848465,32.97555994987488
1619090456.91828,-1.027954,32.99117994308472
1619090456.93391,-2.924316,33.00680994987488
1619090456.94953,-5.209099,33.02242994308472
1619090456.96516,-8.115082,33.03805994987488
1619090456.98079,-11.64833,33.05368995666504
1619090456.99641,-15.57519,33.06930994987488
1619090457.01204,-19.56834,33.08493995666504
1619090457.02766,-23.34186,33.10055994987488
1619090457.04329,-26.79613,33.11618995666504
1619090457.05891,-29.99299,33.13180994987488
1619090457.07454,-33.16035,33.14743995666504
1619090457.09017,-36.55174,33.1630699634552
1619090457.10579,-40.32116,33.17868995666504
1619090457.12142,-44.37428,33.1943199634552
1619090457.13704,-48.3145,33.20993995666504
1619090457.15267,-51.47399,33.2255699634552
1619090457.16829,-53.04033,33.24118995666504
1619090457.18392,-52.34072,33.2568199634552
1619090457.19955,-49.00136,33.27244997024536
1619090457.21517,-43.13808,33.2880699634552
1619090457.2308,-35.28462,33.30369997024536
1619090457.24642,-26.26454,33.3193199634552
1619090457.26205,-17.00787,33.33494997024536
1619090457.27767,-8.327621,33.3505699634552
1619090457.2933,-0.7777023,33.36619997024536
1619090457.30893,5.393936,33.38182997703552
1619090457.32455,10.1841,33.39744997024536
1619090457.34018,13.80782,33.41307997703552
1619090457.3558,16.52886,33.42869997024536
1619090457.37143,18.59927,33.44432997703552
1619090457.38705,20.17133,33.45994997024536
1619090457.40268,21.28894,33.47557997703552
1619090457.41831,21.99022,33.491209983825684
1619090457.43393,22.30437,33.50682997703552
1619090457.44956,22.31786,33.522459983825684
1619090457.46518,22.11096,33.53807997703552
1619090457.48081,21.7327,33.553709983825684
1619090457.49643,21.15273,33.56932997703552
1619090457.51206,20.33785,33.584959983825684
1619090457.52769,19.29518,33.600589990615845
1619090457.54331,18.13187,33.616209983825684
1619090457.55894,17.0626,33.631839990615845
1619090457.57456,16.25755,33.647459983825684
1619090457.59019,15.73217,33.663089990615845
1619090457.60581,15.30297,33.678709983825684
1619090457.62144,14.65287,33.694339990615845
1619090457.63707,13.47406,33.709969997406006
1619090457.65269,11.63105,33.725589990615845
1619090457.66832,9.244762,33.741219997406006
1619090457.68394,6.599136,33.756839990615845
1619090457.69957,3.989643,33.772469997406006
1619090457.71519,1.577816,33.788089990615845
1619090457.73082,-0.7065048,33.803719997406006
1619090457.74645,-3.05983,33.81935000419617
1619090457.76207,-5.694,33.834969997406006
1619090457.7777,-8.738564,33.85060000419617
1619090457.79332,-12.15167,33.866219997406006
1619090457.80895,-15.71664,33.88185000419617
1619090457.82457,-19.03831,33.897469997406006
1619090457.8402,-21.54531,33.91310000419617
1619090457.85583,-22.58183,33.92873001098633
1619090457.87145,-21.6007,33.94435000419617
1619090457.88708,-18.33846,33.95998001098633
1619090457.9027,-13.04208,33.97560000419617
1619090457.91833,-6.392181,33.99123001098633
1619090457.93396,0.6427803,34.00686001777649
1619090457.94958,7.188702,34.02248001098633
1619090457.96521,12.67328,34.03811001777649
1619090457.98083,16.92065,34.05373001098633
1619090457.99646,20.05344,34.06936001777649
1619090458.01208,22.23601,34.08498001098633
1619090458.02771,23.53796,34.10061001777649
1619090458.04334,23.90093,34.11624002456665
1619090458.05896,23.29202,34.13186001777649
1619090458.07459,21.85351,34.14749002456665
1619090458.09021,19.88364,34.16311001777649
1619090458.10584,17.81126,34.17874002456665
1619090458.12146,16.02169,34.19436001777649
1619090458.13709,14.78245,34.20999002456665
1619090458.15272,14.1678,34.22562003135681
1619090458.16834,14.07471,34.24124002456665
1619090458.18397,14.28926,34.25687003135681
1619090458.19959,14.52773,34.27249002456665
1619090458.21522,14.58059,34.28812003135681
1619090458.23084,14.36091,34.30374002456665
1619090458.24647,13.95994,34.31937003135681
1619090458.2621,13.55593,34.33500003814697
1619090458.27772,13.30336,34.35062003135681
1619090458.29335,13.20161,34.36625003814697
1619090458.30897,13.04462,34.38187003135681
1619090458.3246,12.55505,34.39750003814697
1619090458.34022,11.5203,34.41312003135681
1619090458.35585,9.975586,34.42875003814697
1619090458.37148,8.157882,34.444380044937134
1619090458.3871,6.425221,34.46000003814697
1619090458.40273,5.015195,34.475630044937134
1619090458.41835,3.994959,34.49125003814697
1619090458.43398,3.211338,34.506880044937134
1619090458.4496,2.482913,34.52250003814697
1619090458.46523,1.698261,34.538130044937134
1619090458.48086,0.8296146,34.553760051727295
1619090458.49648,-0.04667091,34.569380044937134
1619090458.51211,-0.8753948,34.585010051727295
1619090458.52773,-1.631893,34.600630044937134
1619090458.54336,-2.357351,34.616260051727295
1619090458.55898,-3.124994,34.631880044937134
1619090458.57461,-4.010241,34.647510051727295
1619090458.59024,-5.088589,34.663140058517456
1619090458.60586,-6.371048,34.678760051727295
1619090458.62149,-7.811085,34.694390058517456
1619090458.63711,-9.352459,34.710010051727295
1619090458.65274,-10.90891,34.725640058517456
1619090458.66836,-12.43938,34.741260051727295
1619090458.68399,-13.95987,34.756890058517456
1619090458.69962,-15.51643,34.77252006530762
1619090458.71524,-17.17897,34.788140058517456
1619090458.73087,-18.96755,34.80377006530762
1619090458.74649,-20.85542,34.819390058517456
1619090458.76212,-22.75267,34.83502006530762
1619090458.77774,-24.58923,34.850640058517456
1619090458.79337,-26.33691,34.86627006530762
1619090458.809,-28.04997,34.88190007209778
1619090458.82462,-29.8108,34.89752006530762
1619090458.84025,-31.74675,34.91315007209778
1619090458.85587,-33.9914,34.92877006530762
1619090458.8715,-36.67678,34.94440007209778
1619090458.88712,-39.89262,34.96002006530762
1619090458.90275,-43.57285,34.97565007209778
1619090458.91838,-47.33148,34.99128007888794
1619090458.934,-50.46561,35.00690007209778
1619090458.94963,-52.07503,35.02253007888794
1619090458.96525,-51.3356,35.03815007209778
1619090458.98088,-47.80738,35.05378007888794
1619090458.9965,-41.64356,35.06940007209778
1619090459.01213,-33.5179,35.08503007888794
1619090459.02776,-24.44022,35.1006600856781
1619090459.04338,-15.42789,35.11628007888794
1619090459.05901,-7.194611,35.1319100856781
1619090459.07463,-0.08612823,35.14753007888794
1619090459.09026,5.837944,35.1631600856781
1619090459.10588,10.67556,35.17878007888794
1619090459.12151,14.5616,35.1944100856781
1619090459.13714,17.57142,35.21004009246826
1619090459.15276,19.75163,35.2256600856781
1619090459.16839,21.17546,35.24129009246826
1619090459.18401,21.92048,35.2569100856781
1619090459.19964,22.1226,35.27254009246826
1619090459.21526,21.91688,35.2881600856781
1619090459.23089,21.45529,35.30379009246826
1619090459.24652,20.84507,35.31942009925842
1619090459.26214,20.1554,35.33504009246826
1619090459.27777,19.38398,35.35067009925842
1619090459.29339,18.51636,35.36629009246826
1619090459.30902,17.58559,35.38192009925842
1619090459.32464,16.68265,35.39754009246826
1619090459.34027,15.95102,35.41317009925842
1619090459.3559,15.479,35.428800106048584
1619090459.37152,15.23425,35.44442009925842
1619090459.38715,15.04756,35.460050106048584
1619090459.40277,14.68569,35.47567009925842
1619090459.4184,13.95956,35.491300106048584
1619090459.43402,12.79806,35.50692009925842
1619090459.44965,11.22016,35.522550106048584
1619090459.46528,9.267334,35.538180112838745
1619090459.4809,6.963486,35.553800106048584
1619090459.49653,4.281677,35.569430112838745
1619090459.51215,1.246178,35.585050106048584
1619090459.52778,-2.017395,35.600680112838745
1619090459.5434,-5.310295,35.616300106048584
1619090459.55903,-8.439278,35.631930112838745
1619090459.57466,-11.33234,35.647560119628906
1619090459.59028,-14.07752,35.663180112838745
1619090459.60591,-16.87981,35.678810119628906
1619090459.62153,-19.95477,35.694430112838745
1619090459.63716,-23.42277,35.710060119628906
1619090459.65278,-27.29111,35.725680112838745
1619090459.66841,-31.467,35.741310119628906
1619090459.68404,-35.79685,35.75694012641907
1619090459.69966,-39.98331,35.772560119628906
1619090459.71529,-43.57413,35.78819012641907
1619090459.73091,-45.9219,35.803810119628906
1619090459.74654,-46.31454,35.81944012641907
1619090459.76216,-44.21913,35.835060119628906
1619090459.77779,-39.54544,35.85069012641907
1619090459.79342,-32.78036,35.86632013320923
1619090459.80904,-24.84635,35.88194012641907
1619090459.82467,-16.79889,35.89757013320923
1619090459.84029,-9.442776,35.91319012641907
1619090459.85592,-3.114544,35.92882013320923
1619090459.87154,2.290268,35.94444012641907
1619090459.88717,7.072926,35.96007013320923
1619090459.9028,11.46515,35.97570013999939
1619090459.91842,15.43185,35.99132013320923
1619090459.93405,18.7238,36.00695013999939
1619090459.94967,21.06284,36.02257013320923
1619090459.9653,22.34902,36.03820013999939
1619090459.98092,22.76442,36.05382013320923
1619090459.99655,22.67665,36.06945013999939
1619090460.01218,22.42882,36.08508014678955
1619090460.0278,22.17972,36.10070013999939
1619090460.04343,21.89677,36.11633014678955
1619090460.05905,21.43559,36.13195013999939
1619090460.07468,20.67575,36.14758014678955
1619090460.0903,19.65097,36.16320013999939
1619090460.10593,18.50548,36.17883014678955
1619090460.12156,17.38411,36.19446015357971
1619090460.13718,16.34709,36.21008014678955
1619090460.15281,15.32808,36.22571015357971
1619090460.16843,14.20808,36.24133014678955
1619090460.18406,12.84649,36.25696015357971
1619090460.19969,11.20671,36.27259016036987
1619090460.21531,9.324799,36.28821015357971
1619090460.23094,7.291634,36.30384016036987
1619090460.24656,5.177074,36.31946015357971
1619090460.26219,2.974861,36.33509016036987
1619090460.27781,0.641346,36.35071015357971
1619090460.29344,-1.857735,36.36634016036987
1619090460.30907,-4.506821,36.381970167160034
1619090460.32469,-7.202911,36.39759016036987
1619090460.34032,-9.837025,36.413220167160034
1619090460.35594,-12.35446,36.42884016036987
1619090460.37157,-14.81146,36.444470167160034
1619090460.38719,-17.39812,36.46009016036987
1619090460.40282,-20.37592,36.475720167160034
1619090460.41845,-23.98127,36.491350173950195
1619090460.43407,-28.29516,36.506970167160034
1619090460.4497,-33.13477,36.522600173950195
1619090460.46532,-38.00888,36.538220167160034
1619090460.48095,-42.16633,36.553850173950195
1619090460.49657,-44.73624,36.569470167160034
1619090460.5122,-44.95789,36.585100173950195
1619090460.52783,-42.46701,36.60072994232178
1619090460.54345,-37.4304,36.616350173950195
1619090460.55908,-30.50442,36.63197994232178
1619090460.5747,-22.68732,36.647600173950195
1619090460.59033,-14.96483,36.66322994232178
1619090460.60595,-8.031792,36.678850173950195
1619090460.62158,-2.146713,36.69447994232178
1619090460.63721,2.817528,36.71010994911194
1619090460.65283,7.167959,36.72572994232178
1619090460.66846,11.16949,36.74135994911194
1619090460.68408,14.8913,36.75697994232178
1619090460.69971,18.24911,36.77260994911194
1619090460.71533,21.08726,36.78822994232178
1619090460.73096,23.27771,36.80385994911194
1619090460.74659,24.8017,36.8194899559021
1619090460.76221,25.67846,36.83510994911194
1619090460.77784,25.9805,36.8507399559021
1619090460.79346,25.78158,36.86635994911194
1619090460.80909,25.19397,36.8819899559021
1619090460.82471,24.39248,36.89760994911194
1619090460.84034,23.5658,36.9132399559021
1619090460.85597,22.86893,36.92886996269226
1619090460.87159,22.34377,36.9444899559021
1619090460.88722,21.91888,36.96011996269226
1619090460.90284,21.42145,36.9757399559021
1619090460.91847,20.70578,36.99136996269226
1619090460.93409,19.69065,37.0069899559021
1619090460.94972,18.395,37.02261996269226
1619090460.96535,16.87289,37.03824996948242
1619090460.98097,15.12653,37.05386996269226
1619090460.9966,13.07074,37.06949996948242
1619090461.01222,10.55965,37.08511996269226
1619090461.02785,7.529733,37.10074996948242
1619090461.04347,4.053739,37.11636996269226
1619090461.0591,0.3780909,37.13199996948242
1619090461.07473,-3.165221,37.14762997627258
1619090461.09035,-6.279585,37.16324996948242
1619090461.10598,-8.839788,37.17887997627258
1619090461.1216,-10.95245,37.19449996948242
1619090461.13723,-12.89757,37.21012997627258
1619090461.15285,-15.04928,37.22574996948242
1619090461.16848,-17.73056,37.24137997627258
1619090461.18411,-21.12243,37.257009983062744
1619090461.19973,-25.24221,37.27262997627258
1619090461.21536,-29.90352,37.288259983062744
1619090461.23098,-34.7384,37.30387997627258
1619090461.24661,-39.19864,37.319509983062744
1619090461.26223,-42.56718,37.33512997627258
1619090461.27786,-44.09519,37.350759983062744
1619090461.29349,-43.1701,37.366389989852905
1619090461.30911,-39.50513,37.382009983062744
1619090461.32474,-33.33859,37.397639989852905
1619090461.34036,-25.38335,37.413259983062744
1619090461.35599,-16.61649,37.428889989852905
1619090461.37161,-7.999489,37.444509983062744
1619090461.38724,-0.19804,37.460139989852905
1619090461.40287,6.502506,37.475769996643066
1619090461.41849,12.1288,37.491389989852905
1619090461.43412,16.84653,37.507019996643066
1619090461.44974,20.76321,37.522639989852905
1619090461.46537,23.90417,37.538269996643066
1619090461.48099,26.20042,37.553889989852905
1619090461.49662,27.65,37.569519996643066
1619090461.51225,28.30923,37.58515000343323
1619090461.52787,28.32567,37.600769996643066
1619090461.5435,27.87022,37.61640000343323
1619090461.55912,27.07921,37.632019996643066
1619090461.57475,26.0588,37.64765000343323
1619090461.59037,24.89759,37.663269996643066
1619090461.606,23.6947,37.67890000343323
1619090461.62163,22.50332,37.69453001022339
1619090461.63725,21.33245,37.71015000343323
1619090461.65288,20.13813,37.72578001022339
1619090461.6685,18.87521,37.74140000343323
1619090461.68413,17.55875,37.75703001022339
1619090461.69975,16.30004,37.77265000343323
1619090461.71538,15.25474,37.78828001022339
1619090461.73101,14.54627,37.80391001701355
1619090461.74663,14.09153,37.81953001022339
1619090461.76226,13.59164,37.83516001701355
1619090461.77788,12.62789,37.85078001022339
1619090461.79351,10.86829,37.86641001701355
1619090461.80913,8.292244,37.88203001022339
1619090461.82476,5.194908,37.89766001701355
1619090461.84039,2.032284,37.91329002380371
1619090461.85601,-0.9019699,37.92891001701355
1619090461.87164,-3.629078,37.94454002380371
1619090461.88726,-6.473167,37.96016001701355
1619090461.90289,-9.792248,37.97579002380371
1619090461.91851,-13.72691,37.99141001701355
1619090461.93414,-18.08799,38.00704002380371
1619090461.94977,-22.49919,38.02267003059387
1619090461.96539,-26.63351,38.03829002380371
1619090461.98102,-30.37308,38.05392003059387
1619090461.99664,-33.74525,38.06954002380371
1619090462.01227,-36.68476,38.08517003059387
1619090462.02789,-38.82515,38.10079002380371
1619090462.04352,-39.47614,38.11642003059387
1619090462.05915,-37.9035,38.13205003738403
1619090462.07477,-33.68517,38.14767003059387
1619090462.0904,-26.91228,38.16330003738403
1619090462.10602,-18.24378,38.17892003059387
1619090462.12165,-8.689766,38.19455003738403
1619090462.13727,0.6670456,38.21017003059387
1619090462.1529,8.964584,38.22580003738403
1619090462.16853,15.72229,38.241430044174194
1619090462.18415,20.84895,38.25705003738403
1619090462.19978,24.57624,38.272680044174194
1619090462.2154,27.28069,38.28830003738403
1619090462.23103,29.48043,38.303930044174194
1619090462.24665,31.54685,38.31955003738403
1619090462.26228,33.58241,38.335180044174194
1619090462.27791,35.41608,38.350810050964355
1619090462.29353,36.75533,38.366430044174194
1619090462.30916,37.41319,38.382060050964355
1619090462.32478,37.48238,38.397680044174194
1619090462.34041,37.2677,38.413310050964355
1619090462.35603,37.09801,38.428930044174194
1619090462.37166,37.38486,38.444560050964355
1619090462.38729,38.27865,38.46019005775452
1619090462.40291,39.63564,38.475810050964355
1619090462.41854,41.04963,38.49144005775452
1619090462.43416,42.06146,38.507060050964355
1619090462.44979,42.44105,38.52269005775452
1619090462.46542,42.31442,38.53832006454468
1619090462.48104,42.15763,38.55394005775452
1619090462.49667,42.61767,38.56957006454468
1619090462.51229,44.56766,38.58519005775452
1619090462.52792,48.69979,38.60082006454468
1619090462.54354,55.29227,38.61644005775452
1619090462.55917,63.92543,38.63207006454468
1619090462.5748,73.3759,38.64770007133484
1619090462.59042,81.80192,38.66332006454468
1619090462.60605,87.07843,38.67895007133484
1619090462.62167,87.30124,38.69457006454468
1619090462.6373,79.64406,38.71020007133484
1619090462.65292,63.19783,38.72582006454468
1619090462.66855,39.80415,38.74145007133484
1619090462.68418,13.89263,38.757080078125
1619090462.6998,-9.307507,38.77270007133484
1619090462.71543,-26.16589,38.788330078125
1619090462.73105,-35.86808,38.80395007133484
1619090462.74668,-39.83487,38.819580078125
1619090462.7623,-40.13012,38.83520007133484
1619090462.77793,-38.03774,38.850830078125
1619090462.79356,-33.68642,38.86646008491516
1619090462.80918,-27.06399,38.882080078125
1619090462.82481,-18.04062,38.89771008491516
1619090462.84043,-7.369479,38.913330078125
1619090462.85606,3.255397,38.92896008491516
1619090462.87168,11.97493,38.944580078125
1619090462.88731,17.46474,38.96021008491516
1619090462.90294,19.26134,38.97584009170532
1619090462.91856,17.65544,38.99146008491516
1619090462.93419,13.12471,39.00709009170532
1619090462.94981,6.284857,39.02271008491516
1619090462.96544,-2.119335,39.03834009170532
1619090462.98106,-11.07882,39.05396008491516
1619090462.99669,-19.60169,39.06959009170532
1619090463.01232,-27.07141,39.08522009849548
1619090463.02794,-33.56582,39.10084009170532
1619090463.04357,-40.14386,39.11647009849548
1619090463.05919,-48.40633,39.13209009170532
1619090463.07482,-60.35489,39.14772009849548
1619090463.09044,-77.11498,39.16334009170532
1619090463.10607,-98.21832,39.17897009849548
1619090463.1217,-121.504,39.194600105285645
1619090463.13732,-143.5279,39.21022009849548
1619090463.15295,-160.243,39.225850105285645
1619090463.16857,-167.8401,39.24147009849548
1619090463.1842,-163.8304,39.257100105285645
1619090463.19982,-144.1218,39.27272009849548
1619090463.21545,-109.0797,39.288350105285645
1619090463.23108,-63.95304,39.303980112075806
1619090463.2467,-17.60516,39.319600105285645
1619090463.26233,20.70765,39.335230112075806
1619090463.27795,44.93682,39.350850105285645
1619090463.29358,53.60052,39.366480112075806
1619090463.3092,50.11138,39.382100105285645
1619090463.32483,38.95211,39.397730112075806
1619090463.34046,24.14124,39.41336011886597
1619090463.35608,7.99794,39.428980112075806
1619090463.37171,-8.20121,39.44461011886597
1619090463.38733,-22.97321,39.460230112075806
1619090463.40296,-35.19603,39.47586011886597
1619090463.41858,-44.22367,39.491480112075806
1619090463.43421,-50.09293,39.50711011886597
1619090463.44984,-53.45768,39.52274012565613
1619090463.46546,-55.47663,39.53836011886597
1619090463.48109,-57.14514,39.55399012565613
1619090463.49671,-59.35668,39.56961011886597
1619090463.51234,-62.17871,39.58524012565613
1619090463.52796,-64.84081,39.60086011886597
1619090463.54359,-66.12032,39.61649012565613
1619090463.55922,-64.76726,39.63212013244629
1619090463.57484,-60.03021,39.64774012565613
1619090463.59047,-51.96934,39.66337013244629
1619090463.60609,-41.57703,39.67899012565613
1619090463.62172,-30.24682,39.69462013244629
1619090463.63734,-19.63981,39.71024012565613
1619090463.65297,-10.87354,39.72587013244629
1619090463.6686,-4.193981,39.74150013923645
1619090463.68422,0.9510217,39.75712013244629
1619090463.69985,5.552418,39.77275013923645
1619090463.71547,10.44703,39.78837013244629
1619090463.7311,15.90569,39.80400013923645
1619090463.74672,21.45385,39.81962013244629
1619090463.76235,26.27927,39.83525013923645
1619090463.77798,29.5409,39.85088014602661
1619090463.7936,30.92761,39.86650013923645
1619090463.80923,30.80099,39.88213014602661
1619090463.82485,29.98706,39.89775013923645
1619090463.84048,29.3612,39.91338014602661
1619090463.8561,29.48548,39.92900013923645
1619090463.87173,30.40068,39.94463014602661
1619090463.88736,31.65229,39.96026015281677
1619090463.90298,32.66926,39.97588014602661
1619090463.91861,32.99151,39.99151015281677
1619090463.93423,32.51185,40.00713014602661
1619090463.94986,31.44171,40.02276015281677
1619090463.96548,30.08713,40.03838014602661
1619090463.98111,28.64708,40.05401015281677
1619090463.99674,27.07168,40.069640159606934
1619090464.01236,25.15696,40.08526015281677
1619090464.02799,22.71799,40.100890159606934
1619090464.04361,19.76449,40.11651015281677
1619090464.05924,16.54803,40.132140159606934
1619090464.07486,13.39944,40.14776015281677
1619090464.09049,10.4946,40.163390159606934
1619090464.10612,7.72979,40.179020166397095
1619090464.12174,4.830528,40.194640159606934
1619090464.13737,1.529411,40.210270166397095
1619090464.15299,-2.158974,40.225890159606934
1619090464.16862,-5.938721,40.241520166397095
1619090464.18424,-9.347076,40.257140159606934
1619090464.19987,-12.02579,40.272770166397095
1619090464.2155,-13.92509,40.288400173187256
1619090464.23112,-15.36792,40.304020166397095
1619090464.24675,-16.83891,40.319650173187256
1619090464.26237,-18.79645,40.335270166397095
1619090464.278,-21.49866,40.350900173187256
1619090464.29362,-24.93433,40.366520166397095
1619090464.30925,-28.84702,40.382150173187256
1619090464.32488,-32.72466,40.39777994155884
1619090464.3405,-35.85168,40.413400173187256
1619090464.35613,-37.39146,40.42902994155884
1619090464.37175,-36.56993,40.444650173187256
1619090464.38738,-32.97411,40.46027994155884
1619090464.403,-26.72432,40.475900173187256
1619090464.41863,-18.54572,40.49152994155884
1619090464.43426,-9.473618,40.507159948349
1619090464.44988,-0.517868,40.52277994155884
1619090464.46551,7.647354,40.538409948349
1619090464.48113,14.82654,40.55402994155884
1619090464.49676,21.13722,40.569659948349
1619090464.51238,26.7672,40.58527994155884
1619090464.52801,31.75885,40.600909948349
1619090464.54364,36.00092,40.61653995513916
1619090464.55926,39.31636,40.632159948349
1619090464.57489,41.65851,40.64778995513916
1619090464.59051,43.13878,40.663409948349
1619090464.60614,43.98526,40.67903995513916
1619090464.62176,44.42188,40.694659948349
1619090464.63739,44.52576,40.71028995513916
1619090464.65302,44.25406,40.72591996192932
1619090464.66864,43.52113,40.74153995513916
1619090464.68427,42.29951,40.75716996192932
1619090464.69989,40.72845,40.77278995513916
1619090464.71552,39.11501,40.78841996192932
1619090464.73114,37.76929,40.80403995513916
1619090464.74677,36.90627,40.81966996192932
1619090464.7624,36.50717,40.83529996871948
1619090464.77802,36.36389,40.85091996192932
1619090464.79365,36.16017,40.86654996871948
1619090464.80927,35.58949,40.88216996192932
1619090464.8249,34.49055,40.89779996871948
1619090464.84052,32.8127,40.91341996192932
1619090464.85615,30.62469,40.92904996871948
1619090464.87178,28.01759,40.944679975509644
1619090464.8874,25.0715,40.96029996871948
1619090464.90303,21.88437,40.975929975509644
1619090464.91865,18.55969,40.99154996871948
1619090464.93428,15.28162,41.007179975509644
1619090464.9499,12.27141,41.02279996871948
1619090464.96553,9.719849,41.038429975509644
1619090464.98116,7.688461,41.054059982299805
1619090464.99678,6.040451,41.069679975509644
1619090465.01241,4.474319,41.085309982299805
1619090465.02803,2.642715,41.100929975509644
1619090465.04366,0.3306122,41.116559982299805
1619090465.05929,-2.409897,41.132189989089966
1619090465.07491,-5.321625,41.147809982299805
1619090465.09054,-8.061615,41.163439989089966
1619090465.10616,-10.40959,41.179059982299805
1619090465.12179,-12.44044,41.194689989089966
1619090465.13741,-14.42491,41.210309982299805
1619090465.15304,-16.7737,41.225939989089966
1619090465.16867,-19.74162,41.24156999588013
1619090465.18429,-23.39058,41.257189989089966
1619090465.19992,-27.5213,41.27281999588013
1619090465.21554,-31.73387,41.288439989089966
1619090465.23117,-35.49445,41.30406999588013
1619090465.24679,-38.1745,41.319689989089966
1619090465.26242,-39.17224,41.33531999588013
1619090465.27805,-38.01491,41.35095000267029
1619090465.29367,-34.51953,41.36656999588013
1619090465.3093,-28.90176,41.38220000267029
1619090465.32492,-21.73378,41.39781999588013
1619090465.34055,-13.82571,41.41345000267029
1619090465.35617,-5.927383,41.42906999588013
1619090465.3718,1.484467,41.44470000267029
1619090465.38743,8.222626,41.46033000946045
1619090465.40305,14.33777,41.47595000267029
1619090465.41868,19.92068,41.49158000946045
1619090465.4343,24.93015,41.50720000267029
1619090465.44993,29.19052,41.52283000946045
1619090465.46555,32.51553,41.53845000267029
1619090465.48118,34.87021,41.55408000946045
1619090465.49681,36.48135,41.56971001625061
1619090465.51243,37.78741,41.58533000946045
1619090465.52806,39.18826,41.60096001625061
1619090465.54368,40.80008,41.61658000946045
1619090465.55931,42.33841,41.63221001625061
1619090465.57493,43.20058,41.64783000946045
1619090465.59056,42.82516,41.66346001625061
1619090465.60619,41.02884,41.67909002304077
1619090465.62181,38.09169,41.69471001625061
1619090465.63744,34.69168,41.71034002304077
1619090465.65306,31.52315,41.72596001625061
1619090465.66869,29.00598,41.74159002304077
1619090465.68431,27.12775,41.75721001625061
1619090465.69994,25.55365,41.77284002304077
1619090465.71557,23.83929,41.78847002983093
1619090465.73119,21.66208,41.80409002304077
1619090465.74682,18.93903,41.81972002983093
1619090465.76244,15.75584,41.83534002304077
1619090465.77807,12.31046,41.85097002983093
1619090465.79369,8.770004,41.86659002304077
1619090465.80932,5.243744,41.88222002983093
1619090465.82495,1.811859,41.897850036621094
1619090465.84057,-1.468887,41.91347002983093
1619090465.8562,-4.548798,41.929100036621094
1619090465.87182,-7.34227,41.94472002983093
1619090465.88745,-9.804108,41.960350036621094
1619090465.90307,-11.93033,41.97597002983093
1619090465.9187,-13.77299,41.991600036621094
1619090465.93433,-15.49069,42.007230043411255
1619090465.94995,-17.29512,42.022850036621094
1619090465.96558,-19.38435,42.038480043411255
1619090465.9812,-21.88734,42.054100036621094
1619090465.99683,-24.85213,42.069730043411255
1619090466.01245,-28.23117,42.085350036621094
1619090466.02808,-31.96211,42.100980043411255
1619090466.04371,-35.93303,42.116610050201416
1619090466.05933,-39.94157,42.132230043411255
1619090466.07496,-43.60744,42.147860050201416
1619090466.09058,-46.34288,42.163480043411255
1619090466.10621,-47.43369,42.179110050201416
1619090466.12183,-46.31091,42.194730043411255
1619090466.13746,-42.77043,42.210360050201416
1619090466.15309,-37.07234,42.22599005699158
1619090466.16871,-29.88759,42.241610050201416
1619090466.18434,-22.07259,42.25724005699158
1619090466.19996,-14.35176,42.272860050201416
1619090466.21559,-7.167252,42.28849005699158
1619090466.23121,-0.621048,42.304110050201416
1619090466.24684,5.383636,42.31974005699158
1619090466.26247,10.91913,42.33537006378174
1619090466.27809,15.92067,42.35099005699158
1619090466.29372,20.16127,42.36662006378174
1619090466.30934,23.3634,42.38224005699158
1619090466.32497,25.35991,42.39787006378174
1619090466.34059,26.18484,42.41349005699158
1619090466.35622,26.08258,42.42912006378174
1619090466.37185,25.42877,42.4447500705719
1619090466.38747,24.6116,42.46037006378174
1619090466.4031,23.90521,42.4760000705719
1619090466.41872,23.39787,42.49162006378174
1619090466.43435,23.04791,42.5072500705719
1619090466.44997,22.74666,42.52287006378174
1619090466.4656,22.40086,42.5385000705719
1619090466.48123,21.96359,42.55413007736206
1619090466.49685,21.41681,42.5697500705719
1619090466.51248,20.77156,42.58538007736206
1619090466.5281,19.98662,42.6010000705719
1619090466.54373,19.02957,42.61663007736206
1619090466.55935,17.87366,42.6322500705719
1619090466.57498,16.52434,42.64788007736206
1619090466.59061,14.99582,42.66351008415222
1619090466.60623,13.31941,42.67913007736206
1619090466.62186,11.49263,42.69476008415222
1619090466.63748,9.466217,42.71038007736206
1619090466.65311,7.196518,42.72601008415222
1619090466.66873,4.673508,42.74163007736206
1619090466.68436,1.956116,42.75726008415222
1619090466.69999,-0.8260345,42.77289009094238
1619090466.71561,-3.54808,42.78851008415222
1619090466.73124,-6.163132,42.80414009094238
1619090466.74686,-8.71759,42.81976008415222
1619090466.76249,-11.33412,42.83539009094238
1619090466.77811,-14.15193,42.85101008415222
1619090466.79374,-17.3217,42.86664009094238
1619090466.80937,-20.9153,42.882270097732544
1619090466.82499,-24.94785,42.89789009094238
1619090466.84062,-29.33089,42.913520097732544
1619090466.85624,-33.84616,42.92914009094238
1619090466.87187,-38.13364,42.944770097732544
1619090466.88749,-41.63992,42.96039009094238
1619090466.90312,-43.67862,42.976020097732544
1619090466.91875,-43.59192,42.991650104522705
1619090466.93437,-40.9418,43.007270097732544
1619090466.95,-35.69067,43.022900104522705
1619090466.96562,-28.26878,43.038520097732544
1619090466.98125,-19.5217,43.054150104522705
1619090466.99687,-10.47362,43.069770097732544
1619090467.0125,-2.061752,43.085400104522705
1619090467.02813,5.089737,43.101030111312866
1619090467.04375,10.77522,43.116650104522705
1619090467.05938,15.14554,43.132280111312866
1619090467.075,18.53008,43.147900104522705
1619090467.09063,21.24043,43.163530111312866
1619090467.10625,23.43724,43.179150104522705
1619090467.12188,25.12729,43.194780111312866
1619090467.13751,26.26579,43.21041011810303
1619090467.15313,26.85564,43.226030111312866
1619090467.16876,27.00491,43.24166011810303
1619090467.18438,26.83984,43.257280111312866
1619090467.20001,26.42503,43.27291011810303
1619090467.21564,25.71651,43.28854012489319
1619090467.23126,24.59486,43.30416011810303
1619090467.24689,22.99255,43.31979012489319
1619090467.26251,20.99188,43.33541011810303
1619090467.27814,18.85114,43.35104012489319
1619090467.29376,16.84976,43.36666011810303
1619090467.30939,15.1747,43.38229012489319
1619090467.32502,13.84923,43.39792013168335
1619090467.34064,12.70622,43.41354012489319
1619090467.35627,11.54608,43.42917013168335
1619090467.37189,10.19391,43.44479012489319
1619090467.38752,8.576019,43.46042013168335
1619090467.40314,6.671371,43.47604012489319
1619090467.41877,4.507706,43.49167013168335
1619090467.4344,2.082123,43.50730013847351
1619090467.45002,-0.6404266,43.52292013168335
1619090467.46565,-3.68103,43.53855013847351
1619090467.48127,-7.023773,43.55417013168335
1619090467.4969,-10.6033,43.56980013847351
1619090467.51252,-14.31487,43.58542013168335
1619090467.52815,-18.05679,43.60105013847351
1619090467.54378,-21.77756,43.61668014526367
1619090467.5594,-25.48422,43.63230013847351
1619090467.57503,-29.21997,43.64793014526367
1619090467.59065,-32.99208,43.66355013847351
1619090467.60628,-36.68427,43.67918014526367
1619090467.6219,-39.96526,43.69480013847351
1619090467.63753,-42.27785,43.71043014526367
1619090467.65316,-43.00838,43.72606015205383
1619090467.66878,-41.6506,43.74168014526367
1619090467.68441,-38.03905,43.75731015205383
1619090467.70003,-32.38129,43.77293014526367
1619090467.71566,-25.21385,43.78856015205383
1619090467.73128,-17.222,43.80418014526367
1619090467.74691,-9.050858,43.81981015205383
1619090467.76254,-1.198608,43.835440158843994
1619090467.77816,6.052216,43.85106015205383
1619090467.79379,12.57413,43.866690158843994
1619090467.80941,18.29927,43.88231015205383
1619090467.82504,23.18336,43.897940158843994
1619090467.84066,27.23048,43.91356015205383
1619090467.85629,30.45357,43.929190158843994
1619090467.87192,32.88734,43.944820165634155
1619090467.88754,34.60278,43.960440158843994
1619090467.90317,35.67346,43.976070165634155
1619090467.91879,36.21629,43.991690158843994
1619090467.93442,36.37199,44.007320165634155
1619090467.95004,36.2336,44.022940158843994
1619090467.96567,35.88809,44.038570165634155
1619090467.9813,35.55933,44.054200172424316
1619090467.99692,35.40163,44.069820165634155
1619090468.01255,35.47837,44.085450172424316
1619090468.02817,35.65849,44.101070165634155
1619090468.0438,35.65955,44.116700172424316
1619090468.05942,35.2215,44.132320165634155
1619090468.07505,34.28014,44.147950172424316
1619090468.09068,32.99921,44.1635799407959
1619090468.1063,31.75142,44.179200172424316
1619090468.12193,31.18253,44.1948299407959
1619090468.13755,31.71413,44.210450172424316
1619090468.15318,33.28227,44.2260799407959
1619090468.1688,35.25473,44.241700172424316
1619090468.18443,36.66022,44.2573299407959
1619090468.20006,36.6701,44.27295994758606
1619090468.21568,35.02549,44.2885799407959
1619090468.23131,32.13897,44.30420994758606
1619090468.24693,29.08742,44.3198299407959
1619090468.26256,27.56805,44.33545994758606
1619090468.27818,29.10937,44.3510799407959
1619090468.29381,34.48112,44.36670994758606
1619090468.30944,43.12164,44.38233995437622
1619090468.32506,53.10035,44.39795994758606
1619090468.34069,61.65587,44.41358995437622
1619090468.35631,65.93774,44.42920994758606
1619090468.37194,63.76143,44.44483995437622
1619090468.38756,52.9847,44.46045994758606
1619090468.40319,34.20029,44.47608995437622
1619090468.41882,10.74227,44.49171996116638
1619090468.43444,-12.15112,44.50733995437622
1619090468.45007,-29.64404,44.52296996116638
1619090468.46569,-39.22816,44.53858995437622
1619090468.48132,-41.26806,44.55421996116638
1619090468.49694,-38.20337,44.56983995437622
1619090468.51257,-33.35324,44.58546996116638
1619090468.5282,-29.3946,44.60109996795654
1619090468.54382,-27.5248,44.61671996116638
1619090468.55945,-28.12345,44.63234996795654
1619090468.57507,-30.24942,44.64796996116638
1619090468.5907,-32.77434,44.66359996795654
1619090468.60632,-34.46769,44.67921996116638
1619090468.62195,-34.06239,44.69484996795654
1619090468.63758,-30.81123,44.710479974746704
1619090468.6532,-25.46867,44.72609996795654
1619090468.66883,-19.77295,44.741729974746704
1619090468.68445,-15.60376,44.75734996795654
1619090468.70008,-14.43931,44.772979974746704
1619090468.7157,-16.80558,44.78859996795654
1619090468.73133,-22.46168,44.804229974746704
1619090468.74696,-31.13076,44.819859981536865
1619090468.76258,-42.37735,44.835479974746704
1619090468.77821,-55.83556,44.851109981536865
1619090468.79383,-71.73562,44.866729974746704
1619090468.80946,-89.92201,44.882359981536865
1619090468.82508,-109.1467,44.897979974746704
1619090468.84071,-127.0122,44.913609981536865
1619090468.85634,-140.2201,44.929239988327026
1619090468.87196,-146.1199,44.944859981536865
1619090468.88759,-142.9684,44.960489988327026
1619090468.90321,-129.9926,44.976109981536865
1619090468.91884,-104.6706,44.991739988327026
1619090468.93446,-68.25558,45.007359981536865
1619090468.95009,-25.76852,45.022989988327026
1619090468.96572,15.23523,45.03861999511719
1619090468.98134,46.01732,45.054239988327026
1619090468.99697,63.9819,45.06986999511719
1619090469.01259,69.81438,45.085489988327026
1619090469.02822,65.91405,45.10111999511719
1619090469.04384,55.38784,45.116739988327026
1619090469.05947,41.30548,45.13236999511719
1619090469.0751,25.70765,45.14800000190735
1619090469.09072,10.14902,45.16361999511719
1619090469.10635,-4.058609,45.17925000190735
1619090469.12197,-15.68558,45.19486999511719
1619090469.1376,-23.53139,45.21050000190735
1619090469.15322,-27.52544,45.22611999511719
1619090469.16885,-28.51122,45.24175000190735
1619090469.18448,-27.8951,45.25738000869751
1619090469.2001,-27.25274,45.27300000190735
1619090469.21573,-28.15277,45.28863000869751
1619090469.23135,-31.19145,45.30425000190735
1619090469.24698,-35.75471,45.31988000869751
1619090469.2626,-40.41237,45.33550000190735
1619090469.27823,-43.57668,45.35113000869751
1619090469.29386,-44.6964,45.36676001548767
1619090469.30948,-44.25153,45.38238000869751
1619090469.32511,-43.3075,45.39801001548767
1619090469.34073,-42.96434,45.41363000869751
1619090469.35636,-44.13379,45.42926001548767
1619090469.37198,-46.868,45.44488000869751
1619090469.38761,-50.30914,45.46051001548767
1619090469.40324,-52.98117,45.47614002227783
1619090469.41886,-53.23644,45.49176001548767
1619090469.43449,-50.19305,45.50739002227783
1619090469.45011,-43.85847,45.52301001548767
1619090469.46574,-35.00435,45.53864002227783
1619090469.48136,-24.86999,45.55426001548767
1619090469.49699,-14.89819,45.56989002227783
1619090469.51262,-6.177164,45.58552002906799
1619090469.52824,0.8378181,45.60114002227783
1619090469.54387,6.324472,45.61677002906799
1619090469.55949,10.90082,45.63239002227783
1619090469.57512,15.00576,45.64802002906799
1619090469.59074,18.78534,45.66364002227783
1619090469.60637,22.04742,45.67927002906799
1619090469.622,24.51124,45.694900035858154
1619090469.63762,25.95864,45.71052002906799
1619090469.65325,26.45855,45.726150035858154
1619090469.66887,26.33163,45.74177002906799
1619090469.6845,25.97902,45.757400035858154
1619090469.70012,25.64038,45.77302002906799
1619090469.71575,25.26935,45.788650035858154
1619090469.73138,24.65064,45.804280042648315
1619090469.747,23.65862,45.819900035858154
1619090469.76263,22.43561,45.835530042648315
1619090469.77825,21.33188,45.851150035858154
1619090469.79388,20.68885,45.866780042648315
1619090469.8095,20.58879,45.882400035858154
1619090469.82513,20.74985,45.898030042648315
1619090469.84076,20.66101,45.91366004943848
1619090469.85638,19.86648,45.929280042648315
1619090469.87201,18.18666,45.94491004943848
1619090469.88763,15.78526,45.960530042648315
1619090469.90326,13.0193,45.97616004943848
1619090469.91889,10.2297,45.99179005622864
1619090469.93451,7.590816,46.00741004943848
1619090469.95014,5.137535,46.02304005622864
1619090469.96576,2.832207,46.03866004943848
1619090469.98139,0.6172409,46.05429005622864
1619090469.99701,-1.557426,46.06991004943848
1619090470.01264,-3.799622,46.08554005622864
1619090470.02827,-6.329826,46.1011700630188
1619090470.04389,-9.418076,46.11679005622864
1619090470.05952,-13.29857,46.1324200630188
1619090470.07514,-18.02058,46.14804005622864
1619090470.09077,-23.36904,46.1636700630188
1619090470.10639,-28.89526,46.17929005622864
1619090470.12202,-33.95695,46.1949200630188
