timestamp,value,norm_ts
1618821501.25516,-19.30551,1.2421600818634033
1618821501.27078,-33.89978,1.2577800750732422
1618821501.28641,-46.38126,1.2734100818634033
1618821501.30203,-54.96835,1.2890300750732422
1618821501.31766,-58.40527,1.3046600818634033
1618821501.33328,-56.07397,1.3202800750732422
1618821501.34891,-48.47415,1.3359100818634033
1618821501.36454,-37.44418,1.3515400886535645
1618821501.38016,-25.86697,1.3671600818634033
1618821501.39579,-17.16809,1.3827900886535645
1618821501.41141,-14.2489,1.3984100818634033
1618821501.42704,-18.57504,1.4140400886535645
1618821501.44266,-29.70047,1.4296600818634033
1618821501.45829,-45.55142,1.4452900886535645
1618821501.47392,-63.08313,1.4609200954437256
1618821501.48954,-79.34583,1.4765400886535645
1618821501.50517,-92.21259,1.4921700954437256
1618821501.52079,-100.5576,1.5077900886535645
1618821501.53642,-104.1592,1.5234200954437256
1618821501.55204,-103.3299,1.5390400886535645
1618821501.56767,-98.51759,1.5546700954437256
1618821501.5833,-90.26456,1.5703001022338867
1618821501.59892,-79.21664,1.5859200954437256
1618821501.61455,-66.10448,1.6015501022338867
1618821501.63017,-51.80246,1.6171700954437256
1618821501.6458,-37.24155,1.6328001022338867
1618821501.66142,-23.28459,1.6484200954437256
1618821501.67705,-10.60179,1.6640501022338867
1618821501.69268,0.3354034,1.6796798706054688
1618821501.7083,9.31694,1.6953001022338867
1618821501.72393,16.29044,1.7109298706054688
1618821501.73955,21.20028,1.7265501022338867
1618821501.75518,24.15435,1.7421798706054688
1618821501.7708,25.43514,1.7578001022338867
1618821501.78643,25.71365,1.7734298706054688
1618821501.80206,26.09995,1.7890598773956299
1618821501.81768,27.90146,1.8046798706054688
1618821501.83331,32.33283,1.8203098773956299
1618821501.84893,40.14149,1.8359298706054688
1618821501.86456,51.37164,1.8515598773956299
1618821501.88018,65.36855,1.8671798706054688
1618821501.89581,80.93044,1.8828098773956299
1618821501.91144,96.49693,1.898439884185791
1618821501.92706,110.2804,1.9140598773956299
1618821501.94269,120.4646,1.929689884185791
1618821501.95831,125.5296,1.9453098773956299
1618821501.97394,124.5718,1.960939884185791
1618821501.98956,117.6595,1.9765598773956299
1618821502.00519,105.8985,1.992189884185791
1618821502.02082,91.18266,2.007819890975952
1618821502.03644,75.67152,2.023439884185791
1618821502.05207,61.18481,2.039069890975952
1618821502.06769,48.78011,2.054689884185791
1618821502.08332,38.72552,2.070319890975952
1618821502.09894,30.69798,2.085939884185791
1618821502.11457,24.09132,2.101569890975952
1618821502.1302,18.30034,2.1171998977661133
1618821502.14582,12.93443,2.132819890975952
1618821502.16145,7.850723,2.1484498977661133
1618821502.17707,3.100021,2.164069890975952
1618821502.1927,-1.215973,2.1796998977661133
1618821502.20832,-5.075943,2.195319890975952
1618821502.22395,-8.644104,2.2109498977661133
1618821502.23958,-12.30815,2.2265799045562744
1618821502.2552,-16.52347,2.2421998977661133
1618821502.27083,-21.5618,2.2578299045562744
1618821502.28645,-27.21121,2.2734498977661133
1618821502.30208,-32.72731,2.2890799045562744
1618821502.3177,-37.02399,2.3046998977661133
1618821502.33333,-39.07095,2.3203299045562744
1618821502.34896,-38.29153,2.3359599113464355
1618821502.36458,-34.71115,2.3515799045562744
1618821502.38021,-28.95076,2.3672099113464355
1618821502.39583,-21.80649,2.3828299045562744
1618821502.41146,-13.90997,2.3984599113464355
1618821502.42708,-5.444855,2.4140799045562744
1618821502.44271,3.670624,2.4297099113464355
1618821502.45834,13.47729,2.4453399181365967
1618821502.47396,23.62137,2.4609599113464355
1618821502.48959,33.19373,2.4765899181365967
1618821502.50521,41.04001,2.4922099113464355
1618821502.52084,46.17987,2.5078399181365967
1618821502.53646,48.36902,2.5234599113464355
1618821502.55209,48.26541,2.5390899181365967
1618821502.56772,47.16287,2.554719924926758
1618821502.58334,46.36996,2.5703399181365967
1618821502.59897,46.63589,2.585969924926758
1618821502.61459,47.88635,2.6015899181365967
1618821502.63022,49.37781,2.617219924926758
1618821502.64584,50.24649,2.6328399181365967
1618821502.66147,50.14114,2.648469924926758
1618821502.6771,49.53809,2.664099931716919
1618821502.69272,49.56467,2.679719924926758
1618821502.70835,51.44232,2.695349931716919
1618821502.72397,55.8241,2.710969924926758
1618821502.7396,62.53583,2.726599931716919
1618821502.75522,70.84064,2.742219924926758
1618821502.77085,80.05212,2.757849931716919
1618821502.78648,89.96616,2.77347993850708
1618821502.8021,101.0685,2.789099931716919
1618821502.81773,113.9693,2.80472993850708
1618821502.83335,128.6848,2.820349931716919
1618821502.84898,144.1942,2.83597993850708
1618821502.8646,158.5808,2.851599931716919
1618821502.88023,169.5949,2.86722993850708
1618821502.89586,175.435,2.882859945297241
1618821502.91148,174.9871,2.89847993850708
1618821502.92711,167.5644,2.914109945297241
1618821502.94273,152.4946,2.92972993850708
1618821502.95836,128.9505,2.945359945297241
1618821502.97398,96.46063,2.96097993850708
1618821502.98961,55.88858,2.976609945297241
1618821503.00524,10.21906,2.9922399520874023
1618821503.02086,-35.58698,3.007859945297241
1618821503.03649,-75.81946,3.0234899520874023
1618821503.05211,-105.7138,3.039109945297241
1618821503.06774,-122.9894,3.0547399520874023
1618821503.08336,-128.1509,3.070359945297241
1618821503.09899,-123.8525,3.0859899520874023
1618821503.11462,-113.4042,3.1016199588775635
1618821503.13024,-99.59341,3.1172399520874023
1618821503.14587,-84.1922,3.1328699588775635
1618821503.16149,-68.16632,3.1484899520874023
1618821503.17712,-52.31277,3.1641199588775635
1618821503.19274,-37.70285,3.1797399520874023
1618821503.20837,-25.66678,3.1953699588775635
1618821503.224,-17.33017,3.2109999656677246
1618821503.23962,-13.2265,3.2266199588775635
1618821503.25525,-12.96494,3.2422499656677246
1618821503.27087,-15.33517,3.2578699588775635
1618821503.2865,-18.73517,3.2734999656677246
1618821503.30212,-21.58273,3.2891199588775635
1618821503.31775,-22.76581,3.3047499656677246
1618821503.33338,-21.94376,3.3203799724578857
1618821503.349,-19.40427,3.3359999656677246
1618821503.36463,-15.7276,3.3516299724578857
1618821503.38025,-11.47803,3.3672499656677246
1618821503.39588,-6.855743,3.3828799724578857
1618821503.4115,-1.802979,3.3984999656677246
1618821503.42713,3.652222,3.4141299724578857
1618821503.44276,9.103119,3.429759979248047
1618821503.45838,13.66272,3.4453799724578857
1618821503.47401,16.16327,3.461009979248047
1618821503.48963,15.80621,3.4766299724578857
1618821503.50526,12.55173,3.492259979248047
1618821503.52088,7.274475,3.5078799724578857
1618821503.53651,1.427887,3.523509979248047
1618821503.55214,-3.598969,3.539139986038208
1618821503.56776,-7.19809,3.554759979248047
1618821503.58339,-9.677734,3.570389986038208
1618821503.59901,-12.04602,3.586009979248047
1618821503.61464,-15.28125,3.601639986038208
1618821503.63027,-19.55637,3.617269992828369
1618821503.64589,-23.9339,3.632889986038208
1618821503.66152,-26.59924,3.648519992828369
1618821503.67714,-25.61911,3.664139986038208
1618821503.69277,-19.91321,3.679769992828369
1618821503.70839,-9.935425,3.695389986038208
1618821503.72402,2.433899,3.711019992828369
1618821503.73965,14.51038,3.7266499996185303
1618821503.75527,23.90854,3.742269992828369
1618821503.7709,29.33267,3.7578999996185303
1618821503.78652,30.8674,3.773519992828369
1618821503.80215,29.65576,3.7891499996185303
1618821503.81777,27.2692,3.804769992828369
1618821503.8334,25.04712,3.8203999996185303
1618821503.84903,23.87738,3.8360300064086914
1618821503.86465,24.25519,3.8516499996185303
1618821503.88028,26.29642,3.8672800064086914
1618821503.8959,29.85522,3.8828999996185303
1618821503.91153,34.44296,3.8985300064086914
1618821503.92715,39.1409,3.9141499996185303
1618821503.94278,42.69107,3.9297800064086914
1618821503.95841,43.82806,3.9454100131988525
1618821503.97403,41.57751,3.9610300064086914
1618821503.98966,35.61032,3.9766600131988525
1618821504.00528,26.31711,3.9922800064086914
1618821504.02091,14.55444,4.0079100131988525
1618821504.03653,1.439392,4.023530006408691
1618821504.05216,-11.84277,4.0391600131988525
1618821504.06779,-24.12817,4.054790019989014
1618821504.08341,-34.42297,4.0704100131988525
1618821504.09904,-41.96768,4.086040019989014
1618821504.11466,-46.39935,4.1016600131988525
1618821504.13029,-47.7594,4.117290019989014
1618821504.14591,-46.48856,4.1329100131988525
1618821504.16154,-43.33392,4.148540019989014
1618821504.17717,-39.08051,4.164170026779175
1618821504.19279,-34.41736,4.179790019989014
1618821504.20842,-29.6749,4.195420026779175
1618821504.22404,-24.80704,4.211040019989014
1618821504.23967,-19.44986,4.226670026779175
1618821504.25529,-13.0535,4.242290019989014
1618821504.27092,-5.140381,4.257920026779175
1618821504.28655,4.411377,4.273550033569336
1618821504.30217,15.27429,4.289170026779175
1618821504.3178,26.76682,4.304800033569336
1618821504.33342,38.05573,4.320420026779175
1618821504.34905,48.453,4.336050033569336
1618821504.36467,57.61777,4.351670026779175
1618821504.3803,65.53769,4.367300033569336
1618821504.39593,72.37494,4.382930040359497
1618821504.41155,78.2196,4.398550033569336
1618821504.42718,82.97568,4.414180040359497
1618821504.4428,86.39273,4.429800033569336
1618821504.45843,88.26166,4.445430040359497
1618821504.47405,88.55377,4.461050033569336
1618821504.48968,87.41116,4.476680040359497
1618821504.50531,85.1051,4.492310047149658
1618821504.52093,81.76764,4.507930040359497
1618821504.53656,77.3544,4.523560047149658
1618821504.55218,71.57037,4.539180040359497
1618821504.56781,64.01105,4.554810047149658
1618821504.58343,54.29626,4.570430040359497
1618821504.59906,42.23862,4.586060047149658
1618821504.61469,27.92249,4.601690053939819
1618821504.63031,11.90286,4.617310047149658
1618821504.64594,-4.697968,4.632940053939819
1618821504.66156,-20.3896,4.648560047149658
1618821504.67719,-33.54515,4.664190053939819
1618821504.69281,-42.89136,4.679810047149658
1618821504.70844,-47.91476,4.695440053939819
1618821504.72407,-49.02301,4.7110700607299805
1618821504.73969,-47.32018,4.726690053939819
1618821504.75532,-44.21875,4.7423200607299805
1618821504.77094,-40.84772,4.757940053939819
1618821504.78657,-37.80099,4.7735700607299805
1618821504.80219,-35.21765,4.789190053939819
1618821504.81782,-33.12386,4.8048200607299805
1618821504.83345,-31.70589,4.820450067520142
1618821504.84907,-31.37415,4.8360700607299805
1618821504.8647,-32.55063,4.851700067520142
1618821504.88032,-35.28583,4.8673200607299805
1618821504.89595,-39.12679,4.882950067520142
1618821504.91157,-43.18224,4.8985700607299805
1618821504.9272,-46.48497,4.914200067520142
1618821504.94283,-48.41637,4.929830074310303
1618821504.95845,-48.90657,4.945450067520142
1618821504.97408,-48.39276,4.961080074310303
1618821504.9897,-47.5186,4.976700067520142
1618821505.00533,-46.78062,4.992330074310303
1618821505.02095,-46.37897,5.007950067520142
1618821505.03658,-46.19713,5.023580074310303
1618821505.05221,-45.96141,5.039210081100464
1618821505.06783,-45.40964,5.054830074310303
1618821505.08346,-44.47354,5.070460081100464
1618821505.09908,-43.23419,5.086080074310303
1618821505.11471,-41.85312,5.101710081100464
1618821505.13033,-40.48468,5.117330074310303
1618821505.14596,-39.19403,5.132960081100464
1618821505.16159,-37.88023,5.148590087890625
1618821505.17721,-36.29521,5.164210081100464
1618821505.19284,-34.0153,5.179840087890625
1618821505.20846,-30.52718,5.195460081100464
1618821505.22409,-25.4395,5.211090087890625
1618821505.23971,-18.57025,5.226710081100464
1618821505.25534,-10.07953,5.242340087890625
1618821505.27097,-0.4198151,5.257970094680786
1618821505.28659,9.768845,5.273590087890625
1618821505.30222,19.83701,5.289220094680786
1618821505.31784,29.21637,5.304840087890625
1618821505.33347,37.37601,5.320470094680786
1618821505.34909,43.82361,5.336090087890625
1618821505.36472,48.0386,5.351720094680786
1618821505.38035,49.69196,5.367350101470947
1618821505.39597,48.75452,5.382970094680786
1618821505.4116,45.62634,5.398600101470947
1618821505.42722,41.0966,5.414220094680786
1618821505.44285,36.06288,5.429850101470947
1618821505.45847,31.27702,5.445470094680786
1618821505.4741,27.07366,5.461100101470947
1618821505.48973,23.44038,5.476729869842529
1618821505.50535,20.17864,5.492350101470947
1618821505.52098,17.16096,5.507979869842529
1618821505.5366,14.41998,5.523600101470947
1618821505.55223,12.09827,5.539229869842529
1618821505.56785,10.2989,5.554850101470947
1618821505.58348,8.932892,5.570479869842529
1618821505.59911,7.715889,5.58610987663269
1618821505.61473,6.309135,5.601729869842529
1618821505.63036,4.471718,5.61735987663269
1618821505.64598,2.158646,5.632979869842529
1618821505.66161,-0.5604858,5.64860987663269
1618821505.67723,-3.689613,5.664229869842529
1618821505.69286,-7.382263,5.67985987663269
1618821505.70849,-11.92947,5.695489883422852
1618821505.72411,-17.53356,5.71110987663269
1618821505.73974,-24.08279,5.726739883422852
1618821505.75536,-31.07587,5.74235987663269
1618821505.77099,-37.67293,5.757989883422852
1618821505.78661,-43.01094,5.77360987663269
1618821505.80224,-46.42985,5.789239883422852
1618821505.81787,-47.68501,5.804869890213013
1618821505.83349,-46.94168,5.820489883422852
1618821505.84912,-44.65177,5.836119890213013
1618821505.86474,-41.38537,5.851739883422852
1618821505.88037,-37.65035,5.867369890213013
1618821505.89599,-33.84953,5.882989883422852
1618821505.91162,-30.30373,5.898619890213013
1618821505.92725,-27.29745,5.914249897003174
1618821505.94287,-24.98718,5.929869890213013
1618821505.9585,-23.47337,5.945499897003174
1618821505.97412,-22.65528,5.961119890213013
1618821505.98975,-22.32411,5.976749897003174
1618821506.00537,-22.25508,5.992369890213013
1618821506.021,-22.21313,6.007999897003174
1618821506.03663,-22.13239,6.023629903793335
1618821506.05225,-22.10664,6.039249897003174
1618821506.06788,-22.28361,6.054879903793335
1618821506.0835,-22.72314,6.070499897003174
1618821506.09913,-23.36772,6.086129903793335
1618821506.11476,-23.92091,6.101759910583496
1618821506.13038,-24.03549,6.117379903793335
1618821506.14601,-23.49432,6.133009910583496
1618821506.16163,-22.24753,6.148629903793335
1618821506.17726,-20.54269,6.164259910583496
1618821506.19288,-18.75958,6.179879903793335
1618821506.20851,-17.25893,6.195509910583496
1618821506.22414,-16.23237,6.211139917373657
1618821506.23976,-15.67725,6.226759910583496
1618821506.25539,-15.48612,6.242389917373657
1618821506.27101,-15.45156,6.258009910583496
1618821506.28664,-15.43013,6.273639917373657
1618821506.30226,-15.18901,6.289259910583496
1618821506.31789,-14.48257,6.304889917373657
1618821506.33352,-12.91396,6.320519924163818
1618821506.34914,-10.06001,6.336139917373657
1618821506.36477,-5.638702,6.351769924163818
1618821506.38039,0.387558,6.367389917373657
1618821506.39602,7.687988,6.383019924163818
1618821506.41164,15.65631,6.398639917373657
1618821506.42727,23.46678,6.414269924163818
1618821506.4429,30.29736,6.4298999309539795
1618821506.45852,35.41992,6.445519924163818
1618821506.47415,38.4426,6.4611499309539795
1618821506.48977,39.45125,6.476769924163818
1618821506.5054,38.89803,6.4923999309539795
1618821506.52102,37.57832,6.508019924163818
1618821506.53665,36.41977,6.5236499309539795
1618821506.55228,36.22533,6.539279937744141
1618821506.5679,37.42468,6.5548999309539795
1618821506.58353,39.98322,6.570529937744141
1618821506.59915,43.32716,6.5861499309539795
1618821506.61478,46.48537,6.601779937744141
1618821506.6304,48.41075,6.6173999309539795
1618821506.64603,48.1161,6.633029937744141
1618821506.66166,45.05025,6.648659944534302
1618821506.67728,39.27695,6.664279937744141
1618821506.69291,31.42809,6.679909944534302
1618821506.70853,22.50743,6.695529937744141
1618821506.72416,13.5249,6.711159944534302
1618821506.73978,5.292343,6.726779937744141
1618821506.75541,-1.893509,6.742409944534302
1618821506.77104,-8.084213,6.758039951324463
1618821506.78666,-13.59138,6.773659944534302
1618821506.80229,-18.71863,6.789289951324463
1618821506.81791,-23.63217,6.804909944534302
1618821506.83354,-28.3096,6.820539951324463
1618821506.84916,-32.52484,6.836159944534302
1618821506.86479,-36.03427,6.851789951324463
1618821506.88042,-38.48312,6.867419958114624
1618821506.89604,-39.56462,6.883039951324463
1618821506.91167,-38.9875,6.898669958114624
1618821506.92729,-36.53551,6.914289951324463
1618821506.94292,-32.08797,6.929919958114624
1618821506.95854,-25.72006,6.945539951324463
1618821506.97417,-17.8139,6.961169958114624
1618821506.9898,-9.06308,6.976799964904785
1618821507.00542,-0.4357452,6.992419958114624
1618821507.02105,7.097168,7.008049964904785
1618821507.03667,12.74452,7.023669958114624
1618821507.0523,16.23476,7.039299964904785
1618821507.06792,17.78592,7.054919958114624
1618821507.08355,18.09576,7.070549964904785
1618821507.09918,17.97812,7.086179971694946
1618821507.1148,18.07739,7.101799964904785
1618821507.13043,18.61713,7.117429971694946
1618821507.14605,19.33418,7.133049964904785
1618821507.16168,19.64638,7.148679971694946
1618821507.1773,18.8748,7.164299964904785
1618821507.19293,16.50784,7.179929971694946
1618821507.20856,12.49414,7.195559978485107
1618821507.22418,7.232208,7.211179971694946
1618821507.23981,1.535339,7.226809978485107
1618821507.25543,-3.730255,7.242429971694946
1618821507.27106,-7.900482,7.258059978485107
1618821507.28668,-10.76706,7.273679971694946
1618821507.30231,-12.48526,7.289309978485107
1618821507.31794,-13.52342,7.3049399852752686
1618821507.33356,-14.32883,7.320559978485107
1618821507.34919,-15.15013,7.3361899852752686
1618821507.36481,-16.032,7.351809978485107
1618821507.38044,-16.91241,7.3674399852752686
1618821507.39606,-17.73764,7.383059978485107
1618821507.41169,-18.39874,7.3986899852752686
1618821507.42732,-18.75122,7.41431999206543
1618821507.44294,-18.39586,7.4299399852752686
1618821507.45857,-16.8448,7.44556999206543
1618821507.47419,-13.60904,7.4611899852752686
1618821507.48982,-8.509735,7.47681999206543
1618821507.50544,-1.975449,7.4924399852752686
1618821507.52107,5.068802,7.50806999206543
1618821507.5367,11.44398,7.523699998855591
1618821507.55232,16.16859,7.53931999206543
1618821507.56795,18.79849,7.554949998855591
1618821507.58357,19.62495,7.57056999206543
1618821507.5992,19.33038,7.586199998855591
1618821507.61482,18.7123,7.60181999206543
1618821507.63045,18.3192,7.617449998855591
1618821507.64608,18.2222,7.633080005645752
1618821507.6617,18.21046,7.648699998855591
1618821507.67733,18.04526,7.664330005645752
1618821507.69295,17.64447,7.679949998855591
1618821507.70858,17.06859,7.695580005645752
1618821507.7242,16.46198,7.711199998855591
1618821507.73983,15.84123,7.726830005645752
1618821507.75546,15.09889,7.742460012435913
1618821507.77108,14.05997,7.758080005645752
1618821507.78671,12.55025,7.773710012435913
1618821507.80233,10.55214,7.789330005645752
1618821507.81796,8.168854,7.804960012435913
1618821507.83358,5.618622,7.820580005645752
1618821507.84921,3.073776,7.836210012435913
1618821507.86484,0.6300354,7.851840019226074
1618821507.88046,-1.705414,7.867460012435913
1618821507.89609,-4.013641,7.883090019226074
1618821507.91171,-6.367142,7.898710012435913
1618821507.92734,-8.871109,7.914340019226074
1618821507.94296,-11.6189,7.929960012435913
1618821507.95859,-14.58125,7.945590019226074
1618821507.97422,-17.64291,7.961220026016235
1618821507.98984,-20.48441,7.976840019226074
1618821508.00547,-22.65182,7.992470026016235
1618821508.02109,-23.66788,8.008090019226074
1618821508.03672,-23.18982,8.023720026016235
1618821508.05234,-21.08833,8.039340019226074
1618821508.06797,-17.52046,8.054970026016235
1618821508.0836,-12.91342,8.070600032806396
1618821508.09922,-7.766632,8.086220026016235
1618821508.11485,-2.589249,8.101850032806396
1618821508.13047,2.262253,8.117470026016235
1618821508.1461,6.59845,8.133100032806396
1618821508.16172,10.32791,8.148720026016235
1618821508.17735,13.33521,8.164350032806396
1618821508.19298,15.47992,8.179980039596558
1618821508.2086,16.6546,8.195600032806396
1618821508.22423,16.85419,8.211230039596558
1618821508.23985,16.2778,8.226850032806396
1618821508.25548,15.26042,8.242480039596558
1618821508.27111,14.16544,8.258110046386719
1618821508.28673,13.25816,8.273730039596558
1618821508.30236,12.59978,8.289360046386719
1618821508.31798,12.08273,8.304980039596558
1618821508.33361,11.53903,8.320610046386719
1618821508.34923,10.91513,8.336230039596558
1618821508.36486,10.2625,8.351860046386719
1618821508.38049,9.70192,8.36749005317688
1618821508.39611,9.334335,8.383110046386719
1618821508.41174,9.081238,8.39874005317688
1618821508.42736,8.720398,8.414360046386719
1618821508.44299,8.03566,8.42999005317688
1618821508.45861,6.909546,8.445610046386719
1618821508.47424,5.39621,8.46124005317688
1618821508.48987,3.692627,8.476870059967041
1618821508.50549,1.954254,8.49249005317688
1618821508.52112,0.2091064,8.508120059967041
1618821508.53674,-1.658554,8.52374005317688
1618821508.55237,-3.896835,8.539370059967041
1618821508.56799,-6.64711,8.55499005317688
1618821508.58362,-9.805435,8.570620059967041
1618821508.59925,-12.94505,8.586250066757202
1618821508.61487,-15.4166,8.601870059967041
1618821508.6305,-16.53314,8.617500066757202
1618821508.64612,-15.8978,8.633120059967041
1618821508.66175,-13.53467,8.648750066757202
1618821508.67737,-9.886215,8.664370059967041
1618821508.693,-5.667786,8.680000066757202
1618821508.70863,-1.587509,8.695630073547363
1618821508.72425,1.886307,8.711250066757202
1618821508.73988,4.654373,8.726880073547363
1618821508.7555,6.844086,8.742500066757202
1618821508.77113,8.65448,8.758130073547363
1618821508.78675,10.16119,8.773750066757202
1618821508.80238,11.25084,8.789380073547363
1618821508.81801,11.75006,8.805010080337524
1618821508.83363,11.56973,8.820630073547363
1618821508.84926,10.79002,8.836260080337524
1618821508.86488,9.755341,8.851880073547363
1618821508.88051,8.846817,8.867510080337524
1618821508.89613,8.386047,8.883130073547363
1618821508.91176,8.50235,8.898760080337524
1618821508.92739,9.026093,8.914390087127686
1618821508.94301,9.625092,8.930010080337524
1618821508.95864,9.969482,8.945640087127686
1618821508.97426,9.782654,8.961260080337524
1618821508.98989,9.030197,8.976890087127686
1618821509.00551,7.888916,8.992510080337524
1618821509.02114,6.536179,9.008140087127686
1618821509.03677,5.068802,9.023770093917847
1618821509.05239,3.422684,9.039390087127686
1618821509.06802,1.350464,9.055020093917847
1618821509.08364,-1.340454,9.070640087127686
1618821509.09927,-4.694382,9.086270093917847
1618821509.11489,-8.559875,9.101890087127686
1618821509.13052,-12.65913,9.117520093917847
1618821509.14615,-16.70462,9.133150100708008
1618821509.16177,-20.58092,9.148770093917847
1618821509.1774,-24.22031,9.164400100708008
1618821509.19302,-27.4753,9.180020093917847
1618821509.20865,-29.96498,9.195650100708008
1618821509.22427,-31.07925,9.211270093917847
1618821509.2399,-30.21748,9.226900100708008
1618821509.25553,-27.10736,9.242530107498169
1618821509.27115,-22.00229,9.258150100708008
1618821509.28678,-15.65169,9.273780107498169
1618821509.3024,-9.056274,9.289400100708008
1618821509.31803,-3.063705,9.305030107498169
1618821509.33365,1.869446,9.320650100708008
1618821509.34928,5.629257,9.336280107498169
1618821509.36491,8.358627,9.351909875869751
1618821509.38053,10.1908,9.367530107498169
1618821509.39616,11.15723,9.383159875869751
1618821509.41178,11.27028,9.398780107498169
1618821509.42741,10.59399,9.414409875869751
1618821509.44303,9.360001,9.430030107498169
1618821509.45866,7.953003,9.445659875869751
1618821509.47429,6.789246,9.461289882659912
1618821509.48991,6.181,9.476909875869751
1618821509.50554,6.249771,9.492539882659912
1618821509.52116,6.929932,9.508159875869751
1618821509.53679,7.994415,9.523789882659912
1618821509.55241,9.196136,9.539409875869751
1618821509.56804,10.31598,9.555039882659912
1618821509.58367,11.215,9.570669889450073
1618821509.59929,11.84555,9.586289882659912
1618821509.61492,12.21091,9.601919889450073
1618821509.63054,12.33685,9.617539882659912
1618821509.64617,12.23698,9.633169889450073
1618821509.66179,11.87811,9.648789882659912
1618821509.67742,11.20082,9.664419889450073
1618821509.69305,10.17511,9.680049896240234
1618821509.70867,8.790009,9.695669889450073
1618821509.7243,7.108337,9.711299896240234
1618821509.73992,5.262146,9.726919889450073
1618821509.75555,3.334091,9.742549896240234
1618821509.77117,1.330521,9.758169889450073
1618821509.7868,-0.8433838,9.773799896240234
1618821509.80243,-3.308426,9.789429903030396
1618821509.81805,-6.118607,9.805049896240234
1618821509.83368,-9.080505,9.820679903030396
1618821509.8493,-11.76912,9.836299896240234
1618821509.86493,-13.55997,9.851929903030396
1618821509.88055,-13.88725,9.867549896240234
1618821509.89618,-12.44995,9.883179903030396
1618821509.91181,-9.372665,9.898809909820557
1618821509.92743,-5.151382,9.914429903030396
1618821509.94306,-0.4810181,9.930059909820557
1618821509.95868,3.872116,9.945679903030396
1618821509.97431,7.30954,9.961309909820557
1618821509.98993,9.402191,9.976929903030396
1618821510.00556,9.974823,9.992559909820557
1618821510.02119,9.074234,10.008189916610718
1618821510.03681,7.00769,10.023809909820557
1618821510.05244,4.30629,10.039439916610718
1618821510.06806,1.588242,10.055059909820557
1618821510.08369,-0.5487518,10.070689916610718
1618821510.09931,-1.715759,10.086309909820557
1618821510.11494,-1.793503,10.101939916610718
1618821510.13057,-0.9469299,10.117569923400879
1618821510.14619,0.4998779,10.133189916610718
1618821510.16182,2.289185,10.148819923400879
1618821510.17744,4.234573,10.164439916610718
1618821510.19307,6.276276,10.180069923400879
1618821510.20869,8.30423,10.195689916610718
1618821510.22432,10.13083,10.211319923400879
1618821510.23995,11.44882,10.22694993019104
1618821510.25557,12.01961,10.242569923400879
1618821510.2712,11.68613,10.25819993019104
1618821510.28682,10.46704,10.273819923400879
1618821510.30245,8.567459,10.28944993019104
1618821510.31807,6.24324,10.305069923400879
1618821510.3337,3.705109,10.32069993019104
1618821510.34933,1.042938,10.336329936981201
1618821510.36495,-1.697876,10.35194993019104
1618821510.38058,-4.493347,10.367579936981201
1618821510.3962,-7.238968,10.38319993019104
1618821510.41183,-9.797211,10.398829936981201
1618821510.42745,-12.04678,10.41444993019104
1618821510.44308,-13.85071,10.430079936981201
1618821510.45871,-15.15068,10.445709943771362
1618821510.47433,-15.82007,10.461329936981201
1618821510.48996,-15.68245,10.476959943771362
1618821510.50558,-14.4442,10.492579936981201
1618821510.52121,-11.86021,10.508209943771362
1618821510.53683,-7.786301,10.523829936981201
1618821510.55246,-2.369553,10.539459943771362
1618821510.56809,3.867065,10.555089950561523
1618821510.58371,10.11026,10.570709943771362
1618821510.59934,15.37125,10.586339950561523
1618821510.61496,18.88332,10.601959943771362
1618821510.63059,20.30038,10.617589950561523
1618821510.64621,19.83968,10.633209943771362
1618821510.66184,18.10948,10.648839950561523
1618821510.67747,15.88855,10.664469957351685
1618821510.69309,13.84596,10.680089950561523
1618821510.70872,12.36253,10.695719957351685
1618821510.72434,11.56354,10.711339950561523
1618821510.73997,11.4113,10.726969957351685
1618821510.75559,11.85933,10.742589950561523
1618821510.77122,12.86816,10.758219957351685
1618821510.78685,14.35997,10.773849964141846
1618821510.80247,16.16425,10.789469957351685
1618821510.8181,18.0097,10.805099964141846
1618821510.83372,19.64261,10.820719957351685
1618821510.84935,20.88669,10.836349964141846
1618821510.86497,21.67793,10.851969957351685
1618821510.8806,21.94553,10.867599964141846
1618821510.89623,21.48991,10.883229970932007
1618821510.91185,19.98108,10.898849964141846
1618821510.92748,17.00887,10.914479970932007
1618821510.9431,12.3993,10.930099964141846
1618821510.95873,6.313583,10.945729970932007
1618821510.97436,-0.66082,10.961359977722168
1618821510.98998,-7.772278,10.976979970932007
1618821511.00561,-14.27372,10.992609977722168
1618821511.02123,-19.75723,11.008229970932007
1618821511.03686,-24.11167,11.023859977722168
1618821511.05248,-27.44166,11.039479970932007
1618821511.06811,-29.95844,11.055109977722168
1618821511.08374,-31.79684,11.070739984512329
1618821511.09936,-33.05545,11.086359977722168
1618821511.11499,-33.76868,11.101989984512329
1618821511.13061,-34.01026,11.117609977722168
1618821511.14624,-33.7281,11.133239984512329
1618821511.16186,-32.81396,11.148859977722168
1618821511.17749,-31.0241,11.164489984512329
1618821511.19312,-28.13707,11.18011999130249
1618821511.20874,-24.1387,11.195739984512329
1618821511.22437,-19.29229,11.21136999130249
1618821511.23999,-14.13631,11.226989984512329
1618821511.25562,-9.333855,11.24261999130249
1618821511.27124,-5.501862,11.258239984512329
1618821511.28687,-3.020897,11.27386999130249
1618821511.3025,-2.109299,11.289499998092651
1618821511.31812,-2.829796,11.30511999130249
1618821511.33375,-5.12001,11.320749998092651
1618821511.34937,-8.741982,11.33636999130249
1618821511.365,-13.20624,11.351999998092651
1618821511.38062,-17.70016,11.36761999130249
1618821511.39625,-21.33807,11.383249998092651
1618821511.41188,-23.39672,11.398880004882812
1618821511.4275,-23.70587,11.414499998092651
1618821511.44313,-22.74535,11.430130004882812
1618821511.45875,-21.42128,11.445749998092651
1618821511.47438,-20.66592,11.461380004882812
1618821511.49,-20.96542,11.476999998092651
1618821511.50563,-22.10793,11.492630004882812
1618821511.52126,-23.26157,11.508260011672974
1618821511.53688,-23.43878,11.523880004882812
1618821511.55251,-21.94933,11.539510011672974
1618821511.56813,-18.83792,11.555130004882812
1618821511.58376,-14.79548,11.570760011672974
1618821511.59938,-10.88846,11.586380004882812
1618821511.61501,-8.037903,11.602010011672974
1618821511.63064,-6.713379,11.617640018463135
1618821511.64626,-6.793785,11.633260011672974
1618821511.66189,-7.846001,11.648890018463135
1618821511.67751,-9.500931,11.664510011672974
1618821511.69314,-11.61826,11.680140018463135
1618821511.70876,-14.31618,11.695760011672974
1618821511.72439,-17.6666,11.711390018463135
1618821511.74002,-21.41134,11.727020025253296
1618821511.75564,-24.83985,11.742640018463135
1618821511.77127,-26.99169,11.758270025253296
1618821511.78689,-27.00123,11.773890018463135
1618821511.80252,-24.52957,11.789520025253296
1618821511.81814,-19.92543,11.805140018463135
1618821511.83377,-14.08086,11.820770025253296
1618821511.8494,-8.004822,11.836400032043457
1618821511.86502,-2.507492,11.852020025253296
1618821511.88065,2.069595,11.867650032043457
1618821511.89627,5.76915,11.883270025253296
1618821511.9119,8.90033,11.898900032043457
1618821511.92752,11.73318,11.914520025253296
1618821511.94315,14.33971,11.930150032043457
1618821511.95878,16.6145,11.945780038833618
1618821511.9744,18.34483,11.961400032043457
1618821511.99003,19.37393,11.977030038833618
1618821512.00565,19.61841,11.992650032043457
1618821512.02128,19.19481,12.008280038833618
1618821512.0369,18.30049,12.023900032043457
1618821512.05253,17.18488,12.039530038833618
1618821512.06816,16.08945,12.05516004562378
1618821512.08378,15.21278,12.070780038833618
1618821512.09941,14.68817,12.08641004562378
1618821512.11503,14.603,12.102030038833618
1618821512.13066,14.96216,12.11766004562378
1618821512.14628,15.68326,12.133280038833618
1618821512.16191,16.68161,12.14891004562378
1618821512.17754,17.79576,12.16454005241394
1618821512.19316,18.75699,12.18016004562378
1618821512.20879,19.25519,12.19579005241394
1618821512.22441,18.98669,12.21141004562378
1618821512.24004,17.77898,12.22704005241394
1618821512.25566,15.64218,12.24266004562378
1618821512.27129,12.79474,12.25829005241394
1618821512.28692,9.579132,12.273920059204102
1618821512.30254,6.277054,12.28954005241394
1618821512.31817,3.060669,12.305170059204102
1618821512.33379,-0.1385803,12.32079005241394
1618821512.34942,-3.3815,12.336420059204102
1618821512.36504,-6.685013,12.35204005241394
1618821512.38067,-9.768799,12.367670059204102
1618821512.3963,-12.14569,12.383300065994263
1618821512.41192,-13.25595,12.398920059204102
1618821512.42755,-12.70171,12.414550065994263
1618821512.44317,-10.41515,12.430170059204102
1618821512.4588,-6.644302,12.445800065994263
1618821512.47442,-1.891693,12.461420059204102
1618821512.49005,3.269745,12.477050065994263
1618821512.50568,8.2621,12.492680072784424
1618821512.5213,12.64877,12.508300065994263
1618821512.53693,16.21649,12.523930072784424
1618821512.55255,18.92201,12.539550065994263
1618821512.56818,20.86537,12.555180072784424
1618821512.5838,22.20242,12.570800065994263
1618821512.59943,23.07219,12.586430072784424
1618821512.61506,23.53145,12.602060079574585
1618821512.63068,23.57738,12.617680072784424
1618821512.64631,23.21594,12.633310079574585
1618821512.66193,22.50572,12.648930072784424
1618821512.67756,21.61853,12.664560079574585
1618821512.69318,20.7045,12.680180072784424
1618821512.70881,19.83594,12.695810079574585
1618821512.72444,18.93993,12.711440086364746
1618821512.74006,17.87593,12.727060079574585
1618821512.75569,16.51506,12.742690086364746
1618821512.77131,14.80859,12.758310079574585
1618821512.78694,12.88957,12.773940086364746
1618821512.80256,10.86546,12.789560079574585
1618821512.81819,8.946487,12.805190086364746
1618821512.83382,7.151474,12.820820093154907
1618821512.84944,5.495178,12.836440086364746
1618821512.86507,3.867691,12.852070093154907
1618821512.88069,2.16008,12.867690086364746
1618821512.89632,0.2249298,12.883320093154907
1618821512.91194,-2.053955,12.898940086364746
1618821512.92757,-4.696625,12.914570093154907
1618821512.9432,-7.721329,12.930200099945068
1618821512.95882,-10.97159,12.945820093154907
1618821512.97445,-14.32172,12.961450099945068
1618821512.99007,-17.50629,12.977070093154907
1618821513.0057,-20.28481,12.992700099945068
1618821513.02132,-22.36162,13.008320093154907
1618821513.03695,-23.45885,13.023950099945068
1618821513.05258,-23.30226,13.03958010673523
1618821513.0682,-21.72504,13.055200099945068
1618821513.08383,-18.74614,13.07083010673523
1618821513.09945,-14.62134,13.086450099945068
1618821513.11508,-9.89473,13.10208010673523
1618821513.1307,-5.149048,13.117700099945068
1618821513.14633,-0.9191742,13.13333010673523
1618821513.16196,2.52446,13.148959875106812
1618821513.17758,5.200134,13.16458010673523
1618821513.19321,7.303345,13.180209875106812
1618821513.20883,8.974518,13.19583010673523
1618821513.22446,10.20572,13.211459875106812
1618821513.24009,10.84758,13.227089881896973
1618821513.25571,10.71059,13.242709875106812
1618821513.27134,9.820129,13.258339881896973
1618821513.28696,8.479523,13.273959875106812
1618821513.30259,7.145187,13.289589881896973
1618821513.31821,6.241211,13.305209875106812
1618821513.33384,5.937714,13.320839881896973
1618821513.34947,6.056992,13.336469888687134
1618821513.36509,6.214798,13.352089881896973
1618821513.38072,6.088516,13.367719888687134
1618821513.39634,5.537949,13.383339881896973
1618821513.41197,4.705215,13.398969888687134
1618821513.42759,3.836014,13.414589881896973
1618821513.44322,3.086304,13.430219888687134
1618821513.45885,2.461761,13.445849895477295
1618821513.47447,1.81105,13.461469888687134
1618821513.4901,0.9442444,13.477099895477295
1618821513.50572,-0.3062897,13.492719888687134
1618821513.52135,-1.929688,13.508349895477295
1618821513.53697,-3.894882,13.523969888687134
1618821513.5526,-6.108231,13.539599895477295
1618821513.56823,-8.535141,13.555229902267456
1618821513.58385,-11.19824,13.570849895477295
1618821513.59948,-14.1024,13.586479902267456
1618821513.6151,-17.22343,13.602099895477295
1618821513.63073,-20.41719,13.617729902267456
1618821513.64635,-23.42036,13.633349895477295
1618821513.66198,-25.78342,13.648979902267456
1618821513.67761,-27.01334,13.664609909057617
1618821513.69323,-26.63658,13.680229902267456
1618821513.70886,-24.43329,13.695859909057617
1618821513.72448,-20.57294,13.711479902267456
1618821513.74011,-15.58182,13.727109909057617
1618821513.75573,-10.24516,13.742729902267456
1618821513.77136,-5.290344,13.758359909057617
1618821513.78699,-1.250381,13.773989915847778
1618821513.80261,1.771347,13.789609909057617
1618821513.81824,3.944534,13.805239915847778
1618821513.83386,5.615112,13.820859909057617
1618821513.84949,7.024292,13.836489915847778
1618821513.86511,8.197327,13.852109909057617
1618821513.88074,9.024399,13.867739915847778
1618821513.89637,9.350632,13.88336992263794
1618821513.91199,9.194519,13.898989915847778
1618821513.92762,8.743423,13.91461992263794
1618821513.94324,8.307266,13.930239915847778
1618821513.95887,8.08844,13.94586992263794
1618821513.97449,8.176651,13.961489915847778
1618821513.99012,8.418732,13.97711992263794
1618821514.00575,8.560516,13.9927499294281
1618821514.02137,8.416458,14.00836992263794
1618821514.037,7.972366,14.0239999294281
1618821514.05262,7.329163,14.03961992263794
1618821514.06825,6.641785,14.0552499294281
1618821514.08387,5.971817,14.07086992263794
1618821514.0995,5.212738,14.0864999294281
1618821514.11513,4.177399,14.102129936218262
1618821514.13075,2.727829,14.1177499294281
1618821514.14638,0.8354797,14.133379936218262
1618821514.162,-1.374161,14.1489999294281
1618821514.17763,-3.665558,14.164629936218262
1618821514.19325,-5.924728,14.1802499294281
1618821514.20888,-8.149155,14.195879936218262
1618821514.22451,-10.48402,14.211509943008423
1618821514.24013,-13.10739,14.227129936218262
1618821514.25576,-16.04501,14.242759943008423
1618821514.27138,-19.0399,14.258379936218262
1618821514.28701,-21.61208,14.274009943008423
1618821514.30263,-23.14877,14.289629936218262
1618821514.31826,-23.12637,14.305259943008423
1618821514.33389,-21.35262,14.320889949798584
1618821514.34951,-17.97887,14.336509943008423
1618821514.36514,-13.48154,14.352139949798584
1618821514.38076,-8.508179,14.367759943008423
1618821514.39639,-3.633728,14.383389949798584
1618821514.41201,0.7402954,14.399009943008423
1618821514.42764,4.442078,14.414639949798584
1618821514.44327,7.468201,14.430269956588745
1618821514.45889,9.87793,14.445889949798584
1618821514.47452,11.74004,14.461519956588745
1618821514.49014,13.10583,14.477139949798584
1618821514.50577,14.03931,14.492769956588745
1618821514.52139,14.56349,14.508389949798584
1618821514.53702,14.6954,14.524019956588745
1618821514.55265,14.47765,14.539649963378906
1618821514.56827,13.96889,14.555269956588745
1618821514.5839,13.27621,14.570899963378906
1618821514.59952,12.53102,14.586519956588745
1618821514.61515,11.87675,14.602149963378906
1618821514.63077,11.39948,14.617769956588745
1618821514.6464,11.13744,14.633399963378906
1618821514.66203,10.9411,14.649029970169067
1618821514.67765,10.62585,14.664649963378906
1618821514.69328,10.01068,14.680279970169067
1618821514.7089,8.975555,14.695899963378906
1618821514.72453,7.496078,14.711529970169067
1618821514.74015,5.636307,14.727149963378906
1618821514.75578,3.455994,14.742779970169067
1618821514.77141,1.060104,14.758409976959229
1618821514.78703,-1.404953,14.774029970169067
1618821514.80266,-3.862152,14.789659976959229
1618821514.81828,-6.221283,14.805279970169067
1618821514.83391,-8.416534,14.820909976959229
1618821514.84953,-10.46568,14.836529970169067
1618821514.86516,-12.44693,14.852159976959229
1618821514.88079,-14.48421,14.86778998374939
1618821514.89641,-16.68925,14.883409976959229
1618821514.91204,-19.02174,14.89903998374939
1618821514.92766,-21.19557,14.914659976959229
1618821514.94329,-22.80873,14.93028998374939
1618821514.95891,-23.29492,14.945909976959229
1618821514.97454,-22.2193,14.96153998374939
1618821514.99017,-19.44548,14.97716999053955
1618821515.00579,-15.17349,14.99278998374939
1618821515.02142,-9.90004,15.00841999053955
1618821515.03704,-4.309326,15.02403998374939
1618821515.05267,0.9324646,15.03966999053955
1618821515.06829,5.350098,15.05528998374939
1618821515.08392,8.672821,15.07091999053955
1618821515.09955,10.9483,15.086549997329712
1618821515.11517,12.29585,15.10216999053955
1618821515.1308,12.93678,15.117799997329712
1618821515.14642,13.09074,15.13341999053955
1618821515.16205,13.01221,15.149049997329712
1618821515.17767,12.89212,15.16466999053955
1618821515.1933,12.89305,15.180299997329712
1618821515.20893,13.1032,15.195930004119873
1618821515.22455,13.49162,15.211549997329712
1618821515.24018,14.05663,15.227180004119873
1618821515.2558,14.63406,15.242799997329712
1618821515.27143,15.03563,15.258430004119873
1618821515.28705,15.10948,15.274049997329712
1618821515.30268,14.81183,15.289680004119873
1618821515.31831,14.15436,15.305310010910034
1618821515.33393,13.20029,15.320930004119873
1618821515.34956,11.97464,15.336560010910034
1618821515.36518,10.39142,15.352180004119873
1618821515.38081,8.378632,15.367810010910034
1618821515.39644,5.895935,15.383440017700195
1618821515.41206,3.017029,15.399060010910034
1618821515.42769,-0.004821777,15.414690017700195
1618821515.44331,-2.895294,15.430310010910034
1618821515.45894,-5.40097,15.445940017700195
1618821515.47456,-7.432159,15.461560010910034
1618821515.49019,-9.083588,15.477190017700195
1618821515.50582,-10.60837,15.492820024490356
1618821515.52144,-12.23358,15.508440017700195
1618821515.53707,-14.07581,15.524070024490356
1618821515.55269,-16.07199,15.539690017700195
1618821515.56832,-17.95538,15.555320024490356
1618821515.58394,-19.44702,15.570940017700195
1618821515.59957,-20.1752,15.586570024490356
1618821515.6152,-19.84363,15.602200031280518
1618821515.63082,-18.22522,15.617820024490356
1618821515.64645,-15.31497,15.633450031280518
1618821515.66207,-11.31009,15.649070024490356
1618821515.6777,-6.614136,15.664700031280518
1618821515.69332,-1.758026,15.680320024490356
1618821515.70895,2.755981,15.695950031280518
1618821515.72458,6.488647,15.711580038070679
1618821515.7402,9.196259,15.727200031280518
1618821515.75583,10.85214,15.742830038070679
1618821515.77145,11.60547,15.758450031280518
1618821515.78708,11.6871,15.774080038070679
1618821515.8027,11.39337,15.789700031280518
1618821515.81833,11.01065,15.805330038070679
1618821515.83396,10.75192,15.82096004486084
1618821515.84958,10.74408,15.836580038070679
1618821515.86521,11.01318,15.85221004486084
1618821515.88083,11.4162,15.867830038070679
1618821515.89646,11.77631,15.88346004486084
1618821515.91208,11.90674,15.899080038070679
1618821515.92771,11.69177,15.91471004486084
1618821515.94334,11.07471,15.930340051651001
1618821515.95896,10.08221,15.94596004486084
1618821515.97459,8.772583,15.961590051651001
1618821515.99021,7.227844,15.97721004486084
1618821516.00584,5.538727,15.992840051651001
1618821516.02146,3.762451,16.00846004486084
1618821516.03709,1.927795,16.024090051651
1618821516.05272,0.001922607,16.039720058441162
1618821516.06834,-2.087952,16.055340051651
1618821516.08397,-4.384705,16.070970058441162
1618821516.09959,-6.868317,16.086590051651
1618821516.11522,-9.394196,16.102220058441162
1618821516.13084,-11.73236,16.117840051651
1618821516.14647,-13.67984,16.133470058441162
1618821516.1621,-15.20135,16.149100065231323
1618821516.17772,-16.40207,16.164720058441162
1618821516.19335,-17.53488,16.180350065231323
1618821516.20897,-18.80972,16.195970058441162
1618821516.2246,-20.17087,16.211600065231323
1618821516.24022,-21.21561,16.227220058441162
1618821516.25585,-21.29321,16.242850065231323
1618821516.27148,-19.80469,16.258480072021484
1618821516.2871,-16.48315,16.274100065231323
1618821516.30273,-11.6507,16.289730072021484
1618821516.31835,-6.01944,16.305350065231323
1618821516.33398,-0.4537964,16.320980072021484
1618821516.3496,4.331238,16.336600065231323
1618821516.36523,7.997253,16.352230072021484
1618821516.38086,10.58481,16.367860078811646
1618821516.39648,12.35553,16.383480072021484
1618821516.41211,13.54529,16.399110078811646
1618821516.42773,14.35098,16.414730072021484
1618821516.44336,14.82101,16.430360078811646
1618821516.45898,15.02271,16.445980072021484
1618821516.47461,15.05713,16.461610078811646
1618821516.49024,15.01196,16.477240085601807
1618821516.50586,14.91055,16.492860078811646
1618821516.52149,14.73175,16.508490085601807
1618821516.53711,14.47583,16.524110078811646
1618821516.55274,14.21329,16.539740085601807
1618821516.56836,14.11151,16.555360078811646
1618821516.58399,14.36725,16.570990085601807
1618821516.59962,15.02707,16.586620092391968
1618821516.61524,16.01938,16.602240085601807
1618821516.63087,17.07401,16.617870092391968
1618821516.64649,17.86905,16.633490085601807
1618821516.66212,18.1907,16.649120092391968
1618821516.67774,18.06491,16.664740085601807
1618821516.69337,17.76242,16.680370092391968
1618821516.709,17.6355,16.69600009918213
1618821516.72462,17.91479,16.711620092391968
1618821516.74025,18.61789,16.72725009918213
1618821516.75587,19.5896,16.742870092391968
1618821516.7715,20.56729,16.75850009918213
1618821516.78712,21.27661,16.774120092391968
1618821516.80275,21.52655,16.78975009918213
1618821516.81838,21.41464,16.80538010597229
1618821516.834,21.27969,16.82100009918213
1618821516.84963,21.70779,16.83663010597229
1618821516.86525,23.27295,16.85225009918213
1618821516.88088,26.41867,16.86788010597229
1618821516.8965,31.35391,16.88350009918213
1618821516.91213,37.97139,16.89913010597229
1618821516.92776,45.73027,16.914759874343872
1618821516.94338,53.82903,16.93038010597229
1618821516.95901,61.78979,16.946009874343872
1618821516.97463,69.59377,16.96163010597229
1618821516.99026,77.76454,16.977259874343872
1618821517.00588,86.9995,16.99288010597229
1618821517.02151,97.78172,17.008509874343872
1618821517.03714,110.2419,17.024139881134033
1618821517.05276,124.0171,17.039759874343872
1618821517.06839,137.949,17.055389881134033
1618821517.08401,150.5115,17.071009874343872
1618821517.09964,160.4013,17.086639881134033
1618821517.11526,167.0036,17.102259874343872
1618821517.13089,170.6591,17.117889881134033
1618821517.14652,172.2888,17.133519887924194
1618821517.16214,172.8149,17.149139881134033
1618821517.17777,172.4787,17.164769887924194
1618821517.19339,170.1307,17.180389881134033
1618821517.20902,162.4558,17.196019887924194
1618821517.22464,144.8245,17.211639881134033
1618821517.24027,113.0864,17.227269887924194
1618821517.2559,65.26461,17.242899894714355
1618821517.27152,3.006516,17.258519887924194
1618821517.28715,-68.80212,17.274149894714355
1618821517.30277,-143.31,17.289769887924194
1618821517.3184,-212.6931,17.305399894714355
1618821517.33402,-266.4218,17.321019887924194
1618821517.34965,-295.0892,17.336649894714355
1618821517.36528,-294.2852,17.352279901504517
1618821517.3809,-266.3828,17.367899894714355
1618821517.39653,-218.9186,17.383529901504517
1618821517.41215,-160.4432,17.399149894714355
1618821517.42778,-97.91787,17.414779901504517
1618821517.4434,-36.13065,17.430399894714355
1618821517.45903,21.87024,17.446029901504517
1618821517.47466,74.22628,17.461659908294678
1618821517.49028,119.3318,17.477279901504517
1618821517.50591,155.9551,17.492909908294678
1618821517.52153,185.1538,17.508529901504517
1618821517.53716,207.4807,17.524159908294678
1618821517.55278,223.4454,17.539779901504517
1618821517.56841,233.5294,17.555409908294678
1618821517.58404,238.203,17.57103991508484
1618821517.59966,237.9299,17.586659908294678
1618821517.61529,233.1272,17.60228991508484
1618821517.63091,223.8017,17.617909908294678
1618821517.64654,209.632,17.63353991508484
1618821517.66216,190.1569,17.649159908294678
1618821517.67779,164.6546,17.66478991508484
1618821517.69342,132.3352,17.680419921875
1618821517.70904,91.59264,17.69603991508484
1618821517.72467,41.06229,17.711669921875
1618821517.74029,-20.35336,17.72728991508484
1618821517.75592,-92.78253,17.742919921875
1618821517.77154,-174.2198,17.75853991508484
1618821517.78717,-259.3946,17.774169921875
1618821517.8028,-339.7327,17.78979992866516
1618821517.81842,-405.4715,17.805419921875
1618821517.83405,-448.2513,17.82104992866516
1618821517.84967,-464.0472,17.836669921875
1618821517.8653,-454.252,17.85229992866516
1618821517.88092,-424.8692,17.867919921875
1618821517.89655,-384.1331,17.88354992866516
1618821517.91218,-339.9612,17.899179935455322
1618821517.9278,-298.2631,17.91479992866516
1618821517.94343,-262.4935,17.930429935455322
1618821517.95905,-234.1897,17.94604992866516
1618821517.97468,-213.3865,17.961679935455322
1618821517.9903,-199.0516,17.97729992866516
1618821518.00593,-189.2461,17.992929935455322
1618821518.02156,-181.4844,18.008559942245483
1618821518.03718,-173.1074,18.024179935455322
1618821518.05281,-161.8713,18.039809942245483
1618821518.06843,-146.5413,18.055429935455322
1618821518.08406,-127.2184,18.071059942245483
1618821518.09969,-105.3163,18.086689949035645
1618821518.11531,-83.24677,18.102309942245483
1618821518.13094,-63.73816,18.117939949035645
1618821518.14656,-48.91318,18.133559942245483
1618821518.16219,-39.64929,18.149189949035645
1618821518.17781,-35.19742,18.164809942245483
1618821518.19344,-33.48056,18.180439949035645
1618821518.20907,-32.10236,18.196069955825806
1618821518.22469,-29.30832,18.211689949035645
1618821518.24032,-24.53839,18.227319955825806
1618821518.25594,-18.17627,18.242939949035645
1618821518.27157,-10.89931,18.258569955825806
1618821518.28719,-2.997742,18.274189949035645
1618821518.30282,5.763763,18.289819955825806
1618821518.31845,15.84431,18.305449962615967
1618821518.33407,27.43626,18.321069955825806
1618821518.3497,40.12515,18.336699962615967
1618821518.36532,52.90453,18.352319955825806
1618821518.38095,64.5694,18.367949962615967
1618821518.39657,74.01698,18.383569955825806
1618821518.4122,80.6265,18.399199962615967
1618821518.42783,84.48561,18.414829969406128
1618821518.44345,86.18376,18.430449962615967
1618821518.45908,86.56465,18.446079969406128
1618821518.4747,86.21518,18.461699962615967
1618821518.49033,85.22745,18.477329969406128
1618821518.50595,83.14835,18.492949962615967
1618821518.52158,79.39084,18.508579969406128
1618821518.53721,73.66579,18.52420997619629
1618821518.55283,66.26727,18.539829969406128
1618821518.56846,58.23366,18.55545997619629
1618821518.58408,50.85997,18.571079969406128
1618821518.59971,45.26518,18.58670997619629
1618821518.61533,41.89362,18.602329969406128
1618821518.63096,40.34527,18.61795997619629
1618821518.64659,39.54401,18.63358998298645
1618821518.66221,38.26838,18.64920997619629
1618821518.67784,35.57764,18.66483998298645
1618821518.69346,30.98667,18.68045997619629
1618821518.70909,24.61104,18.69608998298645
1618821518.72471,16.70708,18.71170997619629
1618821518.74034,7.493649,18.72733998298645
1618821518.75597,-3.030788,18.74296998977661
1618821518.77159,-14.913,18.75858998298645
1618821518.78722,-27.85894,18.77421998977661
1618821518.80284,-40.77727,18.78983998298645
1618821518.81847,-51.73396,18.80546998977661
1618821518.83409,-58.47849,18.82108998298645
1618821518.84972,-59.13572,18.83671998977661
1618821518.86535,-53.31449,18.852349996566772
1618821518.88097,-42.33149,18.86796998977661
1618821518.8966,-28.96588,18.883599996566772
1618821518.91222,-16.3533,18.89921998977661
1618821518.92785,-6.798206,18.914849996566772
1618821518.94347,-1.003311,18.93046998977661
1618821518.9591,1.938595,18.946099996566772
1618821518.97473,3.689629,18.961730003356934
1618821518.99035,5.949726,18.977349996566772
1618821519.00598,9.596069,18.992980003356934
1618821519.0216,14.74611,19.008599996566772
1618821519.03723,20.95894,19.024230003356934
1618821519.05285,27.6479,19.039849996566772
1618821519.06848,34.31505,19.055480003356934
1618821519.08411,40.4877,19.071110010147095
1618821519.09973,45.70925,19.086730003356934
1618821519.11536,49.38271,19.102360010147095
1618821519.13098,51.03029,19.117980003356934
1618821519.14661,50.23724,19.133610010147095
1618821519.16223,46.95064,19.149230003356934
1618821519.17786,41.40589,19.164860010147095
1618821519.19349,34.07587,19.180490016937256
1618821519.20911,25.62672,19.196110010147095
1618821519.22474,16.82986,19.211740016937256
1618821519.24036,8.500473,19.227360010147095
1618821519.25599,1.310959,19.242990016937256
1618821519.27161,-4.326569,19.258610010147095
1618821519.28724,-8.477264,19.274240016937256
1618821519.30287,-11.56346,19.289870023727417
1618821519.31849,-14.16284,19.305490016937256
1618821519.33412,-16.81633,19.321120023727417
1618821519.34974,-19.72655,19.336740016937256
1618821519.36537,-22.87,19.352370023727417
1618821519.38099,-26.05656,19.367990016937256
1618821519.39662,-29.2495,19.383620023727417
1618821519.41225,-32.5394,19.399250030517578
1618821519.42787,-36.10149,19.414870023727417
1618821519.4435,-39.86977,19.430500030517578
1618821519.45912,-43.2505,19.446120023727417
1618821519.47475,-45.22519,19.461750030517578
1618821519.49037,-44.51089,19.477370023727417
1618821519.506,-40.14604,19.493000030517578
1618821519.52163,-31.95268,19.50863003730774
1618821519.53725,-20.84515,19.524250030517578
1618821519.55288,-8.567184,19.53988003730774
1618821519.5685,2.828812,19.555500030517578
1618821519.58413,11.65018,19.57113003730774
1618821519.59975,17.17639,19.586750030517578
1618821519.61538,19.66971,19.60238003730774
1618821519.63101,20.2153,19.6180100440979
1618821519.64663,20.11771,19.63363003730774
1618821519.66226,20.41867,19.6492600440979
1618821519.67788,21.54245,19.66488003730774
1618821519.69351,23.38986,19.6805100440979
1618821519.70913,25.51413,19.69613003730774
1618821519.72476,27.43018,19.7117600440979
1618821519.74039,28.76553,19.72739005088806
1618821519.75601,29.29086,19.7430100440979
1618821519.77164,28.85532,19.75864005088806
1618821519.78726,27.38855,19.7742600440979
1618821519.80289,24.85547,19.78989005088806
1618821519.81851,21.39139,19.8055100440979
1618821519.83414,17.34976,19.82114005088806
1618821519.84977,13.20502,19.836770057678223
1618821519.86539,9.413147,19.85239005088806
1618821519.88102,6.308105,19.868020057678223
1618821519.89664,3.989868,19.88364005088806
1618821519.91227,2.361267,19.899270057678223
1618821519.92789,1.182739,19.91489005088806
1618821519.94352,0.08874512,19.930520057678223
1618821519.95915,-1.300995,19.946150064468384
1618821519.97477,-3.361542,19.961770057678223
1618821519.9904,-6.43631,19.977400064468384
1618821520.00602,-10.65756,19.993020057678223
1618821520.02165,-15.85675,20.008650064468384
1618821520.03727,-21.52768,20.024270057678223
1618821520.0529,-26.8392,20.039900064468384
1618821520.06853,-30.80655,20.055530071258545
1618821520.08415,-32.61697,20.071150064468384
1618821520.09978,-31.70242,20.086780071258545
1618821520.1154,-27.94238,20.102400064468384
1618821520.13103,-21.67685,20.118030071258545
1618821520.14665,-13.57007,20.133650064468384
1618821520.16228,-4.534943,20.149280071258545
1618821520.17791,4.392212,20.164910078048706
1618821520.19353,12.27603,20.180530071258545
1618821520.20916,18.47897,20.196160078048706
1618821520.22478,22.77509,20.211780071258545
1618821520.24041,25.41504,20.227410078048706
1618821520.25604,26.90884,20.243040084838867
1618821520.27166,27.7215,20.258660078048706
1618821520.28729,28.15833,20.274290084838867
1618821520.30291,28.25436,20.289910078048706
1618821520.31854,27.93503,20.305540084838867
1618821520.33416,27.26779,20.321160078048706
1618821520.34979,26.66156,20.336790084838867
1618821520.36542,26.7583,20.35242009162903
1618821520.38104,28.0376,20.368040084838867
1618821520.39667,30.50146,20.38367009162903
1618821520.41229,33.48706,20.399290084838867
1618821520.42792,35.97845,20.41492009162903
1618821520.44354,36.96655,20.430540084838867
1618821520.45917,35.94019,20.44617009162903
1618821520.4748,33.00873,20.46180009841919
1618821520.49042,28.74756,20.47742009162903
1618821520.50605,23.90045,20.49305009841919
1618821520.52167,19.04846,20.50867009162903
1618821520.5373,14.51825,20.52430009841919
1618821520.55292,10.40521,20.53992009162903
1618821520.56855,6.796143,20.55555009841919
1618821520.58418,3.731567,20.57118010520935
1618821520.5998,1.223633,20.58680009841919
1618821520.61543,-0.9020386,20.60243010520935
1618821520.63105,-3.064392,20.61805009841919
1618821520.64668,-5.816101,20.63368010520935
1618821520.6623,-9.565063,20.64930009841919
1618821520.67793,-14.32874,20.66493010520935
1618821520.69356,-19.54114,20.680559873580933
1618821520.70918,-24.09869,20.69618010520935
1618821520.72481,-26.7749,20.711809873580933
1618821520.74043,-26.51923,20.72743010520935
1618821520.75606,-22.95129,20.743059873580933
1618821520.77168,-16.46698,20.75868010520935
1618821520.78731,-8.088074,20.774309873580933
1618821520.80294,0.8723145,20.789939880371094
1618821520.81856,9.245911,20.805559873580933
1618821520.83419,16.15204,20.821189880371094
1618821520.84981,21.21326,20.836809873580933
1618821520.86544,24.39398,20.852439880371094
1618821520.88106,26.05627,20.868059873580933
1618821520.89669,26.75201,20.883689880371094
1618821520.91232,27.10699,20.899319887161255
1618821520.92794,27.6748,20.914939880371094
1618821520.94357,28.72852,20.930569887161255
1618821520.95919,30.25342,20.946189880371094
1618821520.97482,31.96381,20.961819887161255
1618821520.99044,33.50964,20.977439880371094
1618821521.00607,34.64948,20.993069887161255
1618821521.0217,35.40729,21.008699893951416
1618821521.03732,35.97229,21.024319887161255
1618821521.05295,36.52673,21.039949893951416
1618821521.06857,37.09991,21.055569887161255
1618821521.0842,37.52441,21.071199893951416
1618821521.09982,37.5293,21.086819887161255
1618821521.11545,36.9765,21.102449893951416
1618821521.13108,35.87335,21.118079900741577
1618821521.1467,34.28687,21.133699893951416
1618821521.16233,32.29126,21.149329900741577
1618821521.17795,29.74268,21.164949893951416
1618821521.19358,26.42529,21.180579900741577
1618821521.2092,22.14771,21.196199893951416
1618821521.22483,16.95825,21.211829900741577
1618821521.24046,11.23755,21.22745990753174
1618821521.25608,5.641907,21.243079900741577
1618821521.27171,0.8341675,21.25870990753174
1618821521.28733,-2.862061,21.274329900741577
1618821521.30296,-5.605286,21.28995990753174
1618821521.31858,-8.040405,21.305579900741577
1618821521.33421,-10.93561,21.32120990753174
1618821521.34984,-14.71356,21.3368399143219
1618821521.36546,-19.11743,21.35245990753174
1618821521.38109,-23.08173,21.3680899143219
1618821521.39671,-25.14496,21.38370990753174
1618821521.41234,-24.05365,21.3993399143219
1618821521.42796,-19.3985,21.41495990753174
1618821521.44359,-11.85413,21.4305899143219
1618821521.45922,-3.003235,21.44621992111206
1618821521.47484,5.355469,21.4618399143219
1618821521.49047,11.88965,21.47746992111206
1618821521.50609,16.14911,21.4930899143219
1618821521.52172,18.53741,21.50871992111206
1618821521.53734,19.80469,21.5243399143219
1618821521.55297,20.58386,21.53996992111206
1618821521.5686,21.04462,21.55559992790222
1618821521.58422,20.99756,21.57121992111206
1618821521.59985,20.14807,21.58684992790222
1618821521.61547,18.51404,21.60246992111206
1618821521.6311,16.49567,21.61809992790222
1618821521.64672,14.6839,21.63371992111206
1618821521.66235,13.61249,21.64934992790222
1618821521.67798,13.43176,21.664979934692383
1618821521.6936,13.89417,21.68059992790222
1618821521.70923,14.45056,21.696229934692383
1618821521.72485,14.54456,21.71184992790222
1618821521.74048,13.86188,21.727479934692383
1618821521.7561,12.39655,21.74309992790222
1618821521.77173,10.3941,21.758729934692383
1618821521.78736,8.118652,21.774359941482544
1618821521.80298,5.813721,21.789979934692383
1618821521.81861,3.554077,21.805609941482544
1618821521.83423,1.328247,21.821229934692383
1618821521.84986,-0.9423828,21.836859941482544
1618821521.86548,-3.343994,21.852479934692383
1618821521.88111,-5.883057,21.868109941482544
1618821521.89674,-8.570007,21.883739948272705
1618821521.91236,-11.34717,21.899359941482544
1618821521.92799,-14.2489,21.914989948272705
1618821521.94361,-17.25256,21.930609941482544
1618821521.95924,-20.42401,21.946239948272705
1618821521.97486,-23.71393,21.961859941482544
1618821521.99049,-26.91974,21.977489948272705
1618821522.00612,-29.48328,21.993119955062866
1618821522.02174,-30.55847,22.008739948272705
1618821522.03737,-29.23749,22.024369955062866
1618821522.05299,-24.89868,22.039989948272705
1618821522.06862,-17.53748,22.055619955062866
1618821522.08424,-7.885193,22.071239948272705
1618821522.09987,2.674561,22.086869955062866
1618821522.1155,12.59698,22.102499961853027
1618821522.13112,20.66309,22.118119955062866
1618821522.14675,26.35675,22.133749961853027
1618821522.16237,29.88696,22.149369955062866
1618821522.178,31.9657,22.164999961853027
1618821522.19362,33.39136,22.180619955062866
1618821522.20925,34.75995,22.196249961853027
1618821522.22488,36.33539,22.21187996864319
1618821522.2405,38.01074,22.227499961853027
1618821522.25613,39.52948,22.24312996864319
1618821522.27175,40.78748,22.258749961853027
1618821522.28738,41.89276,22.27437996864319
1618821522.303,43.16534,22.289999961853027
1618821522.31863,44.9621,22.30562996864319
1618821522.33426,47.4812,22.32125997543335
1618821522.34988,50.71289,22.33687996864319
1618821522.36551,54.66449,22.35250997543335
1618821522.38113,59.07294,22.36812996864319
1618821522.39676,63.48529,22.38375997543335
1618821522.41238,67.48749,22.39937996864319
1618821522.42801,70.7937,22.41500997543335
1618821522.44364,73.3902,22.43063998222351
1618821522.45926,75.46759,22.44625997543335
1618821522.47489,77.35522,22.46188998222351
1618821522.49051,79.37921,22.47750997543335
1618821522.50614,82.30322,22.49313998222351
1618821522.52176,86.41754,22.50875997543335
1618821522.53739,91.44855,22.52438998222351
1618821522.55302,96.91479,22.540019989013672
1618821522.56864,102.3846,22.55563998222351
1618821522.58427,107.6824,22.571269989013672
1618821522.59989,112.7993,22.58688998222351
1618821522.61552,117.84,22.602519989013672
1618821522.63115,123.0284,22.618149995803833
1618821522.64677,129.5184,22.633769989013672
1618821522.6624,138.0366,22.649399995803833
1618821522.67802,148.6754,22.665019989013672
1618821522.69365,161.1456,22.680649995803833
1618821522.70927,174.9227,22.696269989013672
1618821522.7249,189.4311,22.711899995803833
1618821522.74053,203.9506,22.727530002593994
1618821522.75615,217.5866,22.743149995803833
1618821522.77178,229.2141,22.758780002593994
1618821522.7874,238.2018,22.774399995803833
1618821522.80303,242.5019,22.790030002593994
1618821522.81865,238.4629,22.805649995803833
1618821522.83428,222.1879,22.821280002593994
1618821522.84991,191.0209,22.836910009384155
1618821522.86553,144.9139,22.852530002593994
1618821522.88116,86.91223,22.868160009384155
1618821522.89678,22.67139,22.883780002593994
1618821522.91241,-46.97806,22.899410009384155
1618821522.92803,-115.4408,22.915030002593994
1618821522.94366,-173.4804,22.930660009384155
1618821522.95929,-212.7775,22.946290016174316
1618821522.97491,-228.926,22.961910009384155
1618821522.99054,-222.7772,22.977540016174316
1618821523.00616,-198.9542,22.993160009384155
1618821523.02179,-163.3767,23.008790016174316
1618821523.03741,-121.6021,23.024410009384155
1618821523.05304,-78.19008,23.040040016174316
1618821523.06867,-35.82458,23.055670022964478
1618821523.08429,4.462479,23.071290016174316
1618821523.09992,40.49335,23.086920022964478
1618821523.11554,69.62788,23.102540016174316
1618821523.13117,89.64618,23.118170022964478
1618821523.14679,99.356,23.133790016174316
1618821523.16242,98.7826,23.149420022964478
1618821523.17805,88.95231,23.16505002975464
1618821523.19367,71.53776,23.180670022964478
1618821523.2093,49.01942,23.19630002975464
1618821523.22492,23.02346,23.211920022964478
1618821523.24055,-6.556519,23.22755002975464
1618821523.25617,-40.26752,23.243170022964478
1618821523.2718,-78.01651,23.25880002975464
1618821523.28743,-119.4388,23.2744300365448
1618821523.30305,-164.2627,23.29005002975464
1618821523.31868,-212.6658,23.3056800365448
1618821523.3343,-264.7922,23.32130002975464
1618821523.34993,-319.1561,23.3369300365448
1618821523.36555,-372.2496,23.35255002975464
1618821523.38118,-418.4888,23.3681800365448
1618821523.39681,-450.7805,23.38381004333496
1618821523.41243,-462.8346,23.3994300365448
1618821523.42806,-451.7337,23.41506004333496
1618821523.44368,-419.2145,23.4306800365448
1618821523.45931,-371.2614,23.44631004333496
1618821523.47493,-315.8686,23.4619300365448
1618821523.49056,-260.1743,23.47756004333496
1618821523.50619,-209.0468,23.493190050125122
1618821523.52181,-165.099,23.50881004333496
1618821523.53744,-129.2759,23.524440050125122
1618821523.55306,-101.8145,23.54006004333496
1618821523.56869,-82.67725,23.555690050125122
1618821523.58431,-71.04633,23.57131004333496
1618821523.59994,-64.95218,23.586940050125122
1618821523.61557,-61.39943,23.602570056915283
1618821523.63119,-57.27525,23.618190050125122
1618821523.64682,-50.68227,23.633820056915283
1618821523.66244,-41.66997,23.649440050125122
1618821523.67807,-31.84242,23.665070056915283
1618821523.69369,-23.2684,23.680690050125122
1618821523.70932,-17.44397,23.696320056915283
1618821523.72495,-14.57709,23.711950063705444
1618821523.74057,-13.74632,23.727570056915283
1618821523.7562,-13.48805,23.743200063705444
1618821523.77182,-12.57678,23.758820056915283
1618821523.78745,-10.35771,23.774450063705444
1618821523.80307,-6.725616,23.790070056915283
1618821523.8187,-1.905106,23.805700063705444
1618821523.83433,3.64444,23.821330070495605
1618821523.84995,9.156143,23.836950063705444
1618821523.86558,13.41911,23.852580070495605
1618821523.8812,14.93004,23.868200063705444
1618821523.89683,12.49287,23.883830070495605
1618821523.91245,5.806442,23.899450063705444
1618821523.92808,-4.154999,23.915080070495605
1618821523.94371,-15.21562,23.930710077285767
1618821523.95933,-24.8013,23.946330070495605
1618821523.97496,-30.82893,23.961960077285767
1618821523.99058,-32.33142,23.977580070495605
1618821524.00621,-29.55112,23.993210077285767
1618821524.02183,-23.46684,24.008830070495605
1618821524.03746,-15.26536,24.024460077285767
1618821524.05309,-6.116188,24.040090084075928
1618821524.06871,2.966866,24.055710077285767
1618821524.08434,11.07732,24.071340084075928
1618821524.09996,17.53809,24.086960077285767
1618821524.11559,22.16778,24.102590084075928
1618821524.13121,25.52335,24.118210077285767
1618821524.14684,28.73278,24.133840084075928
1618821524.16247,33.05038,24.14947009086609
1618821524.17809,39.09156,24.165090084075928
1618821524.19372,46.3066,24.18072009086609
1618821524.20934,53.23777,24.196340084075928
1618821524.22497,58.14681,24.21197009086609
1618821524.24059,59.90525,24.227590084075928
1618821524.25622,58.53681,24.24322009086609
1618821524.27185,55.17111,24.25885009765625
1618821524.28747,51.33987,24.27447009086609
1618821524.3031,48.21254,24.29010009765625
1618821524.31872,46.15955,24.30572009086609
1618821524.33435,44.74519,24.32135009765625
1618821524.34997,43.33451,24.33697009086609
1618821524.3656,41.53717,24.35260009765625
1618821524.38123,39.41986,24.36823010444641
1618821524.39685,37.36505,24.38385009765625
1618821524.41248,35.73827,24.39948010444641
1618821524.4281,34.41567,24.41510009765625
1618821524.44373,32.74337,24.43073010444641
1618821524.45935,29.8196,24.44635009765625
1618821524.47498,24.90742,24.46198010444641
1618821524.49061,17.99921,24.477609872817993
1618821524.50623,9.834373,24.49323010444641
1618821524.52186,1.663208,24.508859872817993
1618821524.53748,-5.30085,24.52448010444641
1618821524.55311,-10.42653,24.540109872817993
1618821524.56873,-13.94463,24.55573010444641
1618821524.58436,-16.69537,24.571359872817993
1618821524.59999,-19.59808,24.586989879608154
1618821524.61561,-22.99673,24.602609872817993
1618821524.63124,-26.26024,24.618239879608154
1618821524.64686,-28.04138,24.633859872817993
1618821524.66249,-26.84218,24.649489879608154
1618821524.67811,-21.77052,24.665109872817993
1618821524.69374,-13.06483,24.680739879608154
1618821524.70937,-2.02684,24.696369886398315
1618821524.72499,9.467484,24.711989879608154
1618821524.74062,19.70683,24.727619886398315
1618821524.75624,27.65401,24.743239879608154
1618821524.77187,33.15244,24.758869886398315
1618821524.78749,36.63936,24.774489879608154
1618821524.80312,38.71786,24.790119886398315
1618821524.81875,39.79631,24.805749893188477
1618821524.83437,39.91238,24.821369886398315
1618821524.85,38.92981,24.836999893188477
1618821524.86562,36.86342,24.852619886398315
1618821524.88125,34.04424,24.868249893188477
1618821524.89687,31.127,24.883869886398315
1618821524.9125,28.86966,24.899499893188477
1618821524.92813,27.74751,24.915129899978638
1618821524.94375,27.72433,24.930749893188477
1618821524.95938,28.30243,24.946379899978638
1618821524.975,28.63979,24.961999893188477
1618821524.99063,27.97073,24.977629899978638
1618821525.00625,25.90474,24.993249893188477
1618821525.02188,22.48383,25.008879899978638
1618821525.03751,18.13458,25.0245099067688
1618821525.05313,13.46175,25.040129899978638
1618821525.06876,9.01062,25.0557599067688
1618821525.08438,5.101746,25.071379899978638
1618821525.10001,1.83374,25.0870099067688
1618821525.11564,-0.9494934,25.10263991355896
1618821525.13126,-3.543442,25.1182599067688
1618821525.14689,-6.326355,25.13388991355896
1618821525.16251,-9.671722,25.1495099067688
1618821525.17814,-13.78107,25.16513991355896
1618821525.19376,-18.7049,25.1807599067688
1618821525.20939,-24.17493,25.19638991355896
1618821525.22502,-29.66348,25.21201992034912
1618821525.24064,-34.39752,25.22763991355896
1618821525.25627,-37.56747,25.24326992034912
1618821525.27189,-38.42352,25.25888991355896
1618821525.28752,-36.52573,25.27451992034912
1618821525.30314,-31.83649,25.29013991355896
1618821525.31877,-24.69354,25.30576992034912
1618821525.3344,-15.82178,25.321399927139282
1618821525.35002,-6.170685,25.33701992034912
1618821525.36565,3.343994,25.352649927139282
1618821525.38127,11.91046,25.36826992034912
1618821525.3969,18.9093,25.383899927139282
1618821525.41252,24.04761,25.39951992034912
1618821525.42815,27.27344,25.415149927139282
1618821525.44378,28.82443,25.430779933929443
1618821525.4594,29.20148,25.446399927139282
1618821525.47503,28.96249,25.462029933929443
1618821525.49065,28.49515,25.477649927139282
1618821525.50628,28.02823,25.493279933929443
1618821525.5219,27.44077,25.508899927139282
1618821525.53753,26.4364,25.524529933929443
1618821525.55316,24.79999,25.540159940719604
1618821525.56878,22.48206,25.555779933929443
1618821525.58441,19.80646,25.571409940719604
1618821525.60003,17.2637,25.587029933929443
1618821525.61566,15.34341,25.602659940719604
1618821525.63128,14.19272,25.618279933929443
1618821525.64691,13.62375,25.633909940719604
1618821525.66254,13.13843,25.649539947509766
1618821525.67816,12.23718,25.665159940719604
1618821525.69379,10.5708,25.680789947509766
1618821525.70941,8.07666,25.696409940719604
1618821525.72504,4.919556,25.712039947509766
1618821525.74066,1.290985,25.727659940719604
1618821525.75629,-2.631195,25.743289947509766
1618821525.77192,-6.846161,25.758919954299927
1618821525.78754,-11.3678,25.774539947509766
1618821525.80317,-16.23395,25.790169954299927
1618821525.81879,-21.29865,25.805789947509766
1618821525.83442,-26.177,25.821419954299927
1618821525.85004,-30.29837,25.837039947509766
1618821525.86567,-32.92865,25.852669954299927
1618821525.8813,-33.3653,25.868299961090088
1618821525.89692,-31.08167,25.883919954299927
1618821525.91255,-25.9754,25.899549961090088
1618821525.92817,-18.43378,25.915169954299927
1618821525.9438,-9.366913,25.930799961090088
1618821525.95942,0.06057739,25.946419954299927
1618821525.97505,8.743164,25.962049961090088
1618821525.99068,15.83438,25.97767996788025
1618821526.0063,20.97266,25.993299961090088
1618821526.02193,24.17905,26.00892996788025
1618821526.03755,25.71664,26.024549961090088
1618821526.05318,25.92764,26.04017996788025
1618821526.0688,25.12628,26.055799961090088
1618821526.08443,23.54694,26.07142996788025
1618821526.10006,21.49207,26.08705997467041
1618821526.11568,19.34042,26.10267996788025
1618821526.13131,17.48044,26.11830997467041
1618821526.14693,16.2608,26.13392996788025
1618821526.16256,15.80368,26.14955997467041
1618821526.17818,15.99838,26.16517996788025
1618821526.19381,16.47485,26.18080997467041
1618821526.20944,16.76715,26.19643998146057
1618821526.22506,16.45776,26.21205997467041
1618821526.24069,15.30127,26.22768998146057
1618821526.25631,13.35117,26.24330997467041
1618821526.27194,10.83148,26.25893998146057
1618821526.28756,8.061584,26.27455997467041
1618821526.30319,5.294891,26.29018998146057
1618821526.31882,2.669678,26.305819988250732
1618821526.33444,0.1402588,26.32143998146057
1618821526.35007,-2.402496,26.337069988250732
1618821526.36569,-5.092255,26.35268998146057
1618821526.38132,-8.075226,26.368319988250732
1618821526.39694,-11.44403,26.38393998146057
1618821526.41257,-15.29425,26.399569988250732
1618821526.4282,-19.57901,26.415199995040894
1618821526.44382,-24.01779,26.430819988250732
1618821526.45945,-27.99908,26.446449995040894
1618821526.47507,-30.64569,26.462069988250732
1618821526.4907,-30.98474,26.477699995040894
1618821526.50632,-28.35947,26.493319988250732
1618821526.52195,-22.69095,26.508949995040894
1618821526.53758,-14.56958,26.524580001831055
1618821526.5532,-5.143158,26.540199995040894
1618821526.56883,4.312897,26.555830001831055
1618821526.58445,12.65619,26.571449995040894
1618821526.60008,19.20062,26.587080001831055
1618821526.6157,23.76443,26.602699995040894
1618821526.63133,26.54269,26.618330001831055
1618821526.64696,27.89465,26.633960008621216
1618821526.66258,28.1861,26.649580001831055
1618821526.67821,27.74036,26.665210008621216
1618821526.69383,26.8186,26.680830001831055
1618821526.70946,25.65698,26.696460008621216
1618821526.72508,24.45193,26.712080001831055
1618821526.74071,23.36169,26.727710008621216
1618821526.75634,22.50693,26.743340015411377
1618821526.77196,21.88782,26.758960008621216
1618821526.78759,21.40823,26.774590015411377
1618821526.80321,20.88596,26.790210008621216
1618821526.81884,20.13019,26.805840015411377
1618821526.83446,18.9567,26.821460008621216
1618821526.85009,17.25339,26.837090015411377
1618821526.86572,14.93451,26.852720022201538
1618821526.88134,12.00934,26.868340015411377
1618821526.89697,8.622192,26.883970022201538
1618821526.91259,4.97879,26.899590015411377
1618821526.92822,1.35437,26.915220022201538
1618821526.94384,-1.983978,26.930840015411377
1618821526.95947,-4.890106,26.946470022201538
1618821526.9751,-7.437561,26.9621000289917
1618821526.99072,-9.884827,26.977720022201538
1618821527.00635,-12.63513,26.9933500289917
1618821527.02197,-16.05011,27.008970022201538
1618821527.0376,-20.25192,27.0246000289917
1618821527.05322,-25.02768,27.040220022201538
1618821527.06885,-29.76938,27.0558500289917
1618821527.08448,-33.54617,27.07148003578186
1618821527.1001,-35.34128,27.0871000289917
1618821527.11573,-34.33829,27.10273003578186
1618821527.13135,-30.17142,27.1183500289917
1618821527.14698,-23.08673,27.13398003578186
1618821527.1626,-13.93921,27.1496000289917
1618821527.17823,-3.973846,27.16523003578186
1618821527.19386,5.394043,27.18086004257202
1618821527.20948,13.02094,27.19648003578186
1618821527.22511,18.24847,27.21211004257202
1618821527.24073,21.03888,27.22773003578186
1618821527.25636,21.89218,27.24336004257202
1618821527.27198,21.63486,27.25898003578186
1618821527.28761,21.08585,27.27461004257202
1618821527.30324,20.85547,27.290240049362183
1618821527.31886,21.25888,27.30586004257202
1618821527.33449,22.20505,27.321490049362183
1618821527.35011,23.43698,27.33711004257202
1618821527.36574,24.59055,27.352740049362183
1618821527.38137,25.37485,27.368370056152344
1618821527.39699,25.62997,27.383990049362183
1618821527.41262,25.35831,27.399620056152344
1618821527.42824,24.61426,27.415240049362183
1618821527.44387,23.52222,27.430870056152344
1618821527.45949,22.19312,27.446490049362183
1618821527.47512,20.64093,27.462120056152344
1618821527.49075,18.83893,27.477750062942505
1618821527.50637,16.71362,27.493370056152344
1618821527.522,14.21597,27.509000062942505
1618821527.53762,11.39883,27.524620056152344
1618821527.55325,8.419769,27.540250062942505
1618821527.56887,5.470764,27.555870056152344
1618821527.5845,2.718964,27.571500062942505
1618821527.60013,0.290802,27.587130069732666
1618821527.61575,-1.843201,27.602750062942505
1618821527.63138,-3.866882,27.618380069732666
1618821527.647,-6.015045,27.634000062942505
1618821527.66263,-8.523438,27.649630069732666
1618821527.67825,-11.38724,27.665250062942505
1618821527.69388,-14.33743,27.680880069732666
1618821527.70951,-16.76422,27.696510076522827
1618821527.72513,-17.90405,27.712130069732666
1618821527.74076,-16.96362,27.727760076522827
1618821527.75638,-13.42917,27.743380069732666
1618821527.77201,-7.301941,27.759010076522827
1618821527.78763,0.9011536,27.774630069732666
1618821527.80326,10.08118,27.790260076522827
1618821527.81889,18.91537,27.80589008331299
1618821527.83451,26.13892,27.821510076522827
1618821527.85014,30.80179,27.83714008331299
1618821527.86576,32.47787,27.852760076522827
1618821527.88139,31.27121,27.86839008331299
1618821527.89701,27.76025,27.884010076522827
1618821527.91264,22.73901,27.89964008331299
1618821527.92827,17.09192,27.91527009010315
1618821527.94389,11.55908,27.93089008331299
1618821527.95952,6.693695,27.94652009010315
1618821527.97514,2.880096,27.96214008331299
1618821527.99077,0.3517456,27.97777009010315
1618821528.00639,-0.7772522,27.99339008331299
1618821528.02202,-0.517334,28.00902009010315
1618821528.03765,0.9306946,28.02465009689331
1618821528.05327,3.103638,28.04027009010315
1618821528.0689,5.390045,28.05590009689331
1618821528.08452,7.118652,28.07152009010315
1618821528.10015,7.868713,28.08715009689331
1618821528.11577,7.580353,28.10277009010315
1618821528.1314,6.538544,28.11840009689331
1618821528.14703,5.160034,28.13403010368347
1618821528.16265,3.738525,28.14965009689331
1618821528.17828,2.327484,28.16528010368347
1618821528.1939,0.6729431,28.18090009689331
1618821528.20953,-1.571625,28.19653010368347
1618821528.22515,-4.631592,28.21215009689331
1618821528.24078,-8.465271,28.22778010368347
1618821528.25641,-12.70886,28.243409872055054
1618821528.27203,-16.94473,28.25903010368347
1618821528.28766,-20.79181,28.274659872055054
1618821528.30328,-24.03824,28.29028010368347
1618821528.31891,-26.53784,28.305909872055054
1618821528.33453,-28.12125,28.32153010368347
1618821528.35016,-28.58441,28.337159872055054
1618821528.36579,-27.61661,28.352789878845215
1618821528.38141,-25.0239,28.368409872055054
1618821528.39704,-20.71329,28.384039878845215
1618821528.41266,-14.90363,28.399659872055054
1618821528.42829,-7.960846,28.415289878845215
1618821528.44391,-0.326416,28.430909872055054
1618821528.45954,7.478973,28.446539878845215
1618821528.47517,14.9299,28.462169885635376
1618821528.49079,21.46817,28.477789878845215
1618821528.50642,26.53802,28.493419885635376
1618821528.52204,29.72882,28.509039878845215
1618821528.53767,31.00247,28.524669885635376
1618821528.55329,30.6113,28.540289878845215
1618821528.56892,29.08789,28.555919885635376
1618821528.58455,27.00449,28.571549892425537
1618821528.60017,24.79916,28.587169885635376
1618821528.6158,22.7095,28.602799892425537
1618821528.63142,20.78616,28.618419885635376
1618821528.64705,18.99625,28.634049892425537
1618821528.66267,17.24603,28.649669885635376
1618821528.6783,15.45938,28.665299892425537
1618821528.69393,13.53162,28.6809298992157
1618821528.70955,11.2774,28.696549892425537
1618821528.72518,8.554779,28.7121798992157
1618821528.7408,5.304657,28.727799892425537
1618821528.75643,1.653442,28.7434298992157
1618821528.77205,-2.164307,28.759049892425537
1618821528.78768,-5.789917,28.7746798992157
1618821528.80331,-8.961823,28.79030990600586
1618821528.81893,-11.56256,28.8059298992157
1618821528.83456,-13.59244,28.82155990600586
1618821528.85018,-15.22305,28.8371798992157
1618821528.86581,-16.67969,28.85280990600586
1618821528.88143,-18.23032,28.8684298992157
1618821528.89706,-20.08972,28.88405990600586
1618821528.91269,-22.49316,28.89968991279602
1618821528.92831,-25.52866,28.91530990600586
1618821528.94394,-29.02969,28.93093991279602
1618821528.95956,-32.52698,28.94655990600586
1618821528.97519,-35.23434,28.96218991279602
1618821528.99081,-36.1568,28.97780990600586
1618821529.00644,-34.44226,28.99343991279602
1618821529.02207,-29.73376,29.00906991958618
1618821529.03769,-22.36197,29.02468991279602
1618821529.05332,-13.3501,29.04031991958618
1618821529.06894,-4.145203,29.05593991279602
1618821529.08457,3.920135,29.07156991958618
1618821529.10019,9.990997,29.08718991279602
1618821529.11582,13.97928,29.10281991958618
1618821529.13145,16.37924,29.118449926376343
1618821529.14707,17.89655,29.13406991958618
1618821529.1627,19.05795,29.149699926376343
1618821529.17832,19.98654,29.16531991958618
1618821529.19395,20.5697,29.180949926376343
1618821529.20957,20.64716,29.19656991958618
1618821529.2252,20.26749,29.212199926376343
1618821529.24083,19.68503,29.227829933166504
1618821529.25645,19.23849,29.243449926376343
1618821529.27208,19.06366,29.259079933166504
1618821529.2877,19.03934,29.274699926376343
1618821529.30333,18.87512,29.290329933166504
1618821529.31895,18.26819,29.305949926376343
1618821529.33458,17.11447,29.321579933166504
1618821529.35021,15.52994,29.337209939956665
1618821529.36583,13.68469,29.352829933166504
1618821529.38146,11.73218,29.368459939956665
1618821529.39708,9.702728,29.384079933166504
1618821529.41271,7.528687,29.399709939956665
1618821529.42833,5.158295,29.415329933166504
1618821529.44396,2.649353,29.430959939956665
1618821529.45959,0.132019,29.446589946746826
1618821529.47521,-2.345581,29.462209939956665
1618821529.49084,-4.751099,29.477839946746826
1618821529.50646,-7.181366,29.493459939956665
1618821529.52209,-9.713898,29.509089946746826
1618821529.53771,-12.43475,29.524709939956665
1618821529.55334,-15.44888,29.540339946746826
1618821529.56897,-18.81906,29.555969953536987
1618821529.58459,-22.55069,29.571589946746826
1618821529.60022,-26.46735,29.587219953536987
1618821529.61584,-30.10083,29.602839946746826
1618821529.63147,-32.62671,29.618469953536987
1618821529.64709,-33.08679,29.634089946746826
1618821529.66272,-30.66357,29.649719953536987
1618821529.67835,-25.16714,29.66534996032715
1618821529.69397,-17.18076,29.680969953536987
1618821529.7096,-7.929871,29.69659996032715
1618821529.72522,1.068817,29.712219953536987
1618821529.74085,8.547699,29.72784996032715
1618821529.75647,13.9054,29.743469953536987
1618821529.7721,17.22702,29.75909996032715
1618821529.78773,19.10278,29.77472996711731
1618821529.80335,20.22208,29.79034996032715
1618821529.81898,21.07062,29.80597996711731
1618821529.8346,21.85391,29.82159996032715
1618821529.85023,22.63141,29.83722996711731
1618821529.86585,23.38794,29.85284996032715
1618821529.88148,24.12964,29.86847996711731
1618821529.89711,24.96194,29.88410997390747
1618821529.91273,25.86252,29.89972996711731
1618821529.92836,26.70126,29.91535997390747
1618821529.94398,27.23581,29.93097996711731
1618821529.95961,27.21463,29.94660997390747
1618821529.97524,26.4906,29.962239980697632
1618821529.99086,25.11606,29.97785997390747
1618821530.00649,23.22897,29.993489980697632
1618821530.02211,20.97717,30.00910997390747
1618821530.03774,18.52759,30.024739980697632
1618821530.05336,15.85522,30.04035997390747
1618821530.06899,12.83032,30.055989980697632
1618821530.08462,9.269775,30.071619987487793
1618821530.10024,5.023438,30.087239980697632
1618821530.11587,0.06710815,30.102869987487793
1618821530.13149,-5.400787,30.118489980697632
1618821530.14712,-11.02144,30.134119987487793
1618821530.16274,-16.32883,30.149739980697632
1618821530.17837,-20.83113,30.165369987487793
1618821530.194,-24.31561,30.180999994277954
1618821530.20962,-26.87238,30.196619987487793
1618821530.22525,-28.79889,30.212249994277954
1618821530.24087,-30.50739,30.227869987487793
1618821530.2565,-32.18292,30.243499994277954
1618821530.27212,-33.64462,30.259119987487793
1618821530.28775,-34.27953,30.274749994277954
1618821530.30338,-33.29187,30.290380001068115
1618821530.319,-29.97914,30.305999994277954
1618821530.33463,-24.16258,30.321630001068115
1618821530.35025,-16.20547,30.337249994277954
1618821530.36588,-6.915268,30.352880001068115
1618821530.3815,2.608139,30.368499994277954
1618821530.39713,11.36879,30.384130001068115
1618821530.41276,18.61351,30.399760007858276
1618821530.42838,23.95491,30.415380001068115
1618821530.44401,27.29848,30.431010007858276
1618821530.45963,28.80269,30.446630001068115
1618821530.47526,28.68152,30.462260007858276
1618821530.49088,27.29652,30.477880001068115
1618821530.50651,25.08511,30.493510007858276
1618821530.52214,22.4763,30.509140014648438
1618821530.53776,19.89798,30.524760007858276
1618821530.55339,17.64622,30.540390014648438
1618821530.56901,15.83475,30.556010007858276
1618821530.58464,14.39758,30.571640014648438
1618821530.60026,13.17708,30.587260007858276
1618821530.61589,11.99651,30.602890014648438
1618821530.63152,10.81863,30.6185200214386
1618821530.64714,9.746338,30.634140014648438
1618821530.66277,8.867905,30.6497700214386
1618821530.67839,8.26474,30.665390014648438
1618821530.69402,7.842712,30.6810200214386
1618821530.70964,7.360168,30.696640014648438
1618821530.72527,6.540131,30.7122700214386
1618821530.7409,5.173615,30.72790002822876
1618821530.75652,3.165512,30.7435200214386
1618821530.77215,0.5788879,30.75915002822876
1618821530.78777,-2.438965,30.7747700214386
1618821530.8034,-5.796631,30.79040002822876
1618821530.81902,-9.291229,30.8060200214386
1618821530.83465,-12.71706,30.82165002822876
1618821530.85028,-15.89484,30.83728003501892
1618821530.8659,-18.66475,30.85290002822876
1618821530.88153,-20.99223,30.86853003501892
1618821530.89715,-23.05698,30.88415002822876
1618821530.91278,-25.15475,30.89978003501892
1618821530.9284,-27.51689,30.91540002822876
1618821530.94403,-30.27002,30.93103003501892
1618821530.95966,-33.09841,30.946660041809082
1618821530.97528,-35.45667,30.96228003501892
1618821530.99091,-36.63557,30.977910041809082
1618821531.00653,-36.1025,30.99353003501892
1618821531.02216,-33.63707,31.009160041809082
1618821531.03778,-29.51105,31.02478003501892
1618821531.05341,-24.40279,31.040410041809082
1618821531.06904,-19.12856,31.056040048599243
1618821531.08466,-14.53629,31.071660041809082
1618821531.10029,-11.16476,31.087290048599243
1618821531.11591,-9.187683,31.102910041809082
1618821531.13154,-8.432167,31.118540048599243
1618821531.14716,-8.5121,31.134160041809082
1618821531.16279,-8.988518,31.149790048599243
1618821531.17842,-9.556046,31.165420055389404
1618821531.19404,-10.03328,31.181040048599243
1618821531.20967,-10.3483,31.196670055389404
1618821531.22529,-10.52834,31.212290048599243
1618821531.24092,-10.64091,31.227920055389404
1618821531.25654,-10.78533,31.243540048599243
1618821531.27217,-10.99265,31.259170055389404
1618821531.2878,-11.08916,31.274800062179565
1618821531.30342,-10.69042,31.290420055389404
1618821531.31905,-9.262329,31.306050062179565
1618821531.33467,-6.256355,31.321670055389404
1618821531.3503,-1.502365,31.337300062179565
1618821531.36592,4.607292,31.352920055389404
1618821531.38155,11.11374,31.368550062179565
1618821531.39718,16.73858,31.384180068969727
1618821531.4128,20.33514,31.399800062179565
1618821531.42843,21.3065,31.415430068969727
1618821531.44405,19.72073,31.431050062179565
1618821531.45968,16.11136,31.446680068969727
1618821531.4753,11.3159,31.462300062179565
1618821531.49093,6.15464,31.477930068969727
1618821531.50656,1.358444,31.493560075759888
1618821531.52218,-2.51899,31.509180068969727
1618821531.53781,-5.132103,31.524810075759888
1618821531.55343,-6.494202,31.540430068969727
1618821531.56906,-6.991074,31.556060075759888
1618821531.58468,-7.372841,31.571680068969727
1618821531.60031,-8.513603,31.587310075759888
1618821531.61594,-10.93855,31.60294008255005
1618821531.63156,-14.44397,31.618560075759888
1618821531.64719,-18.06158,31.63419008255005
1618821531.66281,-20.34769,31.649810075759888
1618821531.67844,-19.99216,31.66544008255005
1618821531.69406,-16.45121,31.681060075759888
1618821531.70969,-10.12337,31.69669008255005
1618821531.72532,-2.210724,31.71232008934021
1618821531.74094,5.815544,31.72794008255005
1618821531.75657,12.77292,31.74357008934021
1618821531.77219,18.08804,31.75919008255005
1618821531.78782,21.79188,31.77482008934021
1618821531.80344,24.30094,31.79044008255005
1618821531.81907,26.03126,31.80607008934021
1618821531.8347,27.22753,31.82170009613037
1618821531.85032,27.83208,31.83732008934021
1618821531.86595,27.70625,31.85295009613037
1618821531.88157,26.75317,31.86857008934021
1618821531.8972,25.01492,31.88420009613037
1618821531.91282,22.70676,31.89982008934021
1618821531.92845,20.12697,31.91545009613037
1618821531.94408,17.61658,31.931080102920532
1618821531.9597,15.42988,31.94670009613037
1618821531.97533,13.73078,31.962330102920532
1618821531.99095,12.53099,31.97795009613037
1618821532.00658,11.69285,31.993580102920532
1618821532.0222,10.98248,32.00920009613037
1618821532.03783,10.12568,32.02483010292053
1618821532.05346,8.924099,32.040459871292114
1618821532.06908,7.264515,32.05608010292053
1618821532.08471,5.13171,32.071709871292114
1618821532.10033,2.567991,32.08733010292053
1618821532.11596,-0.3816929,32.102959871292114
1618821532.13158,-3.67103,32.11858010292053
1618821532.14721,-7.20261,32.134209871292114
1618821532.16284,-10.87796,32.149839878082275
1618821532.17846,-14.57989,32.165459871292114
1618821532.19409,-18.25423,32.181089878082275
1618821532.20971,-21.89949,32.196709871292114
1618821532.22534,-25.53094,32.212339878082275
1618821532.24097,-29.07993,32.22796988487244
1618821532.25659,-32.2422,32.243589878082275
1618821532.27222,-34.48697,32.25921988487244
1618821532.28784,-35.11969,32.274839878082275
1618821532.30347,-33.49929,32.29046988487244
1618821532.31909,-29.29964,32.306089878082275
1618821532.33472,-22.65489,32.32171988487244
1618821532.35035,-14.24544,32.3373498916626
1618821532.36597,-5.085363,32.35296988487244
1618821532.3816,3.653004,32.3685998916626
1618821532.39722,11.00469,32.38421988487244
1618821532.41285,16.38544,32.3998498916626
1618821532.42847,19.70864,32.41546988487244
1618821532.4441,21.25153,32.4310998916626
1618821532.45973,21.5067,32.44672989845276
1618821532.47535,20.95719,32.4623498916626
1618821532.49098,19.98291,32.47797989845276
1618821532.5066,18.79612,32.4935998916626
1618821532.52223,17.47603,32.50922989845276
1618821532.53785,16.0386,32.5248498916626
1618821532.55348,14.43327,32.54047989845276
1618821532.56911,12.67395,32.55610990524292
1618821532.58473,10.74609,32.57172989845276
1618821532.60036,8.696384,32.58735990524292
1618821532.61598,6.617634,32.60297989845276
1618821532.63161,4.66901,32.61860990524292
1618821532.64723,3.012867,32.63422989845276
1618821532.66286,1.717819,32.64985990524292
1618821532.67849,0.7333832,32.66548991203308
1618821532.69411,-0.1734047,32.68110990524292
1618821532.70974,-1.263828,32.69673991203308
1618821532.72536,-2.774567,32.71235990524292
1618821532.74099,-4.808918,32.72798991203308
1618821532.75661,-7.312103,32.74360990524292
1618821532.77224,-10.08469,32.75923991203308
1618821532.78787,-12.83525,32.77486991882324
1618821532.80349,-15.27326,32.79048991203308
1618821532.81912,-17.22077,32.80611991882324
1618821532.83474,-18.64832,32.82173991203308
1618821532.85037,-19.80853,32.83736991882324
1618821532.86599,-21.09941,32.85298991203308
1618821532.88162,-22.84652,32.86861991882324
1618821532.89725,-25.12659,32.8842499256134
1618821532.91287,-27.54532,32.89986991882324
1618821532.9285,-29.27808,32.9154999256134
1618821532.94412,-29.31658,32.93111991882324
1618821532.95975,-26.86464,32.9467499256134
1618821532.97537,-21.70658,32.96236991882324
1618821532.991,-14.40309,32.9779999256134
1618821533.00663,-6.125092,32.993629932403564
1618821533.02225,1.769897,33.0092499256134
1618821533.03788,8.250381,33.024879932403564
1618821533.0535,12.82699,33.0404999256134
1618821533.06913,15.63387,33.056129932403564
1618821533.08475,17.16029,33.0717499256134
1618821533.10038,17.94025,33.087379932403564
1618821533.11601,18.29681,33.103009939193726
1618821533.13163,18.36868,33.118629932403564
1618821533.14726,18.18647,33.134259939193726
1618821533.16288,17.82369,33.149879932403564
1618821533.17851,17.48035,33.165509939193726
1618821533.19413,17.36961,33.181129932403564
1618821533.20976,17.50362,33.196759939193726
1618821533.22539,17.61942,33.21238994598389
1618821533.24101,17.3278,33.228009939193726
1618821533.25664,16.36607,33.24363994598389
1618821533.27226,14.79237,33.259259939193726
1618821533.28789,13.03596,33.27488994598389
1618821533.30351,11.70929,33.290509939193726
1618821533.31914,11.29811,33.30613994598389
1618821533.33477,12.02989,33.32176995277405
1618821533.35039,13.46272,33.33738994598389
1618821533.36602,14.80396,33.35301995277405
1618821533.38164,15.33664,33.36863994598389
1618821533.39727,14.85246,33.38426995277405
1618821533.41289,13.78278,33.39988994598389
1618821533.42852,13.01773,33.41551995277405
1618821533.44415,13.37395,33.43114995956421
1618821533.45977,15.20181,33.44676995277405
1618821533.4754,18.35924,33.46239995956421
1618821533.49102,21.54901,33.47801995277405
1618821533.50665,23.14984,33.49364995956421
1618821533.52227,21.93587,33.50926995277405
1618821533.5379,17.99791,33.52489995956421
1618821533.55353,12.89688,33.54052996635437
1618821533.56915,9.113953,33.55614995956421
1618821533.58478,8.947708,33.57177996635437
1618821533.6004,13.64828,33.58739995956421
1618821533.61603,23.14835,33.60302996635437
1618821533.63165,35.08046,33.61864995956421
1618821533.64728,46.23399,33.63427996635437
1618821533.66291,53.59282,33.64990997314453
1618821533.67853,55.79614,33.66552996635437
1618821533.69416,53.42828,33.68115997314453
1618821533.70978,48.3165,33.69677996635437
1618821533.72541,42.26723,33.71240997314453
1618821533.74103,36.27512,33.72802996635437
1618821533.75666,30.35759,33.74365997314453
1618821533.77229,22.12985,33.75928997993469
1618821533.78791,8.031479,33.77490997314453
1618821533.80354,-15.89809,33.79053997993469
1618821533.81916,-52.34755,33.80615997314453
1618821533.83479,-101.71,33.82178997993469
1618821533.85041,-162.0253,33.83740997314453
1618821533.86604,-229.5881,33.85303997993469
1618821533.88167,-299.5373,33.86866998672485
1618821533.89729,-357.2515,33.88428997993469
1618821533.91292,-387.2919,33.89991998672485
1618821533.92854,-377.8447,33.91553997993469
1618821533.94417,-326.885,33.93116998672485
1618821533.95979,-243.0385,33.94678997993469
1618821533.97542,-140.4712,33.96241998672485
1618821533.99105,-32.44534,33.978049993515015
1618821534.00667,71.66019,33.99366998672485
1618821534.0223,166.2287,34.009299993515015
1618821534.03792,248.0084,34.02491998672485
1618821534.05355,313.5809,34.040549993515015
1618821534.06917,362.5454,34.05616998672485
1618821534.0848,394.6638,34.071799993515015
1618821534.10043,410.9912,34.087430000305176
1618821534.11605,414.3985,34.103049993515015
1618821534.13168,408.6886,34.118680000305176
1618821534.1473,397.0659,34.134299993515015
1618821534.16293,381.2224,34.149930000305176
1618821534.17855,361.4604,34.165549993515015
1618821534.19418,336.1483,34.181180000305176
1618821534.20981,302.8405,34.19681000709534
1618821534.22543,261.0071,34.212430000305176
1618821534.24106,212.3256,34.22806000709534
1618821534.25668,160.2927,34.243680000305176
1618821534.27231,108.7475,34.25931000709534
1618821534.28793,60.34491,34.274930000305176
1618821534.30356,15.86768,34.29056000709534
1618821534.31919,-25.68674,34.3061900138855
1618821534.33481,-67.25601,34.32181000709534
1618821534.35044,-112.4679,34.3374400138855
1618821534.36606,-164.6494,34.35306000709534
1618821534.38169,-224.8831,34.3686900138855
1618821534.39732,-290.5473,34.38432002067566
1618821534.41294,-355.0247,34.3999400138855
1618821534.42857,-409.1823,34.41557002067566
1618821534.44419,-444.086,34.4311900138855
1618821534.45982,-454.0515,34.44682002067566
1618821534.47544,-439.0395,34.4624400138855
1618821534.49107,-404.3482,34.47807002067566
1618821534.5067,-358.5684,34.49370002746582
1618821534.52232,-310.3347,34.50932002067566
1618821534.53795,-265.8846,34.52495002746582
1618821534.55357,-228.3194,34.54057002067566
1618821534.5692,-198.5668,34.55620002746582
1618821534.58482,-176.5382,34.57182002067566
1618821534.60045,-161.6776,34.58745002746582
1618821534.61608,-152.9349,34.60308003425598
1618821534.6317,-148.2573,34.61870002746582
1618821534.64733,-144.7361,34.63433003425598
1618821534.66295,-139.4313,34.64995002746582
1618821534.67858,-130.5191,34.66558003425598
1618821534.6942,-117.9248,34.68120002746582
1618821534.70983,-103.0594,34.69683003425598
1618821534.72546,-87.87317,34.71246004104614
1618821534.74108,-74.08572,34.72808003425598
1618821534.75671,-62.75717,34.74371004104614
1618821534.77233,-54.36856,34.75933003425598
1618821534.78796,-49.15128,34.77496004104614
1618821534.80358,-46.95758,34.79058003425598
1618821534.81921,-47.08789,34.80621004104614
1618821534.83484,-48.0726,34.821840047836304
1618821534.85046,-47.85681,34.83746004104614
1618821534.86609,-44.47726,34.853090047836304
1618821534.88171,-36.7178,34.86871004104614
1618821534.89734,-24.65488,34.884340047836304
1618821534.91296,-9.393585,34.89996004104614
1618821534.92859,7.313354,34.915590047836304
1618821534.94422,23.7915,34.931220054626465
1618821534.95984,38.80643,34.946840047836304
1618821534.97547,51.65216,34.962470054626465
1618821534.99109,61.84854,34.978090047836304
1618821535.00672,68.96423,34.993720054626465
1618821535.02234,72.56476,35.009340047836304
1618821535.03797,72.44928,35.024970054626465
1618821535.0536,69.08301,35.040600061416626
1618821535.06922,63.52242,35.056220054626465
1618821535.08485,57.32486,35.071850061416626
1618821535.10047,51.98083,35.087470054626465
1618821535.1161,48.46228,35.103100061416626
1618821535.13172,46.93517,35.118720054626465
1618821535.14735,46.92107,35.134350061416626
1618821535.16298,47.56239,35.14998006820679
1618821535.1786,48.05896,35.165600061416626
1618821535.19423,47.93497,35.18123006820679
1618821535.20985,46.98136,35.196850061416626
1618821535.22548,45.24632,35.21248006820679
1618821535.2411,42.89354,35.228100061416626
1618821535.25673,40.12726,35.24373006820679
1618821535.27236,37.16087,35.25936007499695
1618821535.28798,34.10635,35.27498006820679
1618821535.30361,30.85262,35.29061007499695
1618821535.31923,27.15649,35.30623006820679
1618821535.33486,22.71753,35.32186007499695
1618821535.35048,17.40424,35.33748006820679
1618821535.36611,11.40702,35.35311007499695
1618821535.38174,5.221708,35.36874008178711
1618821535.39736,-0.6336384,35.38436007499695
1618821535.41299,-5.795425,35.39999008178711
1618821535.42861,-10.20574,35.41561007499695
1618821535.44424,-13.94441,35.43124008178711
1618821535.45986,-16.95771,35.44686007499695
1618821535.47549,-18.86668,35.46249008178711
1618821535.49112,-18.97414,35.47812008857727
1618821535.50674,-16.56013,35.49374008178711
1618821535.52237,-11.26086,35.50937008857727
1618821535.53799,-3.38488,35.52499008178711
1618821535.55362,6.144142,35.54062008857727
1618821535.56924,15.95624,35.55624008178711
1618821535.58487,24.78329,35.57187008857727
1618821535.6005,31.8253,35.58750009536743
1618821535.61612,36.81261,35.60312008857727
1618821535.63175,39.92764,35.61875009536743
1618821535.64737,41.56586,35.63437008857727
1618821535.663,42.06703,35.65000009536743
1618821535.67862,41.66182,35.66562008857727
1618821535.69425,40.50089,35.68125009536743
1618821535.70988,38.72447,35.69688010215759
1618821535.7255,36.58966,35.71250009536743
1618821535.74113,34.47475,35.72813010215759
1618821535.75675,32.69528,35.74375009536743
1618821535.77238,31.46652,35.75938010215759
1618821535.788,30.79727,35.77500009536743
1618821535.80363,30.42911,35.79063010215759
1618821535.81926,29.9299,35.806259870529175
1618821535.83488,28.79608,35.82188010215759
1618821535.85051,26.63852,35.837509870529175
1618821535.86613,23.44917,35.85313010215759
1618821535.88176,19.59335,35.868759870529175
1618821535.89738,15.73624,35.88438010215759
1618821535.91301,12.55959,35.900009870529175
1618821535.92864,10.41885,35.915639877319336
1618821535.94426,9.136597,35.931259870529175
1618821535.95989,8.122192,35.946889877319336
1618821535.97551,6.579498,35.962509870529175
1618821535.99114,3.886505,35.978139877319336
1618821536.00676,-0.1401367,35.993759870529175
1618821536.02239,-5.307465,36.009389877319336
1618821536.03802,-11.05789,36.0250198841095
1618821536.05364,-16.68469,36.040639877319336
1618821536.06927,-21.37219,36.0562698841095
1618821536.08489,-24.42163,36.071889877319336
1618821536.10052,-25.18967,36.0875198841095
1618821536.11614,-23.36041,36.103139877319336
1618821536.13177,-19.00507,36.1187698841095
1618821536.1474,-12.63031,36.13439989089966
1618821536.16302,-5.149811,36.1500198841095
1618821536.17865,2.445679,36.16564989089966
1618821536.19427,9.339355,36.1812698841095
1618821536.2099,15.12622,36.19689989089966
1618821536.22552,19.7027,36.2125198841095
1618821536.24115,23.23642,36.22814989089966
1618821536.25678,25.923,36.24377989768982
1618821536.2724,27.88596,36.25939989089966
1618821536.28803,29.17117,36.27502989768982
1618821536.30365,29.72559,36.29064989089966
1618821536.31928,29.62897,36.30627989768982
1618821536.3349,29.17224,36.32189989089966
1618821536.35053,28.86005,36.33752989768982
1618821536.36616,29.26413,36.35315990447998
1618821536.38178,30.75098,36.36877989768982
1618821536.39741,33.25497,36.38440990447998
1618821536.41303,36.14584,36.40002989768982
1618821536.42866,38.39316,36.41565990447998
1618821536.44428,38.93781,36.43127989768982
1618821536.45991,37.19556,36.44690990447998
1618821536.47554,33.32941,36.46253991127014
1618821536.49116,28.16382,36.47815990447998
1618821536.50679,22.86111,36.49378991127014
1618821536.52241,18.31412,36.50940990447998
1618821536.53804,14.89334,36.52503991127014
1618821536.55366,12.32419,36.54065990447998
1618821536.56929,9.969849,36.55628991127014
1618821536.58492,7.183899,36.5719199180603
1618821536.60054,3.559204,36.58753991127014
1618821536.61617,-1.03183,36.6031699180603
1618821536.63179,-6.503235,36.61878991127014
1618821536.64742,-12.52991,36.6344199180603
1618821536.66304,-18.543,36.65003991127014
1618821536.67867,-23.66409,36.6656699180603
1618821536.6943,-26.80698,36.681299924850464
1618821536.70992,-26.91592,36.6969199180603
1618821536.72555,-23.40161,36.712549924850464
1618821536.74117,-16.50964,36.7281699180603
1618821536.7568,-7.331116,36.743799924850464
1618821536.77242,2.462555,36.7594199180603
1618821536.78805,11.2941,36.775049924850464
1618821536.80368,18.16046,36.790679931640625
1618821536.8193,22.8295,36.806299924850464
1618821536.83493,25.71439,36.821929931640625
1618821536.85055,27.43759,36.837549924850464
1618821536.86618,28.49518,36.853179931640625
1618821536.8818,29.06052,36.868799924850464
1618821536.89743,29.06723,36.884429931640625
1618821536.91306,28.43622,36.900059938430786
1618821536.92868,27.22076,36.915679931640625
1618821536.94431,25.67139,36.931309938430786
1618821536.95993,24.10107,36.946929931640625
1618821536.97556,22.81018,36.962559938430786
1618821536.99118,21.91223,36.978179931640625
1618821537.00681,21.39917,36.993809938430786
1618821537.02244,21.09137,37.00943994522095
1618821537.03806,20.69098,37.025059938430786
1618821537.05369,19.8949,37.04068994522095
1618821537.06931,18.39081,37.056309938430786
1618821537.08494,16.0296,37.07193994522095
1618821537.10057,12.82867,37.08756995201111
1618821537.11619,9.052673,37.10318994522095
1618821537.13182,5.049683,37.11881995201111
1618821537.14744,1.153625,37.13443994522095
1618821537.16307,-2.459534,37.15006995201111
1618821537.17869,-5.867554,37.16568994522095
1618821537.19432,-9.285278,37.18131995201111
1618821537.20995,-12.96857,37.19694995880127
1618821537.22557,-17.04688,37.21256995201111
1618821537.2412,-21.42303,37.22819995880127
1618821537.25682,-25.71942,37.24381995201111
1618821537.27245,-29.35284,37.25944995880127
1618821537.28807,-31.57727,37.27506995201111
1618821537.3037,-31.75269,37.29069995880127
1618821537.31933,-29.50873,37.30632996559143
1618821537.33495,-24.90051,37.32194995880127
1618821537.35058,-18.38782,37.33757996559143
1618821537.3662,-10.73846,37.35319995880127
1618821537.38183,-2.797791,37.36882996559143
1618821537.39745,4.733459,37.38444995880127
1618821537.41308,11.35114,37.40007996559143
1618821537.42871,16.8382,37.41570997238159
1618821537.44433,21.15985,37.43132996559143
1618821537.45996,24.41229,37.44695997238159
1618821537.47558,26.70715,37.46257996559143
1618821537.49121,28.16522,37.47820997238159
1618821537.50683,28.84235,37.49382996559143
1618821537.52246,28.77667,37.50945997238159
1618821537.53809,28.04181,37.52508997917175
1618821537.55371,26.78778,37.54070997238159
1618821537.56934,25.26617,37.55633997917175
1618821537.58496,23.79187,37.57195997238159
1618821537.60059,22.64087,37.58758997917175
1618821537.61621,21.86157,37.60320997238159
1618821537.63184,21.26385,37.61883997917175
1618821537.64747,20.49323,37.634469985961914
1618821537.66309,19.16992,37.65008997917175
1618821537.67872,17.15924,37.665719985961914
1618821537.69434,14.6673,37.68133997917175
1618821537.70997,12.09772,37.696969985961914
1618821537.72559,9.837341,37.71258997917175
1618821537.74122,8.036743,37.728219985961914
1618821537.75685,6.462463,37.743849992752075
1618821537.77247,4.572998,37.759469985961914
1618821537.7881,1.848145,37.775099992752075
1618821537.80372,-2.075012,37.790719985961914
1618821537.81935,-7.156006,37.806349992752075
1618821537.83497,-13.00317,37.821969985961914
1618821537.8506,-18.97278,37.837599992752075
1618821537.86623,-24.27295,37.853229999542236
1618821537.88185,-28.16797,37.868849992752075
1618821537.89748,-29.9436,37.884479999542236
1618821537.9131,-29.08142,37.900099992752075
1618821537.92873,-25.29523,37.915729999542236
1618821537.94435,-18.75482,37.931349992752075
1618821537.95998,-10.13196,37.946979999542236
1618821537.97561,-0.5390625,37.9626100063324
1618821537.99123,8.719421,37.978229999542236
1618821538.00686,16.54443,37.9938600063324
1618821538.02248,22.29987,38.009479999542236
1618821538.03811,25.95612,38.0251100063324
1618821538.05373,27.89575,38.040729999542236
1618821538.06936,28.71973,38.0563600063324
1618821538.08499,28.88763,38.07199001312256
1618821538.10061,28.63025,38.0876100063324
1618821538.11624,27.99634,38.10324001312256
1618821538.13186,26.9834,38.1188600063324
1618821538.14749,25.73834,38.13449001312256
1618821538.16311,24.59973,38.1501100063324
1618821538.17874,23.86749,38.16574001312256
1618821538.19437,23.73279,38.18137001991272
1618821538.20999,24.07727,38.19699001312256
1618821538.22562,24.45776,38.21262001991272
1618821538.24124,24.32996,38.22824001312256
1618821538.25687,23.3208,38.24387001991272
1618821538.27249,21.37238,38.25949001312256
1618821538.28812,18.79901,38.27512001991272
1618821538.30375,16.10114,38.29075002670288
1618821538.31937,13.65405,38.30637001991272
1618821538.335,11.57068,38.32200002670288
1618821538.35062,9.601013,38.33762001991272
1618821538.36625,7.234863,38.35325002670288
1618821538.38187,3.97467,38.36887001991272
1618821538.3975,-0.4480591,38.38450002670288
1618821538.41313,-6.073547,38.40013003349304
1618821538.42875,-12.62,38.41575002670288
1618821538.44438,-19.52612,38.43138003349304
1618821538.46,-26.07306,38.44700002670288
1618821538.47563,-31.37665,38.46263003349304
1618821538.49125,-34.5249,38.47825002670288
1618821538.50688,-34.78131,38.49388003349304
1618821538.52251,-31.77661,38.5095100402832
1618821538.53813,-25.6947,38.52513003349304
1618821538.55376,-17.3844,38.5407600402832
1618821538.56938,-8.115417,38.55638003349304
1618821538.58501,0.7802124,38.5720100402832
1618821538.60063,8.239685,38.58763003349304
1618821538.61626,13.75787,38.6032600402832
1618821538.63189,17.41205,38.618890047073364
1618821538.64751,19.59418,38.6345100402832
1618821538.66314,20.7663,38.650140047073364
1618821538.67876,21.2182,38.6657600402832
1618821538.69439,20.97375,38.681390047073364
1618821538.71001,20.02448,38.6970100402832
1618821538.72564,18.4726,38.712640047073364
1618821538.74127,16.65045,38.728270053863525
1618821538.75689,15.00677,38.743890047073364
1618821538.77252,13.93506,38.759520053863525
1618821538.78814,13.52869,38.775140047073364
1618821538.80377,13.55377,38.790770053863525
1618821538.81939,13.61078,38.806390047073364
1618821538.83502,13.29211,38.822020053863525
1618821538.85065,12.42145,38.83765006065369
1618821538.86627,11.04584,38.853270053863525
1618821538.8819,9.360352,38.86890006065369
1618821538.89752,7.608521,38.884520053863525
1618821538.91315,5.88324,38.90015006065369
1618821538.92877,4.118958,38.915770053863525
1618821538.9444,2.154968,38.93140006065369
1618821538.96003,-0.1634521,38.94703006744385
1618821538.97565,-2.914185,38.96265006065369
1618821538.99128,-6.037842,38.97828006744385
1618821539.0069,-9.487122,38.99390006065369
1618821539.02253,-13.12634,39.00953006744385
1618821539.03815,-16.76428,39.02515006065369
1618821539.05378,-20.10919,39.04078006744385
1618821539.06941,-22.75879,39.05641007423401
1618821539.08503,-24.18622,39.07203006744385
1618821539.10066,-23.85309,39.08766007423401
1618821539.11628,-21.29749,39.10328006744385
1618821539.13191,-16.2486,39.11891007423401
1618821539.14753,-8.848267,39.13453006744385
1618821539.16316,0.4242554,39.15016007423401
1618821539.17879,10.72595,39.16579008102417
1618821539.19441,21.13446,39.18141007423401
1618821539.21004,30.73907,39.19704008102417
1618821539.22566,38.8396,39.21266007423401
1618821539.24129,45.12903,39.22829008102417
1618821539.25692,49.76636,39.24392008781433
1618821539.27254,53.22131,39.25954008102417
1618821539.28817,56.06891,39.27517008781433
1618821539.30379,58.80884,39.29079008102417
1618821539.31942,61.69324,39.30642008781433
1618821539.33504,64.91522,39.32204008102417
1618821539.35067,68.349,39.33767008781433
1618821539.3663,71.74249,39.35330009460449
1618821539.38192,74.88904,39.36892008781433
1618821539.39755,77.83484,39.38455009460449
1618821539.41317,80.862,39.40017008781433
1618821539.4288,84.29962,39.41580009460449
1618821539.44442,88.41272,39.43142008781433
1618821539.46005,93.25146,39.44705009460449
1618821539.47568,98.8916,39.46268010139465
1618821539.4913,104.9478,39.47830009460449
1618821539.50693,110.7879,39.49393010139465
1618821539.52255,115.8554,39.50955009460449
1618821539.53818,120.0175,39.52518010139465
1618821539.5538,123.6152,39.54080009460449
1618821539.56943,127.1783,39.55643010139465
1618821539.58506,131.227,39.572059869766235
1618821539.60068,136.0444,39.58768010139465
1618821539.61631,141.9738,39.603309869766235
1618821539.63193,148.5783,39.61893010139465
1618821539.64756,154.8181,39.634559869766235
1618821539.66318,159.5798,39.65018010139465
1618821539.67881,162.103,39.665809869766235
1618821539.69444,162.1241,39.6814398765564
1618821539.71006,159.6961,39.697059869766235
1618821539.72569,155.047,39.7126898765564
1618821539.74131,148.4566,39.728309869766235
1618821539.75694,140.5387,39.7439398765564
1618821539.77256,130.6772,39.759559869766235
1618821539.78819,116.9336,39.7751898765564
1618821539.80382,96.64902,39.79081988334656
1618821539.81944,67.55582,39.8064398765564
1618821539.83507,28.92883,39.82206988334656
1618821539.85069,-17.74226,39.8376898765564
1618821539.86632,-68.70416,39.85331988334656
1618821539.88194,-121.6486,39.8689398765564
1618821539.89757,-169.1559,39.88456988334656
1618821539.9132,-202.2088,39.90019989013672
1618821539.92882,-213.9839,39.91581988334656
1618821539.94445,-203.1386,39.93144989013672
1618821539.96007,-173.6071,39.94706988334656
1618821539.9757,-131.8502,39.96269989013672
1618821539.99132,-84.2547,39.97831988334656
1618821540.00695,-35.98249,39.99394989013672
1618821540.02258,9.694347,40.00957989692688
1618821540.0382,51.45594,40.02519989013672
1618821540.05383,87.38889,40.04082989692688
1618821540.06945,115.5519,40.05644989013672
1618821540.08508,134.9511,40.07207989692688
1618821540.1007,146.2389,40.08769989013672
1618821540.11633,151.3535,40.10332989692688
1618821540.13196,152.6013,40.11895990371704
1618821540.14758,151.5351,40.13457989692688
1618821540.16321,147.3297,40.15020990371704
1618821540.17883,139.5152,40.16582989692688
1618821540.19446,127.0054,40.18145990371704
1618821540.21008,108.802,40.19707989692688
1618821540.22571,84.56624,40.21270990371704
1618821540.24134,55.02928,40.2283399105072
1618821540.25696,21.73679,40.24395990371704
1618821540.27259,-13.69789,40.2595899105072
1618821540.28821,-50.06412,40.27520990371704
1618821540.30384,-86.94301,40.2908399105072
1618821540.31946,-124.2933,40.30645990371704
1618821540.33509,-163.2148,40.3220899105072
1618821540.35072,-205.3703,40.33771991729736
1618821540.36634,-252.068,40.3533399105072
1618821540.38197,-302.938,40.36896991729736
1618821540.39759,-355.1174,40.3845899105072
1618821540.41322,-403.3356,40.40021991729736
1618821540.42884,-441.1089,40.4158399105072
1618821540.44447,-462.6897,40.43146991729736
1618821540.4601,-464.6789,40.447099924087524
1618821540.47572,-447.3083,40.46271991729736
1618821540.49135,-413.9254,40.478349924087524
1618821540.50697,-369.625,40.49396991729736
1618821540.5226,-319.7295,40.509599924087524
1618821540.53822,-268.9997,40.52521991729736
1618821540.55385,-221.3924,40.540849924087524
1618821540.56948,-180.1813,40.556479930877686
1618821540.5851,-147.8498,40.572099924087524
1618821540.60073,-125.466,40.587729930877686
1618821540.61635,-112.6126,40.603349924087524
1618821540.63198,-107.2369,40.618979930877686
1618821540.6476,-106.204,40.634599924087524
1618821540.66323,-106.1301,40.650229930877686
1618821540.67886,-104.3757,40.66585993766785
1618821540.69448,-99.49741,40.681479930877686
1618821540.71011,-91.44614,40.69710993766785
1618821540.72573,-81.4314,40.712729930877686
1618821540.74136,-71.49982,40.72835993766785
1618821540.75698,-63.83234,40.743979930877686
1618821540.77261,-59.96637,40.75960993766785
1618821540.78824,-59.90048,40.77523994445801
1618821540.80386,-61.96909,40.79085993766785
1618821540.81949,-63.34891,40.80648994445801
1618821540.83511,-61.24603,40.82210993766785
1618821540.85074,-54.11975,40.83773994445801
1618821540.86636,-42.34183,40.85335993766785
1618821540.88199,-28.07745,40.86898994445801
1618821540.89762,-14.33682,40.88461995124817
1618821540.91324,-3.879486,40.90023994445801
1618821540.92887,1.820251,40.91586995124817
1618821540.94449,2.928619,40.93148994445801
1618821540.96012,1.114258,40.94711995124817
1618821540.97574,-1.158691,40.96273994445801
1618821540.99137,-1.505371,40.97836995124817
1618821541.007,1.663452,40.99399995803833
1618821541.02262,8.729401,41.00961995124817
1618821541.03825,18.85632,41.02524995803833
1618821541.05387,30.47034,41.04086995124817
1618821541.0695,41.8721,41.05649995803833
1618821541.08512,51.79515,41.07211995124817
1618821541.10075,59.68021,41.08774995803833
1618821541.11638,65.62662,41.10337996482849
1618821541.132,70.01064,41.11899995803833
1618821541.14763,73.15976,41.13462996482849
1618821541.16325,75.28937,41.15024995803833
1618821541.17888,76.47668,41.16587996482849
1618821541.1945,76.80769,41.18149995803833
1618821541.21013,76.3638,41.19712996482849
1618821541.22576,75.11134,41.21275997161865
1618821541.24138,72.73529,41.22837996482849
1618821541.25701,68.76382,41.24400997161865
1618821541.27263,62.82968,41.25962996482849
1618821541.28826,55.06941,41.27525997161865
1618821541.30388,46.35683,41.29087996482849
1618821541.31951,38.11739,41.30650997161865
1618821541.33514,31.82629,41.32213997840881
1618821541.35076,28.29002,41.33775997161865
1618821541.36639,27.34616,41.35338997840881
1618821541.38201,27.88258,41.36900997161865
1618821541.39764,28.48646,41.38463997840881
1618821541.41326,28.07813,41.40025997161865
1618821541.42889,26.31594,41.41588997840881
1618821541.44452,23.57789,41.431519985198975
1618821541.46014,20.49224,41.44713997840881
1618821541.47577,17.58057,41.462769985198975
1618821541.49139,14.88155,41.47838997840881
1618821541.50702,12.08899,41.494019985198975
1618821541.52265,8.734472,41.509649991989136
1618821541.53827,4.507742,41.525269985198975
1618821541.5539,-0.5993547,41.540899991989136
1618821541.56952,-6.34822,41.556519985198975
1618821541.58515,-12.21424,41.572149991989136
1618821541.60077,-17.49193,41.587769985198975
1618821541.6164,-21.17822,41.603399991989136
1618821541.63203,-22.19932,41.6190299987793
1618821541.64765,-19.66277,41.634649991989136
1618821541.66328,-13.42285,41.6502799987793
1618821541.6789,-4.198357,41.665899991989136
1618821541.69453,6.433205,41.6815299987793
1618821541.71015,16.50558,41.697149991989136
1618821541.72578,24.48401,41.7127799987793
1618821541.74141,29.60877,41.72841000556946
1618821541.75703,32.0437,41.7440299987793
1618821541.77266,32.4819,41.75966000556946
1618821541.78828,31.68296,41.7752799987793
1618821541.80391,30.09224,41.79091000556946
1618821541.81953,27.87044,41.8065299987793
1618821541.83516,25.07772,41.82216000556946
1618821541.85079,21.75325,41.83779001235962
1618821541.86641,18.16077,41.85341000556946
1618821541.88204,14.55679,41.86904001235962
1618821541.89766,11.27319,41.88466000556946
1618821541.91329,8.645912,41.90029001235962
1618821541.92891,7.035568,41.91591000556946
1618821541.94454,6.727989,41.93154001235962
1618821541.96017,7.772087,41.94717001914978
1618821541.97579,9.881416,41.96279001235962
1618821541.99142,12.34122,41.97842001914978
1618821542.00704,14.29573,41.99404001235962
1618821542.02267,15.09241,42.00967001914978
1618821542.03829,14.556,42.02529001235962
1618821542.05392,12.98691,42.04092001914978
1618821542.06955,10.92216,42.05655002593994
1618821542.08517,8.783051,42.07217001914978
1618821542.1008,6.648239,42.08780002593994
1618821542.11642,4.256302,42.10342001914978
1618821542.13205,1.116669,42.11905002593994
1618821542.14767,-3.147354,42.13467001914978
1618821542.1633,-8.689285,42.15030002593994
1618821542.17893,-15.31874,42.1659300327301
1618821542.19455,-22.47174,42.18155002593994
1618821542.21018,-29.34236,42.1971800327301
1618821542.2258,-34.83624,42.21280002593994
1618821542.24143,-37.84871,42.2284300327301
1618821542.25705,-37.44987,42.24405002593994
1618821542.27268,-33.29468,42.2596800327301
1618821542.28831,-25.70944,42.275310039520264
1618821542.30393,-15.64983,42.2909300327301
