,index,PPG_Raw,PPG_Clean,PPG_Rate,PPG_Peaks,EDA_Raw,EDA_Clean,EDA_Tonic,EDA_Phasic,SCR_Onsets,SCR_Peaks,SCR_Height,SCR_Amplitude,SCR_RiseTime,SCR_Recovery,SCR_RecoveryTime,Index,Label,Condition,id
0,0.0,30.44922,0.23475158871002247,68.39998449311882,0,0.14482093422170517,0.1448482982434463,0.1352074794248423,0.009640911955946917,0,0,0,0,0,0,0,407,2,znechuceni,1
1,0.015873015873015872,26.47406,0.0,67.82168814748034,0,0.1441406512788353,0.14421532222811306,0.13520223434338538,0.009013179030982794,0,0,0,0,0,0,0,408,2,znechuceni,1
2,0.031746031746031744,21.81659,0.0,67.2391458441839,0,0.14331253223085644,0.14341620946642175,0.13519701591912642,0.008219282686388512,0,0,0,0,0,0,0,409,2,znechuceni,1
3,0.047619047619047616,16.44507,0.0,66.65363093879907,0,0.14236793984447468,0.14248653200871958,0.13519182395969168,0.007294795164821634,0,0,0,0,0,0,0,410,2,znechuceni,1
4,0.06349206349206349,10.58173,0.0,66.06634877064506,0,0.1413382368863961,0.14146348147282264,0.13518665827744172,0.006276908271674105,0,0,0,0,0,0,0,411,2,znechuceni,1
5,0.07936507936507936,4.640015,0.0,65.47843706780739,0,0.1402547861233265,0.140384499345491,0.1351815186889454,0.005203063677073639,0,0,0,0,0,0,0,412,2,znechuceni,1
6,0.09523809523809523,-0.9389648,0.0,64.89096678617192,0,0.13914895032197216,0.1392859814336056,0.13517640501439962,0.004109657367640715,0,0,0,0,0,0,0,413,2,znechuceni,1
7,0.1111111111111111,-5.853455,0.0,64.30494332608458,0,0.13805209224903894,0.1382021025208896,0.13517131707701643,0.0030308643038227468,0,0,0,0,0,0,0,414,2,znechuceni,1
8,0.12698412698412698,-10.11877,0.0,63.721308073057244,0,0.1369955746712328,0.13716379992441494,0.1351662547023981,0.0019976219770257778,0,0,0,0,0,0,0,415,2,znechuceni,1
9,0.14285714285714285,-14.04535,0.0,63.14094021217114,0,0.13601076035526,0.13619794673965557,0.13516121771791959,0.0010368036552850495,0,0,0,0,0,0,0,416,2,znechuceni,1
10,0.15873015873015872,-18.17529,0.0,62.56465876935225,0,0.13512901206782632,0.1353267370722493,0.1351562059521365,0.00017060361561894218,0,0,0,0,0,0,0,417,2,znechuceni,1
11,0.1746031746031746,-23.04242,0.0,61.99322483639493,0,0.13438166276803823,0.13456729632921446,0.13515121923423373,-0.0005838525642029011,0,0,0,0,0,0,0,418,2,znechuceni,1
12,0.19047619047619047,-28.96472,0.0,61.4273439403962,0,0.13378887460295877,0.1339315196044098,0.1351462573935274,-0.0012146696197017452,0,0,0,0,0,0,0,419,2,znechuceni,1
13,0.20634920634920634,-35.91272,0.0,60.86766852205095,0,0.1333429314598234,0.13342613054045047,0.1351413202590303,-0.00171512373733915,0,0,0,0,0,0,0,420,2,znechuceni,1
14,0.2222222222222222,-43.51477,0.0,60.314800490984105,0,0.13303184011743896,0.1330529423961949,0.13513640765908758,-0.0020834014866657957,0,0,0,0,0,0,0,421,2,znechuceni,1
15,0.23809523809523808,-51.23663,0.0,59.76929382990401,0,0.13284360735461234,0.13280929337814384,0.13513151942108675,-0.002322164488632414,0,0,0,0,0,0,0,422,2,znechuceni,1
16,0.25396825396825395,-58.52179,0.0,59.231657222813325,0,0.13276623995015038,0.1326886206804005,0.13512665537124316,-0.002437975375415161,0,0,0,0,0,0,0,423,2,znechuceni,1
17,0.2698412698412698,-65.03839,0.0,58.702356685778916,0,0.13278774468285998,0.13268113292588893,0.1351218153344594,-0.0024406253490566175,1,0,0,0,0,0,0,424,2,znechuceni,1
18,0.2857142857142857,-70.75684,0.0,58.18181818181818,0,0.13289612833154796,0.1327745391207383,0.1351169991342553,-0.0023424052270115568,0,0,0,0,0,0,0,425,2,znechuceni,1
19,0.30158730158730157,-76.00909,0.0,57.67043020429615,0,0.1330793976750212,0.1329547936385484,0.13511220659276282,-0.002157360457876217,0,0,0,0,0,0,0,426,2,znechuceni,1
20,0.31746031746031744,-81.41547,0.0,57.168546315837226,0,0.13332555949208655,0.13320682060636196,0.13510743753077903,-0.0019005667354690537,0,0,0,0,0,0,0,427,2,znechuceni,1
21,0.3333333333333333,-87.76062,0.0,56.676487632136535,0,0.13362262056155083,0.13351518666031206,0.13510269176786913,-0.0015874572432865127,0,0,0,0,0,0,0,428,2,znechuceni,1
22,0.3492063492063492,-95.76306,0.0,56.19454524221545,0,0.13395858766222102,0.13386469764080705,0.13509796912251124,-0.0012332259594625221,0,0,0,0,0,0,0,429,2,znechuceni,1
23,0.36507936507936506,-105.7333,0.0,55.72298255860715,0,0.13432146757290392,0.13424090174986175,0.13509326941227373,-0.0008523244996148744,0,0,0,0,0,0,0,430,2,znechuceni,1
24,0.38095238095238093,-117.1304,0.0,55.26203759269445,0,0.1346992670724063,0.13463048848704665,0.13508859245401672,-0.0004580631810974542,0,0,0,0,0,0,0,431,2,znechuceni,1
25,0.3968253968253968,-128.2863,0.0,54.81192515196389,0,0.13507999293953515,0.13502157897679712,0.13508393806410934,-6.232069590830563e-05,0,0,0,0,0,0,0,432,2,znechuceni,1
26,0.4126984126984127,-136.4746,0.0,54.37283895730037,0,0.13545165195309727,0.135403908921922,0.13507930605865526,0.0003246388425934346,0,0,0,0,0,0,0,433,2,znechuceni,1
27,0.42857142857142855,-138.5731,0.0,53.944953679640456,0,0.13580225232434917,0.13576891031319516,0.13507469625371935,0.0006942476090524038,0,0,0,0,0,0,0,434,2,znechuceni,1
28,0.4444444444444444,-132.0642,0.0,53.52842689634334,0,0.13612237080717535,0.13610970220222826,0.13507010846555007,0.0010396248387674317,0,0,0,0,0,0,0,435,2,znechuceni,1
29,0.4603174603174603,-115.9941,0.0,53.12340096854186,0,0.1364104520605307,0.1364210043030329,0.13506554251079192,0.0013554904290411503,0,0,0,0,0,0,0,436,2,znechuceni,1
30,0.47619047619047616,-91.53967,0.0,52.73000484151509,0,0.13666644212290666,0.1366989898557852,0.13506099820668455,0.0016380178027457586,0,0,0,0,0,0,0,437,2,znechuceni,1
31,0.49206349206349204,-61.7019,0.0,52.348355770794136,0,0.13689028703279482,0.13694109591546916,0.13505647537124493,0.001884644196783768,0,0,0,0,0,0,0,438,2,znechuceni,1
32,0.5079365079365079,-30.3288,0.0,51.97856097728635,0,0.13708193282868664,0.13714580985024805,0.1350519738234307,0.002093857160296459,0,0,0,0,0,0,0,439,2,znechuceni,1
33,0.5238095238095237,-0.8664551,0.0,51.62071923519382,0,0.13724132554907373,0.13731245025244118,0.1350474933832829,0.0022649754654977157,0,0,0,0,0,0,0,440,2,znechuceni,1
34,0.5396825396825397,24.57025,0.0,51.2749223969209,0,0.13736841123244756,0.1374409587126726,0.13504303387204716,0.002397940881701334,0,0,0,0,0,0,0,441,2,znechuceni,1
35,0.5555555555555556,45.50793,0.0,50.941256859525765,0,0.13746313591729967,0.13753171615167842,0.1350385951122732,0.0024931345070294503,0,0,0,0,0,0,0,442,2,znechuceni,1
36,0.5714285714285714,62.70721,0.0,50.619804977581715,0,0.13752544564212152,0.1375853939062654,0.13503417692789194,0.002551227854293289,0,0,0,0,0,0,0,443,2,znechuceni,1
37,0.5873015873015872,77.45282,0.0,50.310646427586995,0,0.1375552864454047,0.13760284583736,0.1350297791442711,0.002573074958987097,0,1,0,0,0,0,0,444,2,znechuceni,1
38,0.6031746031746031,90.92224,2.7793130961858203,50.01385952930514,0,0.13755260436564076,0.13758504369138644,0.13502540158824922,0.0025596477406321337,0,0,0,0,0,0,0,445,2,znechuceni,1
39,0.6190476190476191,103.8393,15.114040174647387,49.72952252964249,0,0.13751734544132113,0.13753305410647473,0.13502104408814838,0.0025120130089717895,0,0,0,0,0,0,0,446,2,znechuceni,1
40,0.6349206349206349,116.5268,27.55002456901748,49.4577148548822,0,0.1374494557109374,0.13744805228023646,0.13501670647376696,0.002431346131754691,0,0,0,0,0,0,0,447,2,znechuceni,1
41,0.6507936507936507,129.0588,40.30288056071443,49.198518337304684,0,0.13734888121298108,0.13733136462350498,0.1350123885763523,0.002318973688502425,0,0,0,0,0,0,0,448,2,znechuceni,1
42,0.6666666666666666,141.3626,53.22655001988771,48.95201842243986,0,0.13721556798594367,0.13718453087190186,0.1350080902285542,0.0021764355821222757,0,0,0,0,0,0,0,449,2,znechuceni,1
43,0.6825396825396826,153.2659,65.94277609565718,48.71830536342595,0,0.13704946207375346,0.13700937520385295,0.13500381126436006,0.0020055561569881615,0,0,0,0,0,0,0,450,2,znechuceni,1
44,0.6984126984126984,164.4499,77.97271274442929,48.49747540919922,0,0.136851365592356,0.13680807593331698,0.13499955151901283,0.001808513891751456,0,0,0,0,0,0,0,451,2,znechuceni,1
45,0.7142857142857142,174.5125,88.86435496271659,48.289631993518974,0,0.13662531657838872,0.13658322423782351,0.13499531082891222,0.0015879001274774502,0,0,0,0,0,0,0,452,2,znechuceni,1
46,0.7301587301587301,183.0793,98.32220285741059,48.094886932148384,0,0.13637611752024964,0.1363378639920216,0.1349910890315012,0.0013467589013077793,0,0,0,0,0,0,0,453,2,znechuceni,1
47,0.746031746031746,190.001,106.33127006323836,47.913361635874836,0,0.1361085709063366,0.1360755068800573,0.13498688596513878,0.0010886020589650045,0,0,0,0,0,0,0,454,2,znechuceni,1
48,0.7619047619047619,195.53,113.24320952517236,47.74518834747162,0,0.13582747922504754,0.13580011930555042,0.13498270146896096,0.000817396164868452,0,0,0,0,0,0,0,455,2,znechuceni,1
49,0.7777777777777777,200.3674,119.7800673648668,47.59051141118645,0,0.13553764496478043,0.13551607997781137,0.13497853538273202,0.000537520088499833,0,0,0,0,0,0,0,456,2,znechuceni,1
50,0.7936507936507936,205.5421,126.9234703672054,47.44948858390182,0,0.13524387061393314,0.1352281092574746,0.13497438754668833,0.0002536943501927451,0,0,0,0,0,0,0,457,2,znechuceni,1
51,0.8095238095238095,212.0974,135.69077805605792,47.3222923977612,0,0.13495095866090367,0.13494117328879318,0.13497025780137725,-2.9114746411556484e-05,0,0,0,0,0,1,0,458,2,znechuceni,1
52,0.8253968253968254,220.8377,146.84077548923014,47.20911158480571,0,0.13466371159408996,0.13466036757461888,0.1349661459874937,-0.0003058115392206868,0,0,0,0,0,0,0,459,2,znechuceni,1
53,0.8412698412698412,232.0095,160.58426234984847,47.11015257503527,0,0.1343869319018898,0.13439078593819834,0.1349620519457176,-0.0005713020457322245,0,0,0,0,0,0,0,460,2,znechuceni,1
54,0.8571428571428571,245.1755,176.38861758936142,47.02564108031348,0,0.13412542207270128,0.13413738174852938,0.13495797551655447,-0.0008206327375182871,0,0,0,0,0,0,0,461,2,znechuceni,1
55,0.873015873015873,259.1097,192.9545530128055,46.955823777697745,0,0.13388398459492226,0.13390482884536786,0.1349539165401829,-0.0010491296150659207,0,0,0,0,0,0,0,462,2,znechuceni,1
56,0.8888888888888888,271.9838,208.4063214608427,46.90097010711902,0,0.13366742195695067,0.13369738975839773,0.13494987485631102,-0.0012525299884637389,0,0,0,0,0,0,0,463,2,znechuceni,1
57,0.9047619047619047,281.6227,220.67767459553684,46.86137419988845,0,0.13348053664718443,0.13351879853560253,0.1349458503040451,-0.0014270996488988145,0,0,0,0,0,0,0,464,2,znechuceni,1
58,0.9206349206349206,286.0692,228.0082324566819,46.837356956301214,0,0.1333281311540215,0.13337216474065416,0.13494184272177262,-0.001569728871150949,0,0,0,0,0,0,0,465,2,znechuceni,1
59,0.9365079365079365,284.1482,229.4121050630147,46.829268292682926,1,0.13321500796585978,0.1332599039257764,0.1349378519470618,-0.0016780019406287734,0,0,0,0,0,0,0,466,2,znechuceni,1
60,0.9523809523809523,275.8264,224.96880690650968,46.830877724591545,0,0.13314493347090534,0.1331836981517072,0.1349338778165793,-0.0017502366333253451,0,0,0,0,0,0,0,467,2,znechuceni,1
61,0.9682539682539681,262.3689,215.83053130793874,46.83566420337566,0,0.13311683044420147,0.13314448799316725,0.13492992016602814,-0.0017854922102870006,1,0,0,0,0,0,0,468,2,znechuceni,1
62,0.9841269841269841,245.9444,203.93102758953597,46.843565934929686,0,0.1331282074321773,0.13314249510588966,0.13492597883010574,-0.0017835468505423054,0,0,0,0,0,0,0,469,2,znechuceni,1
63,1.0,229.0626,191.48651977837497,46.854522300315416,0,0.13317657281144077,0.13317727208700944,0.13492205364248372,-0.001744847790692002,0,0,0,0,0,0,0,470,2,znechuceni,1
0,0.0,22.79211,0.0,56.21732913370504,0,0.13923800397140862,0.1388432672547424,0.13101928900326446,0.007838047895750407,0,0,0,0,0,0,0,1496,4,znechuceni,3
1,0.015873015873015872,14.71695,0.0,56.04182017890347,0,0.14024008752157585,0.13998932332834338,0.13102030500033762,0.00898322670836682,0,0,0,0,0,0,0,1497,4,znechuceni,3
2,0.031746031746031744,7.463928,0.0,55.86453803506749,0,0.1408433097433107,0.1407412692320505,0.1310213470582239,0.009734269913180618,0,0,0,0,0,0,0,1498,4,znechuceni,3
3,0.047619047619047616,1.457947,0.0,55.6857516023743,0,0.14108707125468536,0.1411167181616744,0.1310224150044879,0.010108790879407444,0,0,0,0,0,0,0,1499,4,znechuceni,3
4,0.06349206349206349,-3.429794,0.0,55.505723933611634,0,0.14101077267377182,0.14114298737286432,0.1310235086722288,0.010134107030558608,0,1,0,0,0,0,0,1500,4,znechuceni,3
5,0.07936507936507936,-7.866104,0.0,55.32471215414065,0,0.14065381461864213,0.14085539020304258,0.13102462790030556,0.009845531866150364,0,0,0,0,0,0,0,1501,4,znechuceni,3
6,0.09523809523809523,-12.80592,0.0,55.14296740798585,0,0.14005559770736814,0.14029535342092153,0.13102577253336165,0.009284492311195994,0,0,0,0,0,0,0,1502,4,znechuceni,3
7,0.1111111111111111,-19.01289,0.0,54.96073482868298,0,0.13925552255802218,0.1395084577111658,0.13102694242166943,0.008496569201023584,0,0,0,0,0,0,0,1503,4,znechuceni,3
8,0.12698412698412698,-26.77568,0.0,54.77825353351492,0,0.1382929897886758,0.13854249302318108,0.13102813742081745,0.00752955263037742,0,0,0,0,0,0,0,1504,4,znechuceni,3
9,0.14285714285714285,-35.81306,0.0,54.59575663977524,0,0.13720740001740125,0.13744561019435572,0.13102935739126667,0.0064315935771032074,0,0,0,0,0,0,0,1505,4,znechuceni,3
10,0.15873015873015872,-45.37129,0.0,54.41347130171597,0,0.13603815386227083,0.13626463732089908,0.13103060219780296,0.00524952027353406,0,0,0,0,0,0,0,1506,4,znechuceni,3
11,0.1746031746031746,-54.57362,0.0,54.23161876686276,0,0.13482465194135604,0.13504361515926763,0.13103187170891298,0.004027373608540478,0,0,0,0,0,0,0,1507,4,znechuceni,3
12,0.19047619047619047,-62.75066,0.0,54.05041445041291,0,0.13360629487272935,0.13382259136955763,0.13103316579611052,0.002805201371596559,0,0,0,0,0,0,0,1508,4,znechuceni,3
13,0.20634920634920634,-69.64597,0.0,53.870068026470726,0,0.1324224832744623,0.1326366992054062,0.13103448433323844,0.001618136943379213,0,0,0,0,0,0,0,1509,4,znechuceni,3
14,0.2222222222222222,-75.48428,0.0,53.690783534918694,0,0.1313126177646274,0.13151553250039905,0.13103582719576917,0.0004957742828752068,0,0,0,0,0,0,0,1510,4,znechuceni,3
15,0.23809523809523808,-80.86555,0.0,53.512759502771836,0,0.1303157705028486,0.13048281547949828,0.1310371942601239,-0.0005381622605104849,0,0,0,0,0,0,0,1511,4,znechuceni,3
16,0.25396825396825395,-86.68423,0.0,53.336189078914956,0,0.12945336551599174,0.12955635302771001,0.1310385854030278,-0.001465867677642088,0,0,0,0,0,0,0,1512,4,znechuceni,3
17,0.2698412698412698,-93.92363,0.0,53.16126018117809,0,0.128720594904524,0.1287482348166224,0.13104000050091488,-0.0022752521725199607,0,0,0,0,0,0,0,1513,4,znechuceni,3
18,0.2857142857142857,-103.3986,0.0,52.98815565476354,0,0.1281105205583391,0.12806525575463606,0.13104143942939273,-0.002959520711515061,0,0,0,0,0,0,0,1514,4,znechuceni,3
19,0.30158730158730157,-115.3171,0.0,52.8170534410983,0,0.12761620436733134,0.12750950653576543,0.13104290206277433,-0.0035165824740996205,0,0,0,0,0,0,0,1515,4,znechuceni,3
20,0.31746031746031744,-128.8534,0.0,52.64812675624704,0,0.12723070822139448,0.1270790825649086,0.1310443882736816,-0.003948341927180762,0,0,0,0,0,0,0,1516,4,znechuceni,3
21,0.3333333333333333,-141.8598,0.0,52.48154427808347,0,0.12694709401042273,0.126768857825538,0.1310458979327211,-0.0042599249570857475,0,0,0,0,0,0,0,1517,4,znechuceni,3
22,0.3492063492063492,-151.1312,0.0,52.31747034148183,0,0.12675842362431008,0.12657127237279808,0.13104743090823195,-0.004458891376212153,0,0,0,0,0,0,0,1518,4,znechuceni,3
23,0.36507936507936506,-153.2271,0.0,52.15606514085328,0,0.12665775895295056,0.12647708761975376,0.13104898706610266,-0.004554479636596371,0,0,0,0,0,0,0,1519,4,znechuceni,3
24,0.38095238095238093,-145.6495,0.0,51.997484939416275,0,0.12663816188623817,0.12647607163904673,0.13105056626965272,-0.004556921528139106,1,0,0,0,0,0,0,1520,4,znechuceni,3
25,0.3968253968253968,-127.9032,0.0,51.84188228465399,0,0.126692694314067,0.12655758637404654,0.13105216837957426,-0.004476854967395926,0,0,0,0,0,0,0,1521,4,znechuceni,3
26,0.4126984126984127,-101.8673,0.0,51.689406229474386,0,0.12681441812633099,0.12671105898312482,0.1310537932539273,-0.004324852653298419,0,0,0,0,0,0,0,1522,4,znechuceni,3
27,0.42857142857142855,-71.23482,0.0,51.54020255865257,0,0.12699639521292416,0.12692632966588052,0.1310554407481832,-0.004111074240972526,0,0,0,0,0,0,0,1523,4,znechuceni,3
28,0.4444444444444444,-40.22795,0.0,51.39441402019675,0,0.1272316874637407,0.12719387754177394,0.13105711071530984,-0.003845040463189681,0,0,0,0,0,0,0,1524,4,znechuceni,3
29,0.4603174603174603,-12.21405,0.0,51.25218056134138,0,0.12751335676867437,0.1275049339643717,0.13105880300589287,-0.0035355198162433437,0,0,0,0,0,0,0,1525,4,znechuceni,3
30,0.47619047619047616,11.14505,0.0,51.11363956893203,0,0.12783446501761947,0.12785149875016616,0.13106051746828762,-0.0031905123312813716,0,0,0,0,0,0,0,1526,4,znechuceni,3
31,0.49206349206349204,29.97887,0.0,50.97892611402766,0,0.12818807713617528,0.12822627905117834,0.13106225394879628,-0.0028173107018805124,0,0,0,0,0,0,0,1527,4,znechuceni,3
32,0.5079365079365079,45.52563,0.0,50.84817320060574,0,0.12856754008598778,0.12862257302467323,0.13106401229186615,-0.002422616614529423,0,0,0,0,0,0,0,1528,4,znechuceni,3
33,0.5238095238095237,59.27706,0.0,50.72151201831571,0,0.12896670782882544,0.12903412117987487,0.1310657923403041,-0.0020126894021280793,0,0,0,0,0,0,0,1529,4,znechuceni,3
34,0.5396825396825397,72.38697,0.0,50.59907219928542,0,0.12937948726572002,0.1294549475096358,0.13106759393550402,-0.001593504912545858,0,0,0,0,0,0,0,1530,4,znechuceni,3
35,0.5555555555555556,85.39733,10.975329381191065,50.480982079045305,0,0.12979978529770353,0.12987921048219067,0.13106941691768284,-0.0011709045171040958,0,0,0,0,0,0,0,1531,4,znechuceni,3
36,0.5714285714285714,98.40182,23.794727004598187,50.367368961693344,0,0.13022150882580757,0.13030108092870493,0.13107126112612213,-0.0007507172232692791,0,0,0,0,0,0,0,1532,4,znechuceni,3
37,0.5873015873015872,111.2523,36.89677400499513,50.258359389484454,0,0.13063856475106425,0.13071466007414917,0.1310731263994118,-0.00033884164402199664,0,0,0,0,0,0,0,1533,4,znechuceni,3
38,0.6031746031746031,123.6841,49.90066551078509,50.15407941708783,0,0.13104485997450516,0.1311139466753165,0.1310750125756921,5.872113991786795e-05,0,0,0,0,0,0,0,1534,4,znechuceni,3
39,0.6190476190476191,135.3905,62.326949555459876,50.05465489081667,0,0.1314343013971621,0.13149285769411712,0.131076919492891,0.0004358882531483835,0,0,0,0,0,0,0,1535,4,znechuceni,3
40,0.6349206349206349,146.0504,73.76364222598131,49.96021173319679,0,0.13180079592006708,0.13184530237884665,0.13107884698895317,0.0007865691066249298,0,0,0,0,0,0,0,1536,4,znechuceni,3
41,0.6507936507936507,155.4176,83.97553726182177,49.870876233304834,0,0.1321382504442517,0.13216530527334672,0.13108079490205704,0.0011047884066034295,0,0,0,0,0,0,0,1537,4,znechuceni,3
42,0.6666666666666666,163.4307,92.95988195857254,49.78677534337106,0,0.132440571870748,0.13244716973951984,0.13108276307081665,0.0013848496769535068,0,0,0,0,0,0,0,1538,4,znechuceni,3
43,0.6825396825396826,170.3134,100.95543655743045,49.70803698221061,0,0.13270166710058767,0.13268567027323974,0.13108475133446468,0.0016215275748854858,0,0,0,0,0,0,0,1539,4,znechuceni,3
44,0.6984126984126984,176.4703,108.40810901496864,49.63479034611677,0,0.13291544303480254,0.13287625942069123,0.13108675953301346,0.0018102748071294437,0,0,0,0,0,0,0,1540,4,znechuceni,3
45,0.7142857142857142,182.4742,115.89456436208914,49.56716622792378,0,0.13307580657442447,0.13301527364834384,0.13108878750739095,0.001947427999772447,0,0,0,0,0,0,0,1541,4,znechuceni,3
46,0.7301587301587301,188.8923,124.00912695030863,49.505297345023905,0,0.13317666462048522,0.1331001222368646,0.1310908350995491,0.002030396592063035,0,0,0,0,0,0,0,1542,4,znechuceni,3
47,0.746031746031746,196.222,133.2281333280675,49.449318677205994,0,0.13321194394026759,0.13312944424492648,0.13109290215254277,0.002057819800140647,0,1,0,0,0,0,0,1543,4,znechuceni,3
48,0.7619047619047619,204.7362,143.77656033449568,49.399367815268825,0,0.13317940454715715,0.13310322080688447,0.1310949885105773,0.002029678914663898,0,0,0,0,0,0,0,1544,4,znechuceni,3
49,0.7777777777777777,214.369,155.52937214850948,49.35558532145619,0,0.13308518017632245,0.13302283332590337,0.1310970940190244,0.0019473554939226571,0,0,0,0,0,0,0,1545,4,znechuceni,3
50,0.7936507936507936,224.6399,167.97878474294868,49.318115102859636,0,0.13293651038622192,0.13289106217086516,0.13109921852440606,0.001813630060761053,0,0,0,0,0,0,0,1546,4,znechuceni,3
51,0.8095238095238095,234.6432,180.28492138528898,49.28710479904196,0,0.13274063473531394,0.13271202481956987,0.1311013618743476,0.0016326202458255322,0,0,0,0,0,0,0,1547,4,znechuceni,3
52,0.8253968253968254,243.2496,191.403860401566,49.26270618525024,0,0.1325047927820568,0.1324910565224337,0.1311035239175009,0.0014096614513394211,0,0,0,0,0,0,0,1548,4,znechuceni,3
53,0.8412698412698412,249.3287,200.26378349422225,49.24507559271238,0,0.13223622408490887,0.13223454009369237,0.13110570450344092,0.0011511366424097947,0,0,0,0,0,0,0,1549,4,znechuceni,3
54,0.8571428571428571,252.0167,205.94851736318952,49.234374347647545,0,0.13194216820232846,0.13194969414105923,0.13110790348253792,0.0008642645768131329,0,0,0,0,0,0,0,1550,4,znechuceni,3
55,0.873015873015873,250.8124,207.8529528905845,49.23076923076923,1,0.131629864692774,0.13164433085610117,0.1311101207058094,0.0005568575955193287,0,0,0,0,0,0,0,1551,4,znechuceni,3
56,0.8888888888888888,245.6237,205.79001936087272,49.231476282133364,0,0.13130655311470388,0.13132659546249908,0.13111235602475568,0.00023706107111644194,0,0,0,0,0,0,0,1552,4,znechuceni,3
57,0.9047619047619047,236.6786,200.04123152104677,49.233591177128325,0,0.13097947302657634,0.1310046996776891,0.13111460929118363,-8.691313037194597e-05,0,0,0,0,0,0,0,1553,4,znechuceni,3
58,0.9206349206349206,224.579,191.3446019746939,49.23710470584071,0,0.13065586398684984,0.13068666122049005,0.13111688035702324,-0.000407047141676001,0,0,0,0,0,0,0,1554,4,znechuceni,3
59,0.9365079365079365,210.3164,180.81020575150077,49.24200789244359,0,0.13034296555398267,0.1303800606095674,0.13111916907414184,-0.0007157602956299124,0,0,0,0,0,0,0,1555,4,znechuceni,3
60,0.9523809523809523,195.2193,169.75903905330128,49.24829199002754,0,0.13004801728643314,0.13009182532269012,0.1311214752941602,-0.0010061249657311862,0,0,0,0,0,0,0,1556,4,znechuceni,3
61,0.9682539682539681,180.7845,159.50395959812002,49.25594847556018,0,0.12977825874265977,0.12982804985948268,0.1311237988682753,-0.001272046503211702,0,0,0,0,0,1,0,1557,4,znechuceni,3
62,0.9841269841269841,168.3228,151.12442352986537,49.264969044970144,0,0.12954092948112078,0.129593858373201,0.1311261396470933,-0.0015084006050946968,0,0,0,0,0,0,0,1558,4,znechuceni,3
63,1.0,158.653,145.306386350809,49.275345608350925,0,0.1293432649063185,0.1293933143047179,0.1311284974804767,-0.0017111236800565793,0,0,0,0,0,0,0,1559,4,znechuceni,3
0,0.0,-54.41507,0.0,54.56825214185808,0,0.1120358042113391,0.1120260825597457,0.12944030377823112,-0.019601033070324392,0,0,0,0,0,0,0,2739,6,znechuceni,5
1,0.015873015873015872,-58.32424,0.0,54.53598334308526,0,0.11414102967894758,0.11410799621782566,0.12944073851204488,-0.017526371345026603,0,0,0,0,0,0,0,2740,6,znechuceni,5
2,0.031746031746031744,-60.28876,0.0,54.5046074454794,0,0.11629986772127988,0.11624723195358962,0.12944120091439906,-0.015394409659201145,0,0,0,0,0,0,0,2741,6,znechuceni,5
3,0.047619047619047616,-60.92272,0.0,54.47414970314041,0,0.11846874673376617,0.11839310938413158,0.12944169082156562,-0.013255828028651263,0,0,0,0,0,0,0,2742,6,znechuceni,5
4,0.06349206349206349,-61.48927,0.0,54.444635337971874,0,0.12060409511183576,0.12049630259194177,0.12944220806215798,-0.011159951994847936,0,0,0,0,0,0,0,2743,6,znechuceni,5
5,0.07936507936507936,-63.50118,0.0,54.41608954874122,0,0.12266234125092074,0.12251043845240328,0.12944275245836237,-0.009153154298660454,0,0,0,0,0,0,0,2744,6,znechuceni,5
6,0.09523809523809523,-68.20803,0.0,54.388537520365276,0,0.12459991354645035,0.12439355712292217,0.1294433238271453,-0.007277394392429982,0,0,0,0,0,0,0,2745,6,znechuceni,5
7,0.1111111111111111,-75.86182,0.0,54.362004433423735,0,0.1263732403938548,0.1261093786086668,0.12944392198141047,-0.0055689518753830845,0,0,0,0,0,0,0,2746,6,znechuceni,5
8,0.12698412698412698,-85.20824,0.0,54.336515473902836,0,0.1279387501885643,0.12762832640717145,0.12944454673108127,-0.00405740285010679,0,0,0,0,0,0,0,2747,6,znechuceni,5
9,0.14285714285714285,-93.36665,0.0,54.31209584317196,0,0.1292528713260085,0.12892826884328798,0.12944519788408818,-0.002764878588580236,0,0,0,0,0,0,0,2748,6,znechuceni,5
10,0.15873015873015872,-96.39971,0.0,54.288770768196834,0,0.13028046011134375,0.12999495112440373,0.12944587524724377,-0.001705633477828053,0,0,0,0,0,0,0,2749,6,znechuceni,5
11,0.1746031746031746,-90.35168,0.0,54.266565511992596,0,0.13103182651990986,0.13082210619106388,0.12944657862699316,-0.000885934170044329,0,0,0,0,0,0,0,2750,6,znechuceni,5
12,0.19047619047619047,-72.60863,0.0,54.245505384320964,0,0.13153253558369635,0.1314112492165748,0.12944730783003092,-0.0003042650836023878,0,0,0,0,0,0,0,2751,6,znechuceni,5
13,0.20634920634920634,-42.91727,0.0,54.22561575263618,0,0.1318081635362308,0.13177117752514902,0.12944806266378145,4.817151461396739e-05,0,0,0,0,0,0,0,2752,6,znechuceni,5
14,0.2222222222222222,-3.604797,0.0,54.2069220532843,0,0.1318842866110408,0.1319172128352294,0.12944884293674316,0.0001866977521940514,0,1,0,0,0,0,0,2753,6,znechuceni,5
15,0.23809523809523808,41.14233,0.0,54.18944980296158,0,0.131786481041654,0.1318702344516327,0.12944964845870136,0.00013219334313509766,0,0,0,0,0,0,0,2754,6,znechuceni,5
16,0.25396825396825395,86.62727,6.950893323028832,54.17322461043768,0,0.13154032306159794,0.13165555941397783,0.12945047904081863,-9.002426381608634e-05,0,0,0,0,0,0,0,2755,6,znechuceni,5
17,0.2698412698412698,129.0962,50.62025220780798,54.15827218855001,0,0.13117138890440014,0.13130172856725583,0.12945133449561436,-0.0004514138145687088,0,0,0,0,0,0,0,2756,6,znechuceni,5
18,0.2857142857142857,166.6611,90.30086541580263,54.14461836647605,0,0.13070525480358824,0.13083925659030318,0.12945221463684797,-0.0009214602210939633,0,0,0,0,0,0,0,2757,6,znechuceni,5
19,0.30158730158730157,199.3376,125.56868504415516,54.132289102291146,0,0.13016749699269006,0.1302994000804368,0.12945311927932168,-0.001468906476588941,0,0,0,0,0,0,0,2758,6,znechuceni,5
20,0.31746031746031744,228.4544,157.21989771390412,54.12131049581943,0,0.12958369170523265,0.12971299181579055,0.1294540482386205,-0.0020629193928763394,0,0,0,0,0,0,0,2759,6,znechuceni,5
21,0.3333333333333333,255.6077,186.49864940168598,54.11170880178645,0,0.12897941517474387,0.1291093821650413,0.12945500133080726,-0.002674148190369402,0,0,0,0,0,0,0,2760,6,znechuceni,5
22,0.3492063492063492,281.755,214.27630604131232,54.10351044328244,0,0.12838024363475128,0.12851552092781243,0.12945597837209002,-0.003275642657332024,0,0,0,0,0,0,0,2761,6,znechuceni,5
23,0.36507936507936506,306.7158,240.50150749345715,54.096742025545836,0,0.12781175331878247,0.12795520503684144,0.12945697917847895,-0.0038436054473640763,0,0,0,0,0,0,0,2762,6,znechuceni,5
24,0.38095238095238093,329.1335,264.1045968232511,54.091430350077154,0,0.12729952046036525,0.1274485096510852,0.12945800356544773,-0.004357960985953795,0,0,0,0,0,0,0,2763,6,znechuceni,5
25,0.3968253968253968,346.9241,283.3497616658204,54.08760242909415,0,0.1268691212930267,0.12701141216144093,0.1294590513476135,-0.004802731464432876,0,0,0,0,0,0,0,2764,6,znechuceni,5
26,0.4126984126984127,358.0143,296.45901174883653,54.085285500339495,0,0.12654285952175695,0.12665561042337695,0.12946012233844675,-0.005166218607051609,0,0,0,0,0,0,0,2765,6,znechuceni,5
27,0.42857142857142855,361.0416,302.2437844399237,54.08450704225352,1,0.12632106664838247,0.12638852815782536,0.12946121635002025,-0.005440998269831528,0,0,0,0,0,0,0,2766,6,znechuceni,5
28,0.4444444444444444,355.8766,300.49934123688405,54.15046686030239,0,0.12619503031099802,0.12621349223331477,0.129462333192804,-0.005623743158223683,0,0,0,0,0,0,0,2767,6,znechuceni,5
29,0.4603174603174603,343.6572,292.03113381641697,54.344148580282216,0,0.12615601014157862,0.12613005907471692,0.1294634726755107,-0.005714896418203471,0,0,0,0,0,0,0,2768,6,znechuceni,5
30,0.47619047619047616,326.3569,278.3419138095507,54.66046535099528,0,0.1261952657720993,0.12613446150366192,0.1294646346049931,-0.005718224795749202,1,0,0,0,0,0,0,2769,6,znechuceni,5
31,0.49206349206349204,306.0044,261.14471104798133,55.095736539041376,0,0.1263040568345351,0.12622014354340833,0.129465818786194,-0.005640283831917994,0,0,0,0,0,0,0,2770,6,znechuceni,5
32,0.5079365079365079,284.0843,241.9195929723407,55.6474713760615,0,0.12647364296086108,0.12637834941011172,0.12946702502214616,-0.005489828871573461,0,0,0,0,0,0,0,2771,6,znechuceni,5
33,0.5238095238095237,261.2611,221.67998689668445,56.314191046166755,0,0.12669528378305214,0.12659873395859741,0.12946825311401877,-0.005277204617655671,0,0,0,0,0,0,0,2772,6,znechuceni,5
34,0.5396825396825397,237.6015,200.9890667176228,57.09527774473653,0,0.12696023893308356,0.12686996484418242,0.12946950286120587,-0.0050137429694435375,0,0,0,0,0,0,0,2773,6,znechuceni,5
35,0.5555555555555556,213.0873,180.13822862771647,57.99084136384145,0,0.12725976804293018,0.12718029102956693,0.1294707740614501,-0.0047111945157835705,0,0,0,0,0,0,0,2774,6,znechuceni,5
36,0.5714285714285714,188.0086,159.33723822078278,59.001595809682584,0,0.12758513074456712,0.12751805739904698,0.12947206651099616,-0.004381213921026772,0,0,0,0,0,0,0,2775,6,znechuceni,5
37,0.5873015873015872,162.9634,138.7968994175304,60.12873773111162,0,0.1279275866699694,0.12787215059374024,0.12947338000476674,-0.004034914089975158,0,0,0,0,0,0,0,2776,6,znechuceni,5
38,0.6031746031746031,138.5604,118.680087751831,61.373820770102775,0,0.12827839545111183,0.12823236632550317,0.1294747143365549,-0.0036824988541529226,0,0,0,0,0,0,0,2777,6,znechuceni,5
39,0.6190476190476191,114.967,98.98926634125483,62.73861843190798,0,0.12862881671996987,0.12858969308819956,0.12947606929922587,-0.003332979260735969,0,0,0,0,0,0,0,2778,6,znechuceni,5
40,0.6349206349206349,91.7074,79.49039997514043,64.22496839268668,0,0.1289701101085183,0.12893651123579258,0.1294774446849226,-0.002993974494662098,0,0,0,0,0,0,0,2779,6,znechuceni,5
41,0.6507936507936507,67.9176,59.7335938512644,65.83459059113977,0,0.12929353524873222,0.12926670983067684,0.12947884028527054,-0.0026715950304994356,0,0,0,0,0,0,0,2780,6,znechuceni,5
42,0.6666666666666666,42.75806,39.160051964978166,67.56887087672499,0,0.12959113427539456,0.1295757265470803,0.1294802558915763,-0.0023704027292396537,0,0,0,0,0,0,0,2781,6,znechuceni,5
43,0.6825396825396826,15.83411,17.24117762420652,69.42860142947688,0,0.12986154980343015,0.12986051831505419,0.12948169129501721,-0.002093440194493911,0,0,0,0,0,0,0,2782,6,znechuceni,5
44,0.6984126984126984,-12.74084,0.0,71.41366879482061,0,0.13010673590923505,0.13011947232944593,0.12948314628681903,-0.0018423197636939313,0,0,0,0,0,0,0,2783,6,znechuceni,5
45,0.7142857142857142,-42.60712,0.0,73.52268043400889,0,0.1303286715416684,0.13035226846516795,0.12948462065841998,-0.0016173610929835387,0,0,0,0,0,0,0,2784,6,znechuceni,5
46,0.7301587301587301,-73.39545,0.0,75.75252151819758,0,0.13052933564958963,0.13055970492828473,0.12948611420162018,-0.001417765506277223,0,0,0,0,0,0,0,2785,6,znechuceni,5
47,0.746031746031746,-104.5948,0.0,78.0978357545212,0,0.13071070718185812,0.130743499053161,0.1294876267087162,-0.001241815198242859,0,0,0,0,0,0,0,2786,6,znechuceni,5
48,0.7619047619047619,-135.1038,0.0,80.55042792414835,0,0.13087476508733317,0.1309060745418646,0.12948915797262106,-0.001087085995015215,0,0,0,0,0,0,0,2787,6,znechuceni,5
49,0.7777777777777777,-162.822,0.0,83.09859226018177,0,0.13102348831487423,0.1310503452507,0.12949070778697086,-0.0009506635677653053,0,0,0,0,0,0,0,2788,6,znechuceni,5
50,0.7936507936507936,-184.6545,0.0,85.7263805961795,0,0.1311588558133407,0.13117950405147655,0.12949227594621907,-0.000829354571522777,0,0,0,0,0,0,0,2789,6,znechuceni,5
51,0.8095238095238095,-197.3556,0.0,88.41283811976653,0,0.13128284653159183,0.13129682355061195,0.1294938622457202,-0.0007198859261525244,0,0,0,0,0,0,0,2790,6,znechuceni,5
52,0.8253968253968254,-198.7446,0.0,91.1312530270532,0,0.13139743941848708,0.1314054737422486,0.12949546648180504,-0.0006190871633098933,0,0,0,0,0,0,0,2791,6,znechuceni,5
53,0.8412698412698412,-188.6564,0.0,93.84848918410985,0,0.13150461342288572,0.13150836016344666,0.12949708845184862,-0.0005240522713117982,0,0,0,0,0,0,0,2792,6,znechuceni,5
54,0.8571428571428571,-169.2468,0.0,96.52449666731353,0,0.13160634749364727,0.13160798491043724,0.12949872795433334,-0.00043227867894325613,0,0,0,0,0,0,0,2793,6,znechuceni,5
55,0.873015873015873,-144.2177,0.0,99.1121205864134,0,0.13170462057963095,0.13170633199832785,0.12950038478890827,-0.0003417818958075247,0,0,0,0,0,0,0,2794,6,znechuceni,5
56,0.8888888888888888,-117.5487,0.0,101.55734838105968,0,0.13180141162969627,0.1318047779741927,0.12950205875644677,-0.00025118489928981514,0,0,0,0,0,0,0,2795,6,znechuceni,5
57,0.9047619047619047,-92.46106,0.0,103.80014185515016,0,0.13189869959270248,0.1319040283494939,0.12950374965910297,-0.00015978170218901473,0,0,0,0,0,0,0,2796,6,znechuceni,5
58,0.9206349206349206,-70.97827,2.7258940176502486,105.77598286408522,0,0.1319981989852516,0.13200408020201415,0.12950545730036825,-6.757475083780159e-05,0,0,0,0,0,0,0,2797,6,znechuceni,5
59,0.9365079365079365,-54.18835,24.88115112915743,107.4182113797799,0,0.13209878348648932,0.13210421111350615,0.12950718148512771,2.471401249372774e-05,0,0,0,0,0,0,0,2798,6,znechuceni,5
60,0.9523809523809523,-42.75208,40.86406461350187,108.6611460503746,0,0.13219759895213315,0.1322029943919112,0.12950892201971723,0.00011565837176331223,0,0,0,0,0,0,0,2799,6,znechuceni,5
61,0.9682539682539681,-37.17566,50.380437244190674,109.4438531894202,0,0.13229176680991403,0.1322983402557066,0.12951067871198016,0.00020316902145084588,0,0,0,0,0,0,0,2800,6,znechuceni,5
62,0.9841269841269841,-37.64026,53.78203966199484,109.71428571428571,1,0.1323784084875631,0.13238756234466967,0.12951245137132295,0.00028456007726995053,0,0,0,0,0,0,0,2801,6,znechuceni,5
63,1.0,-43.59827,52.06291594059095,109.65209691114507,0,0.13245464541281132,0.1324674685792535,0.12951423980876886,0.0003566399354939503,0,0,0,0,0,0,0,2802,6,znechuceni,5
