timestamp,value,norm_ts
1618852901.84717,21.76976,0.96517014503479
1618852901.8628,16.52037,0.9807999134063721
1618852901.87842,10.91289,0.99642014503479
1618852901.89405,5.637329,1.012049913406372
1618852901.90968,1.494324,1.0276799201965332
1618852901.9253,-0.8791962,1.043299913406372
1618852901.94093,-1.34787,1.0589299201965332
1618852901.95655,-0.3448181,1.074549913406372
1618852901.97218,1.298279,1.0901799201965332
1618852901.9878,2.701111,1.105799913406372
1618852902.00343,3.263733,1.1214299201965332
1618852902.01906,2.735931,1.1370599269866943
1618852902.03468,1.187195,1.1526799201965332
1618852902.05031,-1.255859,1.1683099269866943
1618852902.06593,-4.504486,1.1839299201965332
1618852902.08156,-8.546692,1.1995599269866943
1618852902.09718,-13.32126,1.2151799201965332
1618852902.11281,-18.68723,1.2308099269866943
1618852902.12844,-24.41931,1.2464399337768555
1618852902.14406,-30.35052,1.2620599269866943
1618852902.15969,-36.50931,1.2776899337768555
1618852902.17531,-42.94485,1.2933099269866943
1618852902.19094,-49.59686,1.3089399337768555
1618852902.20656,-56.02332,1.3245599269866943
1618852902.22219,-61.39398,1.3401899337768555
1618852902.23782,-64.68286,1.3558199405670166
1618852902.25344,-65.03537,1.3714399337768555
1618852902.26907,-62.11188,1.3870699405670166
1618852902.28469,-56.19327,1.4026899337768555
1618852902.30032,-48.0787,1.4183199405670166
1618852902.31594,-38.76779,1.4339399337768555
1618852902.33157,-29.16434,1.4495699405670166
1618852902.3472,-19.91431,1.4651999473571777
1618852902.36282,-11.38837,1.4808199405670166
1618852902.37845,-3.757416,1.4964499473571777
1618852902.39407,2.900635,1.5120699405670166
1618852902.4097,8.522034,1.5276999473571777
1618852902.42532,13.07339,1.5433199405670166
1618852902.44095,16.51215,1.5589499473571777
1618852902.45658,18.83466,1.5745799541473389
1618852902.4722,20.10162,1.5901999473571777
1618852902.48783,20.48953,1.6058299541473389
1618852902.50345,20.26953,1.6214499473571777
1618852902.51908,19.77347,1.6370799541473389
1618852902.5347,19.23389,1.6526999473571777
1618852902.55033,18.72543,1.6683299541473389
1618852902.56596,18.18481,1.6839599609375
1618852902.58158,17.49033,1.6995799541473389
1618852902.59721,16.57166,1.7152099609375
1618852902.61283,15.43701,1.7308299541473389
1618852902.62846,14.21451,1.7464599609375
1618852902.64408,12.97476,1.7620799541473389
1618852902.65971,11.73462,1.7777099609375
1618852902.67534,10.4375,1.7933399677276611
1618852902.69096,8.973053,1.8089599609375
1618852902.70659,7.250458,1.8245899677276611
1618852902.72221,5.184998,1.8402099609375
1618852902.73784,2.708069,1.8558399677276611
1618852902.75346,-0.2464447,1.8714599609375
1618852902.76909,-3.680481,1.8870899677276611
1618852902.78472,-7.532288,1.9027199745178223
1618852902.80034,-11.65511,1.9183399677276611
1618852902.81597,-15.89987,1.9339699745178223
1618852902.83159,-20.18118,1.9495899677276611
1618852902.84722,-24.49648,1.9652199745178223
1618852902.86284,-28.92046,1.9808399677276611
1618852902.87847,-33.51588,1.9964699745178223
1618852902.8941,-38.27669,2.0120999813079834
1618852902.90972,-43.08333,2.0277199745178223
1618852902.92535,-47.70709,2.0433499813079834
1618852902.94097,-51.78671,2.0589699745178223
1618852902.9566,-54.89128,2.0745999813079834
1618852902.97222,-56.48735,2.0902199745178223
1618852902.98785,-56.04485,2.1058499813079834
1618852903.00348,-53.18712,2.1214799880981445
1618852903.0191,-47.82628,2.1370999813079834
1618852903.03473,-40.2462,2.1527299880981445
1618852903.05035,-31.10146,2.1683499813079834
1618852903.06598,-21.22812,2.1839799880981445
1618852903.0816,-11.46222,2.1995999813079834
1618852903.09723,-2.498611,2.2152299880981445
1618852903.11286,5.184341,2.2308599948883057
1618852903.12848,11.33621,2.2464799880981445
1618852903.14411,15.85361,2.2621099948883057
1618852903.15973,18.72997,2.2777299880981445
1618852903.17536,20.02959,2.2933599948883057
1618852903.19098,19.84581,2.3089799880981445
1618852903.20661,18.32561,2.3246099948883057
1618852903.22224,15.66269,2.340240001678467
1618852903.23786,12.06725,2.3558599948883057
1618852903.25349,7.76976,2.371490001678467
1618852903.26911,2.914688,2.3871099948883057
1618852903.28474,-2.42868,2.402740001678467
1618852903.30036,-8.297058,2.4183599948883057
1618852903.31599,-14.73613,2.433990001678467
1618852903.33162,-21.72429,2.449620008468628
1618852903.34724,-29.08287,2.465240001678467
1618852903.36287,-36.43408,2.480870008468628
1618852903.37849,-43.40376,2.496490001678467
1618852903.39412,-49.78241,2.512120008468628
1618852903.40974,-55.84541,2.527740001678467
1618852903.42537,-62.38736,2.543370008468628
1618852903.441,-70.53369,2.559000015258789
1618852903.45662,-81.28867,2.574620008468628
1618852903.47225,-95.01227,2.590250015258789
1618852903.48787,-111.0068,2.605870008468628
1618852903.5035,-127.6317,2.621500015258789
1618852903.51912,-142.7376,2.637120008468628
1618852903.53475,-154.339,2.652750015258789
1618852903.55038,-161.2014,2.66838002204895
1618852903.566,-162.9795,2.684000015258789
1618852903.58163,-160.0791,2.69963002204895
1618852903.59725,-153.3316,2.715250015258789
1618852903.61288,-143.6807,2.73088002204895
1618852903.6285,-131.8903,2.746500015258789
1618852903.64413,-118.3467,2.76213002204895
1618852903.65976,-102.7632,2.7777600288391113
1618852903.67538,-84.06512,2.79338002204895
1618852903.69101,-60.49101,2.8090100288391113
1618852903.70663,-30.14283,2.82463002204895
1618852903.72226,8.098276,2.8402600288391113
1618852903.73788,53.6657,2.85588002204895
1618852903.75351,103.8311,2.8715100288391113
1618852903.76914,153.9538,2.8871400356292725
1618852903.78476,198.4999,2.9027600288391113
1618852903.80039,232.4688,2.9183900356292725
1618852903.81601,252.7144,2.9340100288391113
1618852903.83164,258.6609,2.9496400356292725
1618852903.84727,252.214,2.9652700424194336
1618852903.86289,237.0213,2.9808900356292725
1618852903.87852,217.3594,2.9965200424194336
1618852903.89414,197.0438,3.0121400356292725
1618852903.90977,178.7508,3.0277700424194336
1618852903.92539,163.7324,3.0433900356292725
1618852903.94102,152.0437,3.0590200424194336
1618852903.95665,142.8689,3.0746500492095947
1618852903.97227,134.9401,3.0902700424194336
1618852903.9879,126.8454,3.1059000492095947
1618852904.00352,117.3454,3.1215200424194336
1618852904.01915,105.6448,3.1371500492095947
1618852904.03477,91.61885,3.1527700424194336
1618852904.0504,75.9182,3.1684000492095947
1618852904.06603,59.78198,3.184030055999756
1618852904.08165,44.72391,3.1996500492095947
1618852904.09728,32.08313,3.215280055999756
1618852904.1129,22.66588,3.2309000492095947
1618852904.12853,16.67171,3.246530055999756
1618852904.14415,13.67722,3.2621500492095947
1618852904.15978,12.79671,3.277780055999756
1618852904.17541,12.81642,3.293410062789917
1618852904.19103,12.4606,3.309030055999756
1618852904.20666,10.7258,3.324660062789917
1618852904.22228,7.152145,3.340280055999756
1618852904.23791,1.939911,3.355910062789917
1618852904.25353,-4.205902,3.371530055999756
1618852904.26916,-10.51962,3.387160062789917
1618852904.28479,-16.63548,3.402790069580078
1618852904.30041,-22.84879,3.418410062789917
1618852904.31604,-29.97592,3.434040069580078
1618852904.33166,-38.87593,3.449660062789917
1618852904.34729,-49.92458,3.465290069580078
1618852904.36291,-62.63838,3.480910062789917
1618852904.37854,-75.67001,3.496540069580078
1618852904.39417,-87.17854,3.5121700763702393
1618852904.40979,-95.31349,3.527790069580078
1618852904.42542,-98.66353,3.5434200763702393
1618852904.44104,-96.51427,3.559040069580078
1618852904.45667,-88.92523,3.5746700763702393
1618852904.47229,-76.63548,3.590290069580078
1618852904.48792,-60.9523,3.6059200763702393
1618852904.50355,-43.50851,3.6215500831604004
1618852904.51917,-26.0407,3.6371700763702393
1618852904.5348,-10.11526,3.6528000831604004
1618852904.55042,3.110641,3.6684200763702393
1618852904.56605,13.08293,3.6840500831604004
1618852904.58167,19.9158,3.6996700763702393
1618852904.5973,24.32018,3.7153000831604004
1618852904.61293,27.3539,3.7309300899505615
1618852904.62855,30.07034,3.7465500831604004
1618852904.64418,33.24123,3.7621800899505615
1618852904.6598,37.12013,3.7778000831604004
1618852904.67543,41.45998,3.7934300899505615
1618852904.69105,45.63179,3.8090500831604004
1618852904.70668,48.93433,3.8246800899505615
1618852904.72231,50.84592,3.8403100967407227
1618852904.73793,51.19054,3.8559300899505615
1618852904.75356,50.187,3.8715600967407227
1618852904.76918,48.27713,3.8871800899505615
1618852904.78481,45.97482,3.9028100967407227
1618852904.80043,43.6548,3.9184300899505615
1618852904.81606,41.54443,3.9340600967407227
1618852904.83169,39.74382,3.949690103530884
1618852904.84731,38.26591,3.9653100967407227
1618852904.86294,37.1002,3.980940103530884
1618852904.87856,36.18118,3.9965600967407227
1618852904.89419,35.42155,4.012190103530884
1618852904.90981,34.70447,4.027810096740723
1618852904.92544,33.96418,4.043440103530884
1618852904.94107,33.18119,4.059070110321045
1618852904.95669,32.38338,4.074690103530884
1618852904.97232,31.68962,4.090320110321045
1618852904.98794,31.26917,4.105940103530884
1618852905.00357,31.29718,4.121570110321045
1618852905.01919,31.86926,4.137190103530884
1618852905.03482,32.81576,4.152820110321045
1618852905.05045,33.56987,4.168450117111206
1618852905.06607,33.13696,4.184070110321045
1618852905.0817,30.33154,4.199700117111206
1618852905.09732,24.16988,4.215320110321045
1618852905.11295,14.35143,4.230950117111206
1618852905.12857,1.531166,4.246570110321045
1618852905.1442,-12.70517,4.262200117111206
1618852905.15983,-26.30034,4.277830123901367
1618852905.17545,-37.24196,4.293450117111206
1618852905.19108,-44.07503,4.309080123901367
1618852905.2067,-46.12368,4.324700117111206
1618852905.22233,-43.524,4.340330123901367
1618852905.23795,-37.06949,4.355950117111206
1618852905.25358,-28.01496,4.371580123901367
1618852905.26921,-17.88196,4.387210130691528
1618852905.28483,-8.233459,4.402830123901367
1618852905.30046,-0.4312134,4.418460130691528
1618852905.31608,4.646721,4.434080123901367
1618852905.33171,6.788254,4.449710130691528
1618852905.34733,6.490498,4.465330123901367
1618852905.36296,4.734116,4.480960130691528
1618852905.37859,2.689693,4.4965901374816895
1618852905.39421,1.290756,4.512210130691528
1618852905.40984,1.013195,4.5278401374816895
1618852905.42546,1.740326,4.543460130691528
1618852905.44109,2.855522,4.5590901374816895
1618852905.45671,3.447628,4.574710130691528
1618852905.47234,2.528225,4.5903401374816895
1618852905.48797,-0.6613083,4.605970144271851
1618852905.50359,-6.505833,4.6215901374816895
1618852905.51922,-14.80486,4.637220144271851
1618852905.53484,-24.84486,4.6528401374816895
1618852905.55047,-35.45762,4.668470144271851
1618852905.56609,-45.30981,4.6840901374816895
1618852905.58172,-53.2031,4.699720144271851
1618852905.59735,-58.32205,4.715349912643433
1618852905.61297,-60.3935,4.730970144271851
1618852905.6286,-59.60131,4.746599912643433
1618852905.64422,-56.47028,4.762220144271851
1618852905.65985,-51.69035,4.777849912643433
1618852905.67547,-46.0364,4.793470144271851
1618852905.6911,-40.25056,4.809099912643433
1618852905.70673,-35.03226,4.824729919433594
1618852905.72235,-30.85683,4.840349912643433
1618852905.73798,-27.86367,4.855979919433594
1618852905.7536,-25.78032,4.871599912643433
1618852905.76923,-23.95129,4.887229919433594
1618852905.78485,-21.51425,4.902849912643433
1618852905.80048,-17.70425,4.918479919433594
1618852905.81611,-12.11808,4.934109926223755
1618852905.83173,-4.883416,4.949729919433594
1618852905.84736,3.396914,4.965359926223755
1618852905.86298,11.81598,4.980979919433594
1618852905.87861,19.49891,4.996609926223755
1618852905.89423,25.84146,5.012229919433594
1618852905.90986,30.58735,5.027859926223755
1618852905.92549,33.75624,5.043489933013916
1618852905.94111,35.49831,5.059109926223755
1618852905.95674,35.99994,5.074739933013916
1618852905.97236,35.37787,5.090359926223755
1618852905.98799,33.758,5.105989933013916
1618852906.00361,31.2922,5.121609926223755
1618852906.01924,28.169,5.137239933013916
1618852906.03487,24.61641,5.152869939804077
1618852906.05049,20.84773,5.168489933013916
1618852906.06612,17.04314,5.184119939804077
1618852906.08174,13.39075,5.199739933013916
1618852906.09737,10.10039,5.215369939804077
1618852906.11299,7.356707,5.230989933013916
1618852906.12862,5.315521,5.246619939804077
1618852906.14425,3.991758,5.262249946594238
1618852906.15987,3.2349,5.277869939804077
1618852906.1755,2.747391,5.293499946594238
1618852906.19112,2.202885,5.309119939804077
1618852906.20675,1.346161,5.324749946594238
1618852906.22237,0.03911591,5.340369939804077
1618852906.238,-1.669903,5.355999946594238
1618852906.25363,-3.653578,5.371629953384399
1618852906.26925,-5.797853,5.387249946594238
1618852906.28488,-8.051168,5.402879953384399
1618852906.3005,-10.51705,5.418499946594238
1618852906.31613,-13.37977,5.434129953384399
1618852906.33175,-16.83809,5.449749946594238
1618852906.34738,-20.96704,5.465379953384399
1618852906.36301,-25.65723,5.4810099601745605
1618852906.37863,-30.58362,5.496629953384399
1618852906.39426,-35.29727,5.5122599601745605
1618852906.40988,-39.28974,5.527879953384399
1618852906.42551,-42.0649,5.5435099601745605
1618852906.44114,-43.23694,5.559139966964722
1618852906.45676,-42.54857,5.5747599601745605
1618852906.47239,-39.94947,5.590389966964722
1618852906.48801,-35.62856,5.6060099601745605
1618852906.50364,-29.98924,5.621639966964722
1618852906.51926,-23.60677,5.6372599601745605
1618852906.53489,-17.131,5.652889966964722
1618852906.55052,-11.1374,5.668519973754883
1618852906.56614,-6.129047,5.684139966964722
1618852906.58177,-2.473333,5.699769973754883
1618852906.59739,-0.3979988,5.715389966964722
1618852906.61302,-0.02563477,5.731019973754883
1618852906.62864,-1.367683,5.746639966964722
1618852906.64427,-4.303488,5.762269973754883
1618852906.6599,-8.535624,5.777899980545044
1618852906.67552,-13.57024,5.793519973754883
1618852906.69115,-18.755,5.809149980545044
1618852906.70677,-23.421,5.824769973754883
1618852906.7224,-27.16705,5.840399980545044
1618852906.73802,-30.08898,5.856019973754883
1618852906.75365,-32.82923,5.871649980545044
1618852906.76928,-36.31042,5.887279987335205
1618852906.7849,-41.06284,5.902899980545044
1618852906.80053,-46.65439,5.918529987335205
1618852906.81615,-51.4809,5.934149980545044
1618852906.83178,-53.24431,5.949779987335205
1618852906.8474,-50.01444,5.965399980545044
1618852906.86303,-41.15365,5.981029987335205
1618852906.87866,-27.61922,5.996659994125366
1618852906.89428,-11.36439,6.012279987335205
1618852906.90991,5.632006,6.027909994125366
1618852906.92553,22.22585,6.043529987335205
1618852906.94116,38.29329,6.059159994125366
1618852906.95678,53.99004,6.074779987335205
1618852906.97241,68.85886,6.090409994125366
1618852906.98804,81.10222,6.106040000915527
1618852907.00366,87.44185,6.121659994125366
1618852907.01929,83.69858,6.137290000915527
1618852907.03491,65.71228,6.152909994125366
1618852907.05054,30.40717,6.168540000915527
1618852907.06616,-23.44396,6.184159994125366
1618852907.08179,-94.69228,6.199790000915527
1618852907.09742,-179.4781,6.2154200077056885
1618852907.11304,-271.173,6.231040000915527
1618852907.12867,-360.957,6.2466700077056885
1618852907.14429,-439.0734,6.262290000915527
1618852907.15992,-496.7585,6.2779200077056885
1618852907.17554,-528.1249,6.293540000915527
1618852907.19117,-531.5244,6.3091700077056885
1618852907.2068,-509.4324,6.32480001449585
1618852907.22242,-467.2784,6.3404200077056885
1618852907.23805,-411.5803,6.35605001449585
1618852907.25367,-348.1516,6.3716700077056885
1618852907.2693,-281.3086,6.38730001449585
1618852907.28492,-213.948,6.4029200077056885
1618852907.30055,-148.2625,6.41855001449585
1618852907.31618,-86.25098,6.434180021286011
1618852907.3318,-29.74036,6.44980001449585
1618852907.34743,20.27274,6.465430021286011
1618852907.36305,64.15546,6.48105001449585
1618852907.37868,103.732,6.496680021286011
1618852907.3943,141.6219,6.51230001449585
1618852907.40993,180.3303,6.527930021286011
1618852907.42556,221.4363,6.543560028076172
1618852907.44118,265.317,6.559180021286011
1618852907.45681,310.8933,6.574810028076172
1618852907.47243,355.5468,6.590430021286011
1618852907.48806,395.3474,6.606060028076172
1618852907.50368,425.622,6.621680021286011
1618852907.51931,442.2611,6.637310028076172
1618852907.53494,443.2757,6.652940034866333
1618852907.55056,429.9287,6.668560028076172
1618852907.56619,406.6357,6.684190034866333
1618852907.58181,379.3924,6.699810028076172
1618852907.59744,353.4189,6.715440034866333
1618852907.61306,331.2386,6.731060028076172
1618852907.62869,312.2882,6.746690034866333
1618852907.64432,294.1396,6.762320041656494
1618852907.65994,274.615,6.777940034866333
1618852907.67557,253.3961,6.793570041656494
1618852907.69119,232.2471,6.809190034866333
1618852907.70682,213.7859,6.824820041656494
1618852907.72244,199.8256,6.840440034866333
1618852907.73807,190.3604,6.856070041656494
1618852907.7537,183.9051,6.871700048446655
1618852907.76932,178.675,6.887320041656494
1618852907.78495,173.856,6.902950048446655
1618852907.80057,169.9861,6.918570041656494
1618852907.8162,168.4233,6.934200048446655
1618852907.83182,170.0873,6.949820041656494
1618852907.84745,174.5543,6.965450048446655
1618852907.86308,179.9828,6.981080055236816
1618852907.8787,184.0359,6.996700048446655
1618852907.89433,185.0805,7.012330055236816
1618852907.90995,183.1732,7.027950048446655
1618852907.92558,180.0797,7.043580055236816
1618852907.9412,178.5797,7.059200048446655
1618852907.95683,181.3283,7.074830055236816
1618852907.97246,189.7964,7.0904600620269775
1618852907.98808,203.7793,7.106080055236816
1618852908.00371,221.4655,7.1217100620269775
1618852908.01933,239.9756,7.137330055236816
1618852908.03496,256.1434,7.1529600620269775
1618852908.05058,267.2569,7.168580055236816
1618852908.06621,271.624,7.1842100620269775
1618852908.08184,268.789,7.199840068817139
1618852908.09746,259.4431,7.2154600620269775
1618852908.11309,245.0312,7.231090068817139
1618852908.12871,227.2689,7.2467100620269775
1618852908.14434,207.708,7.262340068817139
1618852908.15996,187.445,7.2779600620269775
1618852908.17559,167.0837,7.293590068817139
1618852908.19122,146.7481,7.3092200756073
1618852908.20684,126.2357,7.324840068817139
1618852908.22247,105.0288,7.3404700756073
1618852908.23809,82.46363,7.356090068817139
1618852908.25372,57.86433,7.3717200756073
1618852908.26934,30.73369,7.387340068817139
1618852908.28497,1.023819,7.4029700756073
1618852908.3006,-30.77742,7.418600082397461
1618852908.31622,-63.82465,7.4342200756073
1618852908.33185,-97.21426,7.449850082397461
1618852908.34747,-130.3043,7.4654700756073
1618852908.3631,-162.9295,7.481100082397461
1618852908.37872,-195.2277,7.4967200756073
1618852908.39435,-227.3959,7.512350082397461
1618852908.40998,-259.5367,7.527980089187622
1618852908.4256,-291.6924,7.543600082397461
1618852908.44123,-323.9488,7.559230089187622
1618852908.45685,-356.3802,7.574850082397461
1618852908.47248,-388.7721,7.590480089187622
1618852908.4881,-420.1452,7.606100082397461
1618852908.50373,-448.6027,7.621730089187622
1618852908.51936,-471.7062,7.637360095977783
1618852908.53498,-487.3185,7.652980089187622
1618852908.55061,-494.5817,7.668610095977783
1618852908.56623,-494.2715,7.684230089187622
1618852908.58186,-488.4371,7.699860095977783
1618852908.59748,-479.4521,7.715480089187622
1618852908.61311,-468.9814,7.731110095977783
1618852908.62874,-457.5811,7.746740102767944
1618852908.64436,-444.7669,7.762360095977783
1618852908.65999,-429.9648,7.777990102767944
1618852908.67561,-413.0664,7.793610095977783
1618852908.69124,-394.6061,7.809240102767944
1618852908.70687,-375.1934,7.8248701095581055
1618852908.72249,-354.8035,7.840490102767944
1618852908.73812,-332.1295,7.8561201095581055
1618852908.75374,-304.721,7.871740102767944
1618852908.76937,-270.2477,7.8873701095581055
1618852908.78499,-228.2576,7.902990102767944
1618852908.80062,-181.4225,7.9186201095581055
1618852908.81625,-135.2905,7.934250116348267
1618852908.83187,-96.34589,7.9498701095581055
1618852908.8475,-69.13025,7.965500116348267
1618852908.86312,-54.1311,7.9811201095581055
1618852908.87875,-47.6084,7.996750116348267
1618852908.89437,-43.57184,8.012370109558105
1618852908.91,-36.82861,8.028000116348267
1618852908.92563,-25.23804,8.043630123138428
1618852908.94125,-10.02246,8.059250116348267
1618852908.95688,5.860596,8.074880123138428
1618852908.9725,19.89478,8.090500116348267
1618852908.98813,31.47076,8.106130123138428
1618852909.00375,41.5824,8.121750116348267
1618852909.01938,51.49634,8.137380123138428
1618852909.03501,61.42651,8.153010129928589
1618852909.05063,70.16013,8.168630123138428
1618852909.06626,76.01266,8.184260129928589
1618852909.08188,78.18286,8.199880123138428
1618852909.09751,77.53122,8.215510129928589
1618852909.11313,76.35028,8.231130123138428
1618852909.12876,77.15479,8.246760129928589
1618852909.14439,81.62836,8.26239013671875
1618852909.16001,89.7084,8.278010129928589
1618852909.17564,99.71082,8.29364013671875
1618852909.19126,108.9463,8.309260129928589
1618852909.20689,114.8819,8.32489013671875
1618852909.22251,115.9563,8.340510129928589
1618852909.23814,112.0119,8.35614013671875
1618852909.25377,104.2413,8.371770143508911
1618852909.26939,94.72247,8.38739013671875
1618852909.28502,85.70288,8.403020143508911
1618852909.30064,78.96591,8.41864013671875
1618852909.31627,75.46005,8.434270143508911
1618852909.33189,75.21014,8.44989013671875
1618852909.34752,77.47571,8.465520143508911
1618852909.36315,81.11279,8.481149911880493
1618852909.37877,84.9184,8.496770143508911
1618852909.3944,87.98959,8.512399911880493
1618852909.41002,89.83762,8.528020143508911
1618852909.42565,90.35141,8.543649911880493
1618852909.44127,89.53192,8.559270143508911
1618852909.4569,87.31967,8.574899911880493
1618852909.47253,83.47983,8.590529918670654
1618852909.48815,77.72229,8.606149911880493
1618852909.50378,69.90924,8.621779918670654
1618852909.5194,60.26154,8.637399911880493
1618852909.53503,49.42706,8.653029918670654
1618852909.55065,38.33008,8.668649911880493
1618852909.56628,27.95572,8.684279918670654
1618852909.58191,19.06583,8.699909925460815
1618852909.59753,12.08051,8.715529918670654
1618852909.61316,6.979462,8.731159925460815
1618852909.62878,3.451233,8.746779918670654
1618852909.64441,0.9195862,8.762409925460815
1618852909.66003,-1.245651,8.778029918670654
1618852909.67566,-3.655289,8.793659925460815
1618852909.69129,-6.792816,8.809289932250977
1618852909.70691,-10.9352,8.824909925460815
1618852909.72254,-16.17885,8.840539932250977
1618852909.73816,-22.40619,8.856159925460815
1618852909.75379,-29.28531,8.871789932250977
1618852909.76941,-36.20422,8.887409925460815
1618852909.78504,-42.19547,8.903039932250977
1618852909.80067,-46.07594,8.918669939041138
1618852909.81629,-46.70596,8.934289932250977
1618852909.83192,-43.36887,8.949919939041138
1618852909.84754,-36.11891,8.965539932250977
1618852909.86317,-25.82318,8.981169939041138
1618852909.87879,-13.88591,8.996789932250977
1618852909.89442,-1.782669,9.012419939041138
1618852909.91005,9.402863,9.028049945831299
1618852909.92567,19.23434,9.043669939041138
1618852909.9413,27.79605,9.059299945831299
1618852909.95692,35.3569,9.074919939041138
1618852909.97255,41.96284,9.090549945831299
1618852909.98817,47.26965,9.106169939041138
1618852910.0038,50.65865,9.121799945831299
1618852910.01943,51.51401,9.13742995262146
1618852910.03505,49.57556,9.153049945831299
1618852910.05068,45.0464,9.16867995262146
1618852910.0663,38.58762,9.184299945831299
1618852910.08193,31.15999,9.19992995262146
1618852910.09755,23.75658,9.215549945831299
1618852910.11318,17.16711,9.23117995262146
1618852910.12881,11.78328,9.246809959411621
1618852910.14443,7.504074,9.26242995262146
1618852910.16006,3.815613,9.278059959411621
1618852910.17568,-0.008605957,9.29367995262146
1618852910.19131,-4.6464,9.309309959411621
1618852910.20693,-10.45811,9.32492995262146
1618852910.22256,-17.36995,9.340559959411621
1618852910.23819,-24.93172,9.356189966201782
1618852910.25381,-32.5025,9.371809959411621
1618852910.26944,-39.5484,9.387439966201782
1618852910.28506,-45.83875,9.403059959411621
1618852910.30069,-51.47292,9.418689966201782
1618852910.31631,-56.78625,9.434309959411621
1618852910.33194,-62.09795,9.449939966201782
1618852910.34757,-67.53995,9.465569972991943
1618852910.36319,-73.02251,9.481189966201782
1618852910.37882,-78.32659,9.496819972991943
1618852910.39444,-83.24358,9.512439966201782
1618852910.41007,-87.69545,9.528069972991943
1618852910.42569,-91.77737,9.543689966201782
1618852910.44132,-95.70161,9.559319972991943
1618852910.45695,-99.60286,9.574949979782104
1618852910.47257,-103.3868,9.590569972991943
1618852910.4882,-106.5986,9.606199979782104
1618852910.50382,-108.3992,9.621819972991943
1618852910.51945,-107.8094,9.637449979782104
1618852910.53507,-103.9195,9.653069972991943
1618852910.5507,-96.22083,9.668699979782104
1618852910.56633,-84.82653,9.684329986572266
1618852910.58195,-70.39171,9.699949979782104
1618852910.59758,-53.89199,9.715579986572266
1618852910.6132,-36.34034,9.731199979782104
1618852910.62883,-18.57586,9.746829986572266
1618852910.64445,-1.201088,9.762449979782104
1618852910.66008,15.28622,9.778079986572266
1618852910.67571,30.3837,9.793709993362427
1618852910.69133,43.60915,9.809329986572266
1618852910.70696,54.56049,9.824959993362427
1618852910.72258,63.08845,9.840579986572266
1618852910.73821,69.33388,9.856209993362427
1618852910.75383,73.66251,9.871829986572266
1618852910.76946,76.4865,9.887459993362427
1618852910.78509,78.10612,9.903090000152588
1618852910.80071,78.67963,9.918709993362427
1618852910.81634,78.30555,9.934340000152588
1618852910.83196,77.08098,9.949959993362427
1618852910.84759,75.17664,9.965590000152588
1618852910.86321,72.81038,9.981209993362427
1618852910.87884,70.20288,9.996840000152588
1618852910.89447,67.49814,10.012470006942749
1618852910.91009,64.75992,10.028090000152588
1618852910.92572,61.96704,10.043720006942749
1618852910.94134,58.94414,10.059340000152588
1618852910.95697,55.40097,10.074970006942749
1618852910.97259,51.03413,10.090590000152588
1618852910.98822,45.64397,10.106220006942749
1618852911.00385,39.30983,10.12185001373291
1618852911.01947,32.36707,10.137470006942749
1618852911.0351,25.30389,10.15310001373291
1618852911.05072,18.57057,10.168720006942749
1618852911.06635,12.35838,10.18435001373291
1618852911.08197,6.552841,10.199970006942749
1618852911.0976,0.7941895,10.21560001373291
1618852911.11323,-5.327911,10.231230020523071
1618852911.12885,-12.11337,10.24685001373291
1618852911.14448,-19.59906,10.262480020523071
1618852911.1601,-27.51581,10.27810001373291
1618852911.17573,-35.27045,10.293730020523071
1618852911.19135,-41.98645,10.30935001373291
1618852911.20698,-46.56458,10.324980020523071
1618852911.22261,-47.88345,10.340610027313232
1618852911.23823,-45.01758,10.356230020523071
1618852911.25386,-37.47574,10.371860027313232
1618852911.26948,-25.41394,10.387480020523071
1618852911.28511,-9.581085,10.403110027313232
1618852911.30074,8.826447,10.418740034103394
1618852911.31636,28.43307,10.434360027313232
1618852911.33199,47.93619,10.449990034103394
1618852911.34761,66.28223,10.465610027313232
1618852911.36324,82.78171,10.481240034103394
1618852911.37886,97.11414,10.496860027313232
1618852911.39449,109.2187,10.512490034103394
1618852911.41012,119.1945,10.528120040893555
1618852911.42574,127.127,10.543740034103394
1618852911.44137,133.0551,10.559370040893555
1618852911.45699,136.9532,10.574990034103394
1618852911.47262,138.8682,10.590620040893555
1618852911.48824,138.964,10.606240034103394
1618852911.50387,137.4889,10.621870040893555
1618852911.5195,134.7008,10.637500047683716
1618852911.53512,130.712,10.653120040893555
1618852911.55075,125.4844,10.668750047683716
1618852911.56637,118.9002,10.684370040893555
1618852911.582,110.8928,10.700000047683716
1618852911.59762,101.5888,10.715620040893555
1618852911.61325,91.2847,10.731250047683716
1618852911.62888,80.3194,10.746880054473877
1618852911.6445,68.90607,10.762500047683716
1618852911.66013,57.0701,10.778130054473877
1618852911.67575,44.77365,10.793750047683716
1618852911.69138,32.1142,10.809380054473877
1618852911.707,19.47382,10.825000047683716
1618852911.72263,7.508148,10.840630054473877
1618852911.73826,-3.080841,10.856260061264038
1618852911.75388,-11.74792,10.871880054473877
1618852911.76951,-18.39105,10.887510061264038
1618852911.78513,-23.33319,10.903130054473877
1618852911.80076,-27.25259,10.918760061264038
1618852911.81638,-30.88214,10.934380054473877
1618852911.83201,-34.79434,10.950010061264038
1618852911.84764,-39.228,10.9656400680542
1618852911.86326,-43.97696,10.981260061264038
1618852911.87889,-48.48276,10.9968900680542
1618852911.89451,-51.93668,11.012510061264038
1618852911.91014,-53.53113,11.0281400680542
1618852911.92576,-52.61655,11.043760061264038
1618852911.94139,-48.83768,11.0593900680542
1618852911.95702,-42.2345,11.07502007484436
1618852911.97264,-33.15964,11.0906400680542
1618852911.98827,-22.2829,11.10627007484436
1618852912.00389,-10.4324,11.1218900680542
1618852912.01952,1.493225,11.13752007484436
1618852912.03514,12.68909,11.1531400680542
1618852912.05077,22.45998,11.16877007484436
1618852912.0664,30.32649,11.184400081634521
1618852912.08202,36.01804,11.20002007484436
1618852912.09765,39.46649,11.215650081634521
1618852912.11327,40.78731,11.23127007484436
1618852912.1289,40.28287,11.246900081634521
1618852912.14452,38.38333,11.26252007484436
1618852912.16015,35.57501,11.278150081634521
1618852912.17578,32.27618,11.293780088424683
1618852912.1914,28.72226,11.309400081634521
1618852912.20703,24.96794,11.325030088424683
1618852912.22265,20.93585,11.340650081634521
1618852912.23828,16.53587,11.356280088424683
1618852912.2539,11.80699,11.371900081634521
1618852912.26953,6.941071,11.387530088424683
1618852912.28516,2.212921,11.403160095214844
1618852912.30078,-2.152405,11.418780088424683
1618852912.31641,-6.066055,11.434410095214844
1618852912.33203,-9.602509,11.450030088424683
1618852912.34766,-12.96121,11.465660095214844
1618852912.36328,-16.35735,11.481280088424683
1618852912.37891,-19.97264,11.496910095214844
1618852912.39454,-23.8927,11.512540102005005
1618852912.41016,-28.08911,11.528160095214844
1618852912.42579,-32.45062,11.543790102005005
1618852912.44141,-36.8055,11.559410095214844
1618852912.45704,-41.02145,11.575040102005005
1618852912.47266,-45.07227,11.590660095214844
1618852912.48829,-49.09171,11.606290102005005
1618852912.50392,-53.36537,11.621920108795166
1618852912.51954,-58.21985,11.637540102005005
1618852912.53517,-63.96443,11.653170108795166
1618852912.55079,-70.72633,11.668790102005005
1618852912.56642,-78.41667,11.684420108795166
1618852912.58204,-86.64659,11.700040102005005
1618852912.59767,-94.70577,11.715670108795166
1618852912.6133,-101.619,11.731300115585327
1618852912.62892,-106.2934,11.746920108795166
1618852912.64455,-107.7853,11.762550115585327
1618852912.66017,-105.5355,11.778170108795166
1618852912.6758,-99.55065,11.793800115585327
1618852912.69142,-90.41664,11.809420108795166
1618852912.70705,-79.06697,11.825050115585327
1618852912.72268,-66.55415,11.840680122375488
1618852912.7383,-53.85069,11.856300115585327
1618852912.75393,-41.71021,11.871930122375488
1618852912.76955,-30.7071,11.887550115585327
1618852912.78518,-21.18029,11.903180122375488
1618852912.8008,-13.2848,11.918800115585327
1618852912.81643,-6.904366,11.934430122375488
1618852912.83206,-1.714981,11.95006012916565
1618852912.84768,2.711311,11.965680122375488
1618852912.86331,6.718834,11.98131012916565
1618852912.87893,10.42027,11.996930122375488
1618852912.89456,13.64231,12.01256012916565
1618852912.91018,16.11914,12.028180122375488
1618852912.92581,17.65433,12.04381012916565
1618852912.94144,18.27014,12.05944013595581
1618852912.95706,18.23772,12.07506012916565
1618852912.97269,17.96188,12.09069013595581
1618852912.98831,17.76852,12.10631012916565
1618852913.00394,17.77733,12.12194013595581
1618852913.01956,17.88741,12.13756012916565
1618852913.03519,17.82404,12.15319013595581
1618852913.05082,17.29289,12.168820142745972
1618852913.06644,16.12906,12.18444013595581
1618852913.08207,14.33429,12.200070142745972
1618852913.09769,12.09473,12.21569013595581
1618852913.11332,9.645004,12.231320142745972
1618852913.12894,7.136734,12.24694013595581
1618852913.14457,4.531677,12.262570142745972
1618852913.1602,1.651413,12.278200149536133
1618852913.17582,-1.799622,12.293820142745972
1618852913.19145,-6.100739,12.309450149536133
1618852913.20707,-11.36438,12.325070142745972
1618852913.2227,-17.5416,12.340700149536133
1618852913.23832,-24.32935,12.356320142745972
1618852913.25395,-31.17981,12.371950149536133
1618852913.26958,-37.2717,12.387579917907715
1618852913.2852,-41.53618,12.403200149536133
1618852913.30083,-42.85939,12.418829917907715
1618852913.31645,-40.3185,12.434450149536133
1618852913.33208,-33.54858,12.450079917907715
1618852913.3477,-22.95348,12.465700149536133
1618852913.36333,-9.637589,12.481329917907715
1618852913.37896,4.86087,12.496959924697876
1618852913.39458,18.98972,12.512579917907715
1618852913.41021,31.53293,12.528209924697876
1618852913.42583,41.77095,12.543829917907715
1618852913.44146,49.42288,12.559459924697876
1618852913.45708,54.53065,12.575079917907715
1618852913.47271,57.32806,12.590709924697876
1618852913.48834,58.15106,12.606339931488037
1618852913.50396,57.41547,12.621959924697876
1618852913.51959,55.543,12.637589931488037
1618852913.53521,52.92406,12.653209924697876
1618852913.55084,49.83195,12.668839931488037
1618852913.56647,46.43254,12.684469938278198
1618852913.58209,42.82623,12.700089931488037
1618852913.59772,39.10442,12.715719938278198
1618852913.61334,35.43369,12.731339931488037
1618852913.62897,32.02988,12.746969938278198
1618852913.64459,29.10213,12.762589931488037
1618852913.66022,26.79509,12.778219938278198
1618852913.67585,25.07423,12.79384994506836
1618852913.69147,23.67326,12.809469938278198
1618852913.7071,22.17459,12.82509994506836
1618852913.72272,20.06255,12.840719938278198
1618852913.73835,16.89937,12.85634994506836
1618852913.75397,12.4467,12.871969938278198
1618852913.7696,6.715729,12.88759994506836
1618852913.78523,-0.04898071,12.90322995185852
1618852913.80085,-7.492371,12.91884994506836
1618852913.81648,-15.31311,12.93447995185852
1618852913.8321,-23.26199,12.95009994506836
1618852913.84773,-31.16953,12.96572995185852
1618852913.86335,-38.90402,12.98134994506836
1618852913.87898,-46.37749,12.99697995185852
1618852913.89461,-53.58495,13.012609958648682
1618852913.91023,-60.61548,13.02822995185852
1618852913.92586,-67.52118,13.043859958648682
1618852913.94148,-74.12938,13.05947995185852
1618852913.95711,-79.86357,13.075109958648682
1618852913.97273,-83.69408,13.09072995185852
1618852913.98836,-84.35727,13.106359958648682
1618852914.00399,-80.71608,13.121989965438843
1618852914.01961,-72.28133,13.137609958648682
1618852914.03524,-59.41795,13.153239965438843
1618852914.05086,-43.36797,13.168859958648682
1618852914.06649,-25.88409,13.184489965438843
1618852914.08211,-8.753479,13.200109958648682
1618852914.09774,6.626129,13.215739965438843
1618852914.11337,19.49219,13.231369972229004
1618852914.12899,29.7016,13.246989965438843
1618852914.14462,37.44,13.262619972229004
1618852914.16024,42.99416,13.278239965438843
1618852914.17587,46.59129,13.293869972229004
1618852914.19149,48.36166,13.309489965438843
1618852914.20712,48.46246,13.325119972229004
1618852914.22275,47.23785,13.340749979019165
1618852914.23837,45.16791,13.356369972229004
1618852914.254,42.75046,13.371999979019165
1618852914.26962,40.29379,13.387619972229004
1618852914.28525,37.84381,13.403249979019165
1618852914.30087,35.26166,13.418869972229004
1618852914.3165,32.4375,13.434499979019165
1618852914.33213,29.45947,13.450129985809326
1618852914.34775,26.69199,13.465749979019165
1618852914.36338,24.5676,13.481379985809326
1618852914.379,23.36984,13.496999979019165
1618852914.39463,23.00262,13.512629985809326
1618852914.41025,22.99509,13.528249979019165
1618852914.42588,22.65253,13.543879985809326
1618852914.44151,21.33847,13.559509992599487
1618852914.45713,18.72556,13.575129985809326
1618852914.47276,14.83157,13.590759992599487
1618852914.48838,9.980499,13.606379985809326
1618852914.50401,4.645996,13.622009992599487
1618852914.51963,-0.766571,13.637629985809326
1618852914.53526,-6.019379,13.653259992599487
1618852914.55089,-11.11493,13.668889999389648
1618852914.56651,-16.26602,13.684509992599487
1618852914.58214,-21.80206,13.700139999389648
1618852914.59776,-28.04953,13.715759992599487
1618852914.61339,-35.09613,13.731389999389648
1618852914.62901,-42.61316,13.747009992599487
1618852914.64464,-49.73383,13.762639999389648
1618852914.66027,-55.20731,13.77827000617981
1618852914.67589,-57.60596,13.793889999389648
1618852914.69152,-55.77029,13.80952000617981
1618852914.70714,-49.23236,13.825139999389648
1618852914.72277,-38.43869,13.84077000617981
1618852914.73839,-24.63919,13.856389999389648
1618852914.75402,-9.548248,13.87202000617981
1618852914.76965,5.177887,13.88765001296997
1618852914.78527,18.32217,13.90327000617981
1618852914.8009,29.26971,13.91890001296997
1618852914.81652,37.87878,13.93452000617981
1618852914.83215,44.20096,13.95015001296997
1618852914.84777,48.32187,13.96577000617981
1618852914.8634,50.23599,13.98140001296997
1618852914.87903,49.99329,13.997030019760132
1618852914.89465,47.80975,14.01265001296997
1618852914.91028,44.18341,14.028280019760132
1618852914.9259,39.82245,14.04390001296997
1618852914.94153,35.46021,14.059530019760132
1618852914.95715,31.62106,14.07515001296997
1618852914.97278,28.48868,14.090780019760132
1618852914.98841,25.91727,14.106410026550293
1618852915.00403,23.56955,14.122030019760132
1618852915.01966,21.1716,14.137660026550293
1618852915.03528,18.66333,14.153280019760132
1618852915.05091,16.21997,14.168910026550293
1618852915.06653,14.09341,14.184530019760132
1618852915.08216,12.44281,14.200160026550293
1618852915.09779,11.15857,14.215790033340454
1618852915.11341,9.85788,14.231410026550293
1618852915.12904,8.048309,14.247040033340454
1618852915.14466,5.369354,14.262660026550293
1618852915.16029,1.719238,14.278290033340454
1618852915.17591,-2.684052,14.293910026550293
1618852915.19154,-7.438477,14.309540033340454
1618852915.20717,-12.12628,14.325170040130615
1618852915.22279,-16.48999,14.340790033340454
1618852915.23842,-20.4483,14.356420040130615
1618852915.25404,-24.1384,14.372040033340454
1618852915.26967,-27.82565,14.387670040130615
1618852915.28529,-31.86563,14.403290033340454
1618852915.30092,-36.57819,14.418920040130615
1618852915.31655,-42.12842,14.434550046920776
1618852915.33217,-48.36572,14.450170040130615
1618852915.3478,-54.6698,14.465800046920776
1618852915.36342,-59.94354,14.481420040130615
1618852915.37905,-62.80283,14.497050046920776
1618852915.39467,-61.9646,14.512670040130615
1618852915.4103,-56.66534,14.528300046920776
1618852915.42593,-46.97498,14.543930053710938
1618852915.44155,-33.80386,14.559550046920776
1618852915.45718,-18.66098,14.575180053710938
1618852915.4728,-3.244507,14.590800046920776
1618852915.48843,11.0538,14.606430053710938
1618852915.50405,23.31073,14.622050046920776
1618852915.51968,33.15601,14.637680053710938
1618852915.53531,40.54019,14.653310060501099
1618852915.55093,45.54654,14.668930053710938
1618852915.56656,48.26987,14.684560060501099
1618852915.58218,48.84567,14.700180053710938
1618852915.59781,47.56522,14.715810060501099
1618852915.61343,44.92874,14.731430053710938
1618852915.62906,41.60757,14.747060060501099
1618852915.64469,38.26712,14.76269006729126
1618852915.66031,35.38382,14.778310060501099
1618852915.67594,33.14481,14.79394006729126
1618852915.69156,31.47903,14.809560060501099
1618852915.70719,30.20731,14.82519006729126
1618852915.72282,29.16083,14.840820074081421
1618852915.73844,28.29129,14.85644006729126
1618852915.75407,27.60812,14.872070074081421
1618852915.76969,27.13083,14.88769006729126
1618852915.78532,26.73615,14.903320074081421
1618852915.80094,26.18472,14.91894006729126
1618852915.81657,25.14099,14.934570074081421
1618852915.8322,23.28598,14.950200080871582
1618852915.84782,20.41339,14.965820074081421
1618852915.86345,16.5069,14.981450080871582
1618852915.87907,11.73727,14.997070074081421
1618852915.8947,6.448944,15.012700080871582
1618852915.91032,1.009521,15.028320074081421
1618852915.92595,-4.255493,15.043950080871582
1618852915.94158,-9.122742,15.059580087661743
1618852915.9572,-13.53424,15.075200080871582
1618852915.97283,-17.57776,15.090830087661743
1618852915.98845,-21.46439,15.106450080871582
1618852916.00408,-25.47269,15.122080087661743
1618852916.0197,-29.88947,15.137700080871582
1618852916.03533,-34.90726,15.153330087661743
1618852916.05096,-40.52411,15.168960094451904
1618852916.06658,-46.42133,15.184580087661743
1618852916.08221,-51.90311,15.200210094451904
1618852916.09783,-55.91901,15.215830087661743
1618852916.11346,-57.28992,15.231460094451904
1618852916.12908,-55.01309,15.247080087661743
1618852916.14471,-48.6055,15.262710094451904
1618852916.16034,-38.35446,15.278340101242065
1618852916.17596,-25.31326,15.293960094451904
1618852916.19159,-11.02719,15.309590101242065
1618852916.20721,2.915344,15.325210094451904
1618852916.22284,15.23605,15.340840101242065
1618852916.23846,25.2728,15.356460094451904
1618852916.25409,32.89688,15.372090101242065
1618852916.26972,38.29401,15.387720108032227
1618852916.28534,41.69943,15.403340101242065
1618852916.30097,43.2601,15.418970108032227
1618852916.31659,43.03329,15.434590101242065
1618852916.33222,41.17056,15.450220108032227
1618852916.34784,38.03491,15.465840101242065
1618852916.36347,34.20187,15.481470108032227
1618852916.3791,30.33569,15.497100114822388
1618852916.39472,26.97028,15.512720108032227
1618852916.41035,24.34351,15.528350114822388
1618852916.42597,22.37186,15.543970108032227
1618852916.4416,20.81723,15.559600114822388
1618852916.45722,19.45203,15.575220108032227
1618852916.47285,18.19647,15.590850114822388
1618852916.48848,17.16071,15.606480121612549
1618852916.5041,16.47256,15.622100114822388
1618852916.51973,16.13916,15.637730121612549
1618852916.53535,15.96655,15.653350114822388
1618852916.55098,15.56021,15.668980121612549
1618852916.5666,14.48517,15.684600114822388
1618852916.58223,12.44662,15.700230121612549
1618852916.59786,9.386475,15.71586012840271
1618852916.61348,5.487061,15.731480121612549
1618852916.62911,1.122223,15.74711012840271
1618852916.64473,-3.326538,15.762730121612549
1618852916.66036,-7.551239,15.77836012840271
1618852916.67598,-11.3858,15.793980121612549
1618852916.69161,-14.87234,15.80961012840271
1618852916.70724,-18.16541,15.825240135192871
1618852916.72286,-21.54041,15.84086012840271
1618852916.73849,-25.3158,15.856490135192871
1618852916.75411,-29.75699,15.87211012840271
1618852916.76974,-34.99121,15.887740135192871
1618852916.78536,-40.86267,15.90336012840271
1618852916.80099,-46.87845,15.918990135192871
1618852916.81662,-52.20871,15.934620141983032
1618852916.83224,-55.75336,15.950240135192871
1618852916.84787,-56.39059,15.965870141983032
1618852916.86349,-53.27652,15.981490135192871
1618852916.87912,-46.12341,15.997120141983032
1618852916.89474,-35.33557,16.01274013519287
1618852916.91037,-21.97687,16.028370141983032
1618852916.926,-7.493896,16.044000148773193
1618852916.94162,6.619598,16.059620141983032
1618852916.95725,19.11539,16.075250148773193
1618852916.97287,29.17621,16.090870141983032
1618852916.9885,36.47763,16.106500148773193
1618852917.00412,41.04419,16.122120141983032
1618852917.01975,43.18295,16.137750148773193
1618852917.03538,43.34821,16.153379917144775
1618852917.051,42.01245,16.169000148773193
1618852917.06663,39.58606,16.184629917144775
1618852917.08225,36.39993,16.200250148773193
1618852917.09788,32.66602,16.215879917144775
1618852917.1135,28.5416,16.231500148773193
1618852917.12913,24.19873,16.247129917144775
1618852917.14476,19.85086,16.262759923934937
1618852917.16038,15.77646,16.278379917144775
1618852917.17601,12.2807,16.294009923934937
1618852917.19163,9.579742,16.309629917144775
1618852917.20726,7.755127,16.325259923934937
1618852917.22288,6.751221,16.340879917144775
1618852917.23851,6.313873,16.356509923934937
1618852917.25414,6.070557,16.372139930725098
1618852917.26976,5.611053,16.387759923934937
1618852917.28539,4.534119,16.403389930725098
1618852917.30101,2.609406,16.419009923934937
1618852917.31664,-0.1997375,16.434639930725098
1618852917.33226,-3.673828,16.450259923934937
1618852917.34789,-7.526855,16.465889930725098
1618852917.36352,-11.45599,16.48151993751526
1618852917.37914,-15.2851,16.497139930725098
1618852917.39477,-19.01004,16.51276993751526
1618852917.41039,-22.74203,16.528389930725098
1618852917.42602,-26.65005,16.54401993751526
1618852917.44164,-30.91891,16.559639930725098
1618852917.45727,-35.66052,16.57526993751526
1618852917.4729,-40.81281,16.59089994430542
1618852917.48852,-45.99512,16.60651993751526
1618852917.50415,-50.43973,16.62214994430542
1618852917.51977,-53.06519,16.63776993751526
1618852917.5354,-52.7151,16.65339994430542
1618852917.55102,-48.5215,16.66901993751526
1618852917.56665,-40.29456,16.68464994430542
1618852917.58228,-28.61023,16.70027995109558
1618852917.5979,-14.71107,16.71589994430542
1618852917.61353,-0.1378632,16.73152995109558
1618852917.62915,13.65977,16.74714994430542
1618852917.64478,25.6105,16.76277995109558
1618852917.6604,35.1188,16.77839994430542
1618852917.67603,41.95461,16.79402995109558
1618852917.69166,46.16144,16.809659957885742
1618852917.70728,47.95621,16.82527995109558
1618852917.72291,47.72699,16.840909957885742
1618852917.73853,45.93948,16.85652995109558
1618852917.75416,43.09329,16.872159957885742
1618852917.76978,39.66623,16.88777995109558
1618852917.78541,35.99678,16.903409957885742
1618852917.80104,32.28336,16.919039964675903
1618852917.81666,28.6449,16.934659957885742
1618852917.83229,25.11888,16.950289964675903
1618852917.84791,21.76018,16.965909957885742
1618852917.86354,18.6176,16.981539964675903
1618852917.87916,15.77034,16.997159957885742
1618852917.89479,13.28468,17.012789964675903
1618852917.91042,11.19202,17.028419971466064
1618852917.92604,9.462616,17.044039964675903
1618852917.94167,7.950134,17.059669971466064
1618852917.95729,6.443436,17.075289964675903
1618852917.97292,4.624664,17.090919971466064
1618852917.98854,2.202423,17.106539964675903
1618852918.00417,-1.009354,17.122169971466064
1618852918.0198,-5.040421,17.137799978256226
1618852918.03542,-9.724167,17.153419971466064
1618852918.05105,-14.75305,17.169049978256226
1618852918.06667,-19.76057,17.184669971466064
1618852918.0823,-24.43701,17.200299978256226
1618852918.09792,-28.60323,17.215919971466064
1618852918.11355,-32.31192,17.231549978256226
1618852918.12918,-35.8477,17.247179985046387
1618852918.1448,-39.67149,17.262799978256226
1618852918.16043,-44.20618,17.278429985046387
1618852918.17605,-49.63289,17.294049978256226
1618852918.19168,-55.62775,17.309679985046387
1618852918.2073,-61.25539,17.325299978256226
1618852918.22293,-65.14407,17.340929985046387
1618852918.23856,-65.79916,17.356559991836548
1618852918.25418,-62.15012,17.372179985046387
1618852918.26981,-53.89043,17.387809991836548
1618852918.28543,-41.65889,17.403429985046387
1618852918.30106,-26.88052,17.419059991836548
1618852918.31668,-11.34703,17.434679985046387
1618852918.33231,3.246521,17.450309991836548
1618852918.34794,15.70564,17.46593999862671
1618852918.36356,25.42996,17.481559991836548
1618852918.37919,32.38217,17.49718999862671
1618852918.39481,36.84955,17.512809991836548
1618852918.41044,39.21262,17.52843999862671
1618852918.42607,39.84615,17.54407000541687
1618852918.44169,39.04259,17.55968999862671
1618852918.45732,37.12784,17.57532000541687
1618852918.47294,34.45258,17.59093999862671
1618852918.48857,31.42975,17.60657000541687
1618852918.50419,28.4129,17.62218999862671
1618852918.51982,25.59216,17.63782000541687
1618852918.53545,22.94379,17.65345001220703
1618852918.55107,20.32393,17.66907000541687
1618852918.5667,17.61652,17.68470001220703
1618852918.58232,14.90331,17.70032000541687
1618852918.59795,12.46768,17.71595001220703
1618852918.61357,10.65849,17.73157000541687
1618852918.6292,9.667694,17.74720001220703
1618852918.64483,9.333237,17.762830018997192
1618852918.66045,9.161011,17.77845001220703
1618852918.67608,8.552887,17.794080018997192
1618852918.6917,7.03833,17.80970001220703
1618852918.70733,4.525742,17.825330018997192
1618852918.72295,1.284821,17.84095001220703
1618852918.73858,-2.223022,17.856580018997192
1618852918.75421,-5.618515,17.872210025787354
1618852918.76983,-8.779175,17.887830018997192
1618852918.78546,-11.83804,17.903460025787354
1618852918.80108,-15.07857,17.919080018997192
1618852918.81671,-18.78381,17.934710025787354
1618852918.83233,-23.17084,17.950330018997192
1618852918.84796,-28.32503,17.965960025787354
1618852918.86359,-34.22107,17.981590032577515
1618852918.87921,-40.62207,17.997210025787354
1618852918.89484,-46.99187,18.012840032577515
1618852918.91046,-52.43553,18.028460025787354
1618852918.92609,-55.79599,18.044090032577515
1618852918.94171,-55.90871,18.059710025787354
1618852918.95734,-51.92764,18.075340032577515
1618852918.97297,-43.715,18.090970039367676
1618852918.98859,-31.92459,18.106590032577515
1618852919.00422,-17.89105,18.122220039367676
1618852919.01984,-3.25528,18.137840032577515
1618852919.03547,10.40323,18.153470039367676
1618852919.05109,21.97121,18.169090032577515
1618852919.06672,30.90108,18.184720039367676
1618852919.08235,37.17458,18.200350046157837
1618852919.09797,41.11256,18.215970039367676
1618852919.1136,43.10252,18.231600046157837
1618852919.12922,43.48291,18.247220039367676
1618852919.14485,42.46945,18.262850046157837
1618852919.16047,40.25925,18.278470039367676
1618852919.1761,37.11263,18.294100046157837
1618852919.19173,33.40718,18.309730052947998
1618852919.20735,29.54898,18.325350046157837
1618852919.22298,25.90768,18.340980052947998
1618852919.2386,22.71916,18.356600046157837
1618852919.25423,20.03416,18.372230052947998
1618852919.26985,17.79369,18.387850046157837
1618852919.28548,15.90704,18.403480052947998
1618852919.30111,14.33302,18.41911005973816
1618852919.31673,13.07895,18.434730052947998
1618852919.33236,12.15768,18.45036005973816
1618852919.34798,11.48666,18.465980052947998
1618852919.36361,10.83951,18.48161005973816
1618852919.37923,9.856842,18.497230052947998
1618852919.39486,8.133774,18.51286005973816
1618852919.41049,5.362762,18.52849006652832
1618852919.42611,1.427994,18.54411005973816
1618852919.44174,-3.493469,18.55974006652832
1618852919.45736,-8.949615,18.57536005973816
1618852919.47299,-14.35338,18.59099006652832
1618852919.48861,-19.22171,18.60661005973816
1618852919.50424,-23.34621,18.62224006652832
1618852919.51987,-26.93335,18.63787007331848
1618852919.53549,-30.50519,18.65349006652832
1618852919.55112,-34.68788,18.66912007331848
1618852919.56674,-39.95432,18.68474006652832
1618852919.58237,-46.4209,18.70037007331848
1618852919.59799,-53.75148,18.71599006652832
1618852919.61362,-61.18066,18.73162007331848
1618852919.62925,-67.59679,18.747250080108643
1618852919.64487,-71.73206,18.76287007331848
1618852919.6605,-72.46646,18.778500080108643
1618852919.67612,-69.05135,18.79412007331848
1618852919.69175,-61.3589,18.809750080108643
1618852919.70737,-49.96115,18.82537007331848
1618852919.723,-36.0515,18.841000080108643
1618852919.73863,-21.16103,18.856630086898804
1618852919.75425,-6.858093,18.872250080108643
1618852919.76988,5.575684,18.887880086898804
1618852919.7855,15.28087,18.903500080108643
1618852919.80113,21.91798,18.919130086898804
1618852919.81675,25.57974,18.934750080108643
1618852919.83238,26.78517,18.950380086898804
1618852919.84801,26.35744,18.966010093688965
1618852919.86363,25.25543,18.981630086898804
1618852919.87926,24.35692,18.997260093688965
1618852919.89488,24.18831,19.012880086898804
1618852919.91051,24.87254,19.028510093688965
1618852919.92613,26.13248,19.044130086898804
1618852919.94176,27.54152,19.059760093688965
1618852919.95739,28.74168,19.075390100479126
1618852919.97301,29.54453,19.091010093688965
1618852919.98864,29.95361,19.106640100479126
1618852920.00426,29.99783,19.122260093688965
1618852920.01989,29.6497,19.137890100479126
1618852920.03551,28.76167,19.153510093688965
1618852920.05114,27.16716,19.169140100479126
1618852920.06677,24.74739,19.184770107269287
1618852920.08239,21.51074,19.200390100479126
1618852920.09802,17.61203,19.216020107269287
1618852920.11364,13.26965,19.231640100479126
1618852920.12927,8.710648,19.247270107269287
1618852920.14489,4.137299,19.262890100479126
1618852920.16052,-0.333252,19.278520107269287
1618852920.17615,-4.645554,19.29415011405945
1618852920.19177,-8.822708,19.309770107269287
1618852920.2074,-12.97577,19.32540011405945
1618852920.22302,-17.27077,19.341020107269287
1618852920.23865,-21.91243,19.35665011405945
1618852920.25427,-27.02013,19.372270107269287
1618852920.2699,-32.47066,19.38790011405945
1618852920.28553,-37.78783,19.40353012084961
1618852920.30115,-42.08922,19.41915011405945
1618852920.31678,-44.27551,19.43478012084961
1618852920.3324,-43.34045,19.45040011405945
1618852920.34803,-38.70691,19.46603012084961
1618852920.36365,-30.47342,19.48165011405945
1618852920.37928,-19.44479,19.49728012084961
1618852920.39491,-6.890121,19.51291012763977
1618852920.41053,5.835007,19.52853012084961
1618852920.42616,17.61131,19.54416012763977
1618852920.44178,27.74493,19.55978012084961
1618852920.45741,35.873,19.57541012763977
1618852920.47303,41.86627,19.59103012084961
1618852920.48866,45.69112,19.60666012763977
1618852920.50429,47.345,19.62229013442993
1618852920.51991,46.94284,19.63791012763977
1618852920.53554,44.75313,19.65354013442993
1618852920.55116,41.26157,19.66916012763977
1618852920.56679,37.09933,19.68479013442993
1618852920.58242,32.86481,19.700420141220093
1618852920.59804,29.00047,19.71604013442993
1618852920.61367,25.68405,19.731670141220093
1618852920.62929,22.82733,19.74729013442993
1618852920.64492,20.17728,19.762920141220093
1618852920.66054,17.48824,19.77854013442993
1618852920.67617,14.61987,19.794170141220093
1618852920.6918,11.60809,19.809800148010254
1618852920.70742,8.585464,19.825420141220093
1618852920.72305,5.724762,19.841050148010254
1618852920.73867,3.102921,19.856670141220093
1618852920.7543,0.6798096,19.872300148010254
1618852920.76992,-1.653259,19.887920141220093
1618852920.78555,-4.033997,19.903550148010254
1618852920.80118,-6.514175,19.919179916381836
1618852920.8168,-9.051376,19.934800148010254
1618852920.83243,-11.54776,19.950429916381836
1618852920.84805,-13.8846,19.966050148010254
1618852920.86368,-15.9859,19.981679916381836
1618852920.8793,-17.84296,19.997300148010254
1618852920.89493,-19.5743,20.012929916381836
1618852920.91056,-21.43797,20.028559923171997
1618852920.92618,-23.83577,20.044179916381836
1618852920.94181,-27.21848,20.059809923171997
1618852920.95743,-31.90752,20.075429916381836
1618852920.97306,-37.88565,20.091059923171997
1618852920.98868,-44.63028,20.106679916381836
1618852921.00431,-51.12357,20.122309923171997
1618852921.01994,-56.01566,20.137939929962158
1618852921.03556,-58.00131,20.153559923171997
1618852921.05119,-56.12859,20.169189929962158
1618852921.06681,-50.13295,20.184809923171997
1618852921.08244,-40.48212,20.200439929962158
1618852921.09806,-28.24704,20.216059923171997
1618852921.11369,-14.798,20.231689929962158
1618852921.12932,-1.467194,20.24731993675232
1618852921.14494,10.70145,20.262939929962158
1618852921.16057,21.09009,20.27856993675232
1618852921.17619,29.40634,20.294189929962158
1618852921.19182,35.58136,20.30981993675232
1618852921.20744,39.60797,20.325439929962158
1618852921.22307,41.54388,20.34106993675232
1618852921.2387,41.53403,20.35669994354248
1618852921.25432,39.91611,20.37231993675232
1618852921.26995,37.23618,20.38794994354248
1618852921.28557,34.20898,20.40356993675232
1618852921.3012,31.45987,20.41919994354248
1618852921.31682,29.35153,20.43481993675232
1618852921.33245,27.88248,20.45044994354248
1618852921.34808,26.78952,20.46607995033264
1618852921.3637,25.75647,20.48169994354248
1618852921.37933,24.63226,20.49732995033264
1618852921.39495,23.50793,20.51294994354248
1618852921.41058,22.64102,20.52857995033264
1618852921.4262,22.20758,20.54419994354248
1618852921.44183,22.0921,20.55982995033264
1618852921.45746,21.83954,20.575459957122803
1618852921.47308,20.76129,20.59107995033264
1618852921.48871,18.1817,20.606709957122803
1618852921.50433,13.72665,20.62232995033264
1618852921.51996,7.463593,20.637959957122803
1618852921.53558,-0.181427,20.65357995033264
1618852921.55121,-8.540985,20.669209957122803
1618852921.56684,-17.01703,20.684839963912964
1618852921.58246,-25.23059,20.700459957122803
1618852921.59809,-33.12082,20.716089963912964
1618852921.61371,-40.8837,20.731709957122803
1618852921.62934,-48.82861,20.747339963912964
1618852921.64496,-57.24677,20.762959957122803
1618852921.66059,-66.18372,20.778589963912964
1618852921.67622,-75.30261,20.794219970703125
1618852921.69184,-83.81229,20.809839963912964
1618852921.70747,-90.52466,20.825469970703125
1618852921.72309,-94.05722,20.841089963912964
1618852921.73872,-93.16296,20.856719970703125
1618852921.75434,-87.12952,20.872339963912964
1618852921.76997,-76.03943,20.887969970703125
1618852921.7856,-60.81741,20.903599977493286
1618852921.80122,-43.01047,20.919219970703125
1618852921.81685,-24.35303,20.934849977493286
1618852921.83247,-6.388702,20.950469970703125
1618852921.8481,9.834534,20.966099977493286
1618852921.86372,23.79709,20.981719970703125
1618852921.87935,35.35654,20.997349977493286
1618852921.89498,44.47952,21.012979984283447
1618852921.9106,51.17764,21.028599977493286
1618852921.92623,55.46384,21.044229984283447
1618852921.94185,57.46594,21.059849977493286
1618852921.95748,57.50153,21.075479984283447
1618852921.9731,56.0741,21.091099977493286
1618852921.98873,53.79309,21.106729984283447
1618852922.00436,51.23932,21.12235999107361
1618852922.01998,48.8598,21.137979984283447
1618852922.03561,46.86472,21.15360999107361
1618852922.05123,45.32721,21.169229984283447
1618852922.06686,44.17093,21.18485999107361
1618852922.08248,43.28265,21.200479984283447
1618852922.09811,42.49661,21.21610999107361
1618852922.11374,41.54224,21.23173999786377
1618852922.12936,40.06683,21.24735999107361
1618852922.14499,37.61487,21.26298999786377
1618852922.16061,33.75977,21.27860999107361
1618852922.17624,28.23422,21.29423999786377
1618852922.19186,21.09329,21.30985999107361
1618852922.20749,12.72763,21.32548999786377
1618852922.22312,3.854767,21.34112000465393
1618852922.23874,-4.664673,21.35673999786377
1618852922.25437,-12.01608,21.37237000465393
1618852922.26999,-17.48895,21.38798999786377
1618852922.28562,-20.62396,21.40362000465393
1618852922.30124,-21.22916,21.41923999786377
1618852922.31687,-19.37064,21.43487000465393
1618852922.3325,-15.37311,21.450500011444092
1618852922.34812,-9.909088,21.46612000465393
1618852922.36375,-3.92749,21.481750011444092
1618852922.37937,1.419617,21.49737000465393
1618852922.395,5.107788,21.513000011444092
1618852922.41062,6.641632,21.52862000465393
1618852922.42625,6.268158,21.544250011444092
1618852922.44188,5.03595,21.559880018234253
1618852922.4575,4.42746,21.575500011444092
1618852922.47313,5.772186,21.591130018234253
1618852922.48875,9.63269,21.606750011444092
1618852922.50438,15.51859,21.622380018234253
1618852922.52,22.15961,21.638000011444092
1618852922.53563,28.05554,21.653630018234253
1618852922.55126,32.15164,21.669260025024414
1618852922.56688,34.22144,21.684880018234253
1618852922.58251,34.75037,21.700510025024414
1618852922.59813,34.49347,21.716130018234253
1618852922.61376,33.93945,21.731760025024414
1618852922.62938,33.08438,21.747380018234253
1618852922.64501,31.5748,21.763010025024414
1618852922.66064,29.0766,21.778640031814575
1618852922.67626,25.62289,21.794260025024414
1618852922.69189,21.70691,21.809890031814575
1618852922.70751,18.00934,21.825510025024414
1618852922.72314,15.09705,21.841140031814575
1618852922.73876,13.12949,21.856760025024414
1618852922.75439,11.86316,21.872390031814575
1618852922.77002,10.88995,21.888020038604736
1618852922.78564,9.925995,21.903640031814575
1618852922.80127,9.001373,21.919270038604736
1618852922.81689,8.360565,21.934890031814575
1618852922.83252,8.291718,21.950520038604736
1618852922.84815,8.91925,21.966150045394897
1618852922.86377,10.1337,21.981770038604736
1618852922.8794,11.6423,21.997400045394897
1618852922.89502,13.07336,22.013020038604736
1618852922.91065,14.11594,22.028650045394897
1618852922.92627,14.48367,22.044270038604736
1618852922.9419,13.8952,22.059900045394897
1618852922.95753,12.04568,22.07553005218506
1618852922.97315,8.732101,22.091150045394897
1618852922.98878,3.957367,22.10678005218506
1618852923.0044,-2.072235,22.122400045394897
1618852923.02003,-9.04039,22.13803005218506
1618852923.03565,-16.6449,22.153650045394897
1618852923.05128,-24.65366,22.16928005218506
1618852923.06691,-32.87114,22.18491005897522
1618852923.08253,-40.91403,22.20053005218506
1618852923.09816,-48.15131,22.21616005897522
1618852923.11378,-53.77063,22.23178005218506
1618852923.12941,-57.0564,22.24741005897522
1618852923.14503,-57.67426,22.26303005218506
1618852923.16066,-55.80136,22.27866005897522
1618852923.17629,-52.04169,22.29429006576538
1618852923.19191,-47.1167,22.30991005897522
1618852923.20754,-41.55194,22.32554006576538
1618852923.22316,-35.54385,22.34116005897522
1618852923.23879,-29.04471,22.35679006576538
1618852923.25441,-21.98953,22.37241005897522
1618852923.27004,-14.47153,22.38804006576538
1618852923.28567,-6.859436,22.403670072555542
1618852923.30129,0.2918549,22.41929006576538
1618852923.31692,6.40918,22.434920072555542
1618852923.33254,11.07245,22.45054006576538
1618852923.34817,14.10448,22.466170072555542
1618852923.36379,15.62338,22.48179006576538
1618852923.37942,15.99089,22.497420072555542
1618852923.39505,15.67444,22.513050079345703
1618852923.41067,15.07655,22.528670072555542
1618852923.4263,14.42699,22.544300079345703
1618852923.44192,13.74368,22.559920072555542
1618852923.45755,12.86104,22.575550079345703
1618852923.47317,11.59798,22.591170072555542
1618852923.4888,9.86853,22.606800079345703
1618852923.50443,7.75679,22.622430086135864
1618852923.52005,5.521942,22.638050079345703
1618852923.53568,3.44017,22.653680086135864
1618852923.5513,1.722641,22.669300079345703
1618852923.56693,0.4144592,22.684930086135864
1618852923.58255,-0.6255341,22.700550079345703
1618852923.59818,-1.642441,22.716180086135864
1618852923.61381,-2.903473,22.731810092926025
1618852923.62943,-4.606155,22.747430086135864
1618852923.64506,-6.881836,22.763060092926025
1618852923.66068,-9.819687,22.778680086135864
1618852923.67631,-13.47083,22.794310092926025
1618852923.69193,-17.81541,22.809930086135864
1618852923.70756,-22.66208,22.825560092926025
1618852923.72319,-27.55714,22.841190099716187
1618852923.73881,-31.75562,22.856810092926025
1618852923.75444,-34.39719,22.872440099716187
1618852923.77006,-34.67366,22.888060092926025
1618852923.78569,-32.11588,22.903690099716187
1618852923.80131,-26.72888,22.919310092926025
1618852923.81694,-18.99931,22.934940099716187
1618852923.83257,-9.767212,22.950570106506348
1618852923.84819,-0.03999329,22.966190099716187
1618852923.86382,9.180328,22.981820106506348
1618852923.87944,17.04948,22.997440099716187
1618852923.89507,22.98912,23.013070106506348
1618852923.91069,26.73462,23.028690099716187
1618852923.92632,28.34988,23.044320106506348
1618852923.94195,28.18556,23.05995011329651
1618852923.95757,26.79341,23.075570106506348
1618852923.9732,24.75426,23.09120011329651
1618852923.98882,22.5912,23.106820106506348
1618852924.00445,20.64322,23.12245011329651
1618852924.02007,19.09088,23.138070106506348
1618852924.0357,17.9075,23.15370011329651
1618852924.05133,16.90866,23.16933012008667
1618852924.06695,15.84682,23.18495011329651
1618852924.08258,14.52837,23.20058012008667
1618852924.0982,12.91679,23.21620011329651
1618852924.11383,11.17595,23.23183012008667
1618852924.12945,9.597351,23.24745011329651
1618852924.14508,8.426102,23.26308012008667
1618852924.16071,7.66153,23.27871012687683
1618852924.17633,7.026657,23.29433012008667
1618852924.19196,6.042465,23.30996012687683
1618852924.20758,4.274292,23.32558012008667
1618852924.22321,1.541046,23.34121012687683
1618852924.23883,-2.001251,23.35683012008667
1618852924.25446,-5.939682,23.37246012687683
1618852924.27009,-9.861328,23.388090133666992
1618852924.28571,-13.55316,23.40371012687683
1618852924.30134,-17.05966,23.419340133666992
1618852924.31696,-20.65167,23.43496012687683
1618852924.33259,-24.64009,23.450590133666992
1618852924.34821,-29.26172,23.46621012687683
1618852924.36384,-34.52527,23.481840133666992
1618852924.37947,-40.18491,23.497470140457153
1618852924.39509,-45.70041,23.513090133666992
1618852924.41072,-50.2489,23.528720140457153
1618852924.42634,-52.80424,23.544340133666992
1618852924.44197,-52.39597,23.559970140457153
1618852924.45759,-48.39767,23.575590133666992
1618852924.47322,-40.77153,23.591220140457153
1618852924.48885,-30.17122,23.606850147247314
1618852924.50447,-17.76683,23.622470140457153
1618852924.5201,-4.924347,23.638100147247314
1618852924.53572,7.185196,23.653720140457153
1618852924.55135,17.75453,23.669350147247314
1618852924.56697,26.35538,23.684970140457153
1618852924.5826,32.79539,23.700600147247314
1618852924.59823,36.99281,23.716229915618896
1618852924.61385,38.96669,23.731850147247314
1618852924.62948,38.9028,23.747479915618896
1618852924.6451,37.21196,23.763100147247314
1618852924.66073,34.48506,23.778729915618896
1618852924.67635,31.35597,23.794350147247314
1618852924.69198,28.32761,23.809979915618896
1618852924.70761,25.64923,23.825609922409058
1618852924.72323,23.35262,23.841229915618896
1618852924.73886,21.29958,23.856859922409058
1618852924.75448,19.3403,23.872479915618896
1618852924.77011,17.41191,23.888109922409058
1618852924.78573,15.49655,23.903729915618896
1618852924.80136,13.59216,23.919359922409058
1618852924.81699,11.62947,23.93498992919922
1618852924.83261,9.494217,23.950609922409058
1618852924.84824,7.052063,23.96623992919922
1618852924.86386,4.247314,23.981859922409058
1618852924.87949,1.129913,23.99748992919922
1618852924.89511,-2.188858,24.013109922409058
1618852924.91074,-5.624908,24.02873992919922
1618852924.92637,-9.2379,24.04436993598938
1618852924.94199,-13.17448,24.05998992919922
1618852924.95762,-17.59377,24.07561993598938
1618852924.97324,-22.57205,24.09123992919922
1618852924.98887,-28.03561,24.10686993598938
1618852925.00449,-33.7885,24.12248992919922
1618852925.02012,-39.63649,24.13811993598938
1618852925.03575,-45.4086,24.15374994277954
1618852925.05137,-50.97757,24.16936993598938
1618852925.067,-56.11792,24.18499994277954
1618852925.08262,-60.3681,24.20061993598938
1618852925.09825,-63.05078,24.21624994277954
1618852925.11387,-63.34297,24.23186993598938
1618852925.1295,-60.58368,24.24749994277954
1618852925.14513,-54.48593,24.263129949569702
1618852925.16075,-45.2504,24.27874994277954
1618852925.17638,-33.50851,24.294379949569702
1618852925.192,-20.13753,24.30999994277954
1618852925.20763,-6.136398,24.325629949569702
1618852925.22325,7.556839,24.34124994277954
1618852925.23888,20.06557,24.356879949569702
1618852925.25451,30.65202,24.372509956359863
1618852925.27013,38.78366,24.388129949569702
1618852925.28576,44.24219,24.403759956359863
1618852925.30138,47.17419,24.419379949569702
1618852925.31701,48.01393,24.435009956359863
1618852925.33263,47.32999,24.450629949569702
1618852925.34826,45.6595,24.466259956359863
1618852925.36389,43.4379,24.481889963150024
1618852925.37951,40.95854,24.497509956359863
1618852925.39514,38.51492,24.513139963150024
1618852925.41076,36.39006,24.528759956359863
1618852925.42639,34.78408,24.544389963150024
1618852925.44202,33.74554,24.560019969940186
1618852925.45764,33.06858,24.575639963150024
1618852925.47327,32.36962,24.591269969940186
1618852925.48889,31.25122,24.606889963150024
1618852925.50452,29.55403,24.622519969940186
1618852925.52014,27.41753,24.638139963150024
1618852925.53577,25.21474,24.653769969940186
1618852925.5514,23.29042,24.669399976730347
1618852925.56702,21.71603,24.685019969940186
1618852925.58265,20.19995,24.700649976730347
1618852925.59827,18.24481,24.716269969940186
1618852925.6139,15.38854,24.731899976730347
1618852925.62952,11.45968,24.747519969940186
1618852925.64515,6.651466,24.763149976730347
1618852925.66078,1.413956,24.778779983520508
1618852925.6764,-3.781349,24.794399976730347
1618852925.69203,-8.589386,24.810029983520508
1618852925.70765,-12.936,24.825649976730347
1618852925.72328,-16.97516,24.841279983520508
1618852925.7389,-21.04906,24.856899976730347
1618852925.75453,-25.56077,24.872529983520508
1618852925.77016,-30.91417,24.88815999031067
1618852925.78578,-37.33253,24.903779983520508
1618852925.80141,-44.73921,24.91940999031067
1618852925.81703,-52.55186,24.935029983520508
1618852925.83266,-59.62531,24.95065999031067
1618852925.84828,-64.48299,24.966279983520508
1618852925.86391,-65.68914,24.98190999031067
1618852925.87954,-62.33215,24.99753999710083
1618852925.89516,-54.39779,25.01315999031067
1618852925.91079,-42.77899,25.02878999710083
1618852925.92641,-28.98897,25.04440999031067
1618852925.94204,-14.68668,25.06003999710083
1618852925.95766,-1.219643,25.07565999031067
1618852925.97329,10.62711,25.09128999710083
1618852925.98892,20.56602,25.10692000389099
1618852926.00454,28.64534,25.12253999710083
1618852926.02017,35.01396,25.13817000389099
1618852926.03579,39.79065,25.15378999710083
1618852926.05142,43.07095,25.16942000389099
1618852926.06704,44.8991,25.18503999710083
1618852926.08267,45.35037,25.20067000389099
1618852926.0983,44.55348,25.216300010681152
1618852926.11392,42.72836,25.23192000389099
1618852926.12955,40.19928,25.247550010681152
1618852926.14517,37.40382,25.26317000389099
1618852926.1608,34.78811,25.278800010681152
1618852926.17642,32.69302,25.29442000389099
1618852926.19205,31.21273,25.310050010681152
1618852926.20768,30.161,25.325680017471313
1618852926.2233,29.16727,25.341300010681152
1618852926.23893,27.89034,25.356930017471313
1618852926.25455,26.15531,25.372550010681152
1618852926.27018,23.97095,25.388180017471313
1618852926.2858,21.45354,25.403800010681152
1618852926.30143,18.63974,25.419430017471313
1618852926.31706,15.43709,25.435060024261475
1618852926.33268,11.68303,25.450680017471313
1618852926.34831,7.289772,25.466310024261475
1618852926.36393,2.355942,25.481930017471313
1618852926.37956,-2.859032,25.497560024261475
1618852926.39518,-8.056519,25.513180017471313
1618852926.41081,-13.02986,25.528810024261475
1618852926.42644,-17.72981,25.544440031051636
1618852926.44206,-22.21464,25.560060024261475
1618852926.45769,-26.55665,25.575690031051636
1618852926.47331,-30.7917,25.591310024261475
1618852926.48894,-34.95034,25.606940031051636
1618852926.50456,-39.11595,25.622560024261475
1618852926.52019,-43.45002,25.638190031051636
1618852926.53582,-48.08816,25.653820037841797
1618852926.55144,-52.94638,25.669440031051636
1618852926.56707,-57.57606,25.685070037841797
1618852926.58269,-61.21304,25.700690031051636
1618852926.59832,-62.91936,25.716320037841797
1618852926.61394,-61.86669,25.731940031051636
1618852926.62957,-57.57952,25.747570037841797
1618852926.6452,-50.05462,25.763200044631958
1618852926.66082,-39.76551,25.778820037841797
1618852926.67645,-27.48175,25.794450044631958
1618852926.69207,-14.14027,25.810070037841797
1618852926.7077,-0.7064285,25.825700044631958
1618852926.72332,11.93436,25.841320037841797
1618852926.73895,23.07624,25.856950044631958
1618852926.75458,32.24852,25.87258005142212
1618852926.7702,39.2644,25.888200044631958
1618852926.78583,44.20817,25.90383005142212
1618852926.80145,47.34058,25.919450044631958
1618852926.81708,48.96824,25.93508005142212
1618852926.8327,49.34749,25.950700044631958
1618852926.84833,48.62229,25.96633005142212
1618852926.86396,46.88503,25.98196005821228
1618852926.87958,44.25736,25.99758005142212
1618852926.89521,40.96998,26.01321005821228
1618852926.91083,37.38585,26.02883005142212
1618852926.92646,33.92721,26.04446005821228
1618852926.94208,30.99747,26.06008005142212
1618852926.95771,28.89065,26.07571005821228
1618852926.97334,27.6839,26.09134006500244
1618852926.98896,27.2867,26.10696005821228
1618852927.00459,27.40685,26.12259006500244
1618852927.02021,27.59502,26.13821005821228
1618852927.03584,27.26306,26.15384006500244
1618852927.05146,25.75969,26.16946005821228
1618852927.06709,22.53761,26.18509006500244
1618852927.08272,17.27282,26.200720071792603
1618852927.09834,10.10028,26.21634006500244
1618852927.11397,1.63114,26.231970071792603
1618852927.12959,-7.05348,26.24759006500244
1618852927.14522,-14.71105,26.263220071792603
1618852927.16084,-20.32197,26.27884006500244
1618852927.17647,-23.45701,26.294470071792603
1618852927.1921,-24.47008,26.310100078582764
1618852927.20772,-24.36324,26.325720071792603
1618852927.22335,-24.42186,26.341350078582764
1618852927.23897,-25.66861,26.356970071792603
1618852927.2546,-28.53969,26.372600078582764
1618852927.27022,-32.7476,26.388220071792603
1618852927.28585,-37.51343,26.403850078582764
1618852927.30148,-41.90511,26.419480085372925
1618852927.3171,-45.15547,26.435100078582764
1618852927.33273,-46.79166,26.450730085372925
1618852927.34835,-46.59566,26.466350078582764
1618852927.36398,-44.50164,26.481980085372925
1618852927.3796,-40.45533,26.497600078582764
1618852927.39523,-34.55005,26.513230085372925
1618852927.41086,-27.10999,26.528860092163086
1618852927.42648,-18.74026,26.544480085372925
1618852927.44211,-10.27915,26.560110092163086
1618852927.45773,-2.577147,26.575730085372925
1618852927.47336,3.701221,26.591360092163086
1618852927.48898,8.274384,26.606980085372925
1618852927.50461,11.26182,26.622610092163086
1618852927.52024,13.08302,26.638240098953247
1618852927.53586,14.2926,26.653860092163086
1618852927.55149,15.33933,26.669490098953247
1618852927.56711,16.49706,26.685110092163086
1618852927.58274,17.79771,26.700740098953247
1618852927.59836,19.15891,26.716360092163086
1618852927.61399,20.42405,26.731990098953247
1618852927.62962,21.53202,26.747620105743408
1618852927.64524,22.48483,26.763240098953247
1618852927.66087,23.36402,26.778870105743408
1618852927.67649,24.30305,26.794490098953247
1618852927.69212,25.39624,26.810120105743408
1618852927.70775,26.66813,26.82575011253357
1618852927.72337,28.07327,26.841370105743408
1618852927.739,29.49591,26.85700011253357
1618852927.75462,30.67682,26.872620105743408
1618852927.77025,31.20862,26.88825011253357
1618852927.78587,30.4784,26.903870105743408
1618852927.8015,27.89754,26.91950011253357
1618852927.81713,23.11349,26.93513011932373
1618852927.83275,16.27294,26.95075011253357
1618852927.84838,8.093967,26.96638011932373
1618852927.864,-0.3264084,26.98200011253357
1618852927.87963,-7.893669,26.99763011932373
1618852927.89525,-13.96467,27.01325011253357
1618852927.91088,-18.54562,27.02888011932373
1618852927.92651,-22.20874,27.04451012611389
1618852927.94213,-25.69755,27.06013011932373
1618852927.95776,-29.54104,27.07576012611389
1618852927.97338,-33.74075,27.09138011932373
1618852927.98901,-37.75164,27.10701012611389
1618852928.00463,-40.65594,27.12263011932373
1618852928.02026,-41.53063,27.13826012611389
1618852928.03589,-39.676,27.153890132904053
1618852928.05151,-34.83926,27.16951012611389
1618852928.06714,-27.23132,27.185140132904053
1618852928.08276,-17.47327,27.20076012611389
1618852928.09839,-6.492645,27.216390132904053
1618852928.11401,4.678177,27.23201012611389
1618852928.12964,15.12434,27.247640132904053
1618852928.14527,24.2218,27.263270139694214
1618852928.16089,31.75302,27.278890132904053
1618852928.17652,37.89803,27.294520139694214
1618852928.19214,43.16514,27.310140132904053
1618852928.20777,48.17041,27.325770139694214
1618852928.22339,53.46329,27.341390132904053
1618852928.23902,59.33047,27.357020139694214
1618852928.25465,65.86482,27.372650146484375
1618852928.27027,73.02074,27.388270139694214
1618852928.2859,80.75688,27.403900146484375
1618852928.30152,89.04774,27.419520139694214
1618852928.31715,97.82135,27.435150146484375
1618852928.33277,106.7274,27.450770139694214
1618852928.3484,115.0273,27.466400146484375
1618852928.36403,121.5881,27.482029914855957
1618852928.37965,125.0743,27.497650146484375
1618852928.39528,124.2445,27.513279914855957
1618852928.4109,118.2577,27.528900146484375
1618852928.42653,106.8882,27.544529914855957
1618852928.44215,90.60297,27.560150146484375
1618852928.45778,70.5144,27.575779914855957
1618852928.47341,48.07063,27.591409921646118
1618852928.48903,24.73883,27.607029914855957
1618852928.50466,1.66507,27.622659921646118
1618852928.52028,-20.47581,27.638279914855957
1618852928.53591,-41.43571,27.653909921646118
1618852928.55153,-61.16689,27.669529914855957
1618852928.56716,-79.59912,27.685159921646118
1618852928.58279,-96.50189,27.70078992843628
1618852928.59841,-111.5923,27.716409921646118
1618852928.61404,-124.6912,27.73203992843628
1618852928.62966,-135.8351,27.747659921646118
1618852928.64529,-145.3037,27.76328992843628
1618852928.66091,-153.3474,27.778909921646118
1618852928.67654,-160.0559,27.79453992843628
1618852928.69217,-165.1946,27.81016993522644
1618852928.70779,-168.2077,27.82578992843628
1618852928.72342,-168.3219,27.84141993522644
1618852928.73904,-164.752,27.85703992843628
1618852928.75467,-156.9142,27.87266993522644
1618852928.77029,-144.6828,27.88828992843628
1618852928.78592,-128.5281,27.90391993522644
1618852928.80155,-109.5499,27.9195499420166
1618852928.81717,-89.30505,27.93516993522644
1618852928.8328,-69.41957,27.9507999420166
1618852928.84842,-51.21165,27.96641993522644
1618852928.86405,-35.44044,27.9820499420166
1618852928.87967,-22.33144,27.99766993522644
1618852928.8953,-11.77544,28.0132999420166
1618852928.91093,-3.65625,28.028929948806763
1618852928.92655,2.06546,28.0445499420166
1618852928.94218,5.416504,28.060179948806763
1618852928.9578,6.562805,28.0757999420166
1618852928.97343,5.966705,28.091429948806763
1618852928.98905,4.278793,28.1070499420166
1618852929.00468,2.180664,28.122679948806763
1618852929.02031,0.1389923,28.138309955596924
1618852929.03593,-1.684036,28.153929948806763
1618852929.05156,-3.296341,28.169559955596924
1618852929.06718,-4.745331,28.185179948806763
1618852929.08281,-5.924667,28.200809955596924
1618852929.09843,-6.539871,28.216429948806763
1618852929.11406,-6.278473,28.232059955596924
1618852929.12969,-4.980392,28.247689962387085
1618852929.14531,-2.843338,28.263309955596924
1618852929.16094,-0.378067,28.278939962387085
1618852929.17656,1.709564,28.294559955596924
1618852929.19219,2.759079,28.310189962387085
1618852929.20781,2.417953,28.325809955596924
1618852929.22344,0.7530365,28.341439962387085
1618852929.23907,-1.767258,28.357069969177246
1618852929.25469,-4.453033,28.372689962387085
1618852929.27032,-6.663849,28.388319969177246
1618852929.28594,-8.105087,28.403939962387085
1618852929.30157,-8.9534,28.419569969177246
1618852929.31719,-9.830368,28.435189962387085
1618852929.33282,-11.4716,28.450819969177246
1618852929.34845,-14.36107,28.466449975967407
1618852929.36407,-18.39572,28.482069969177246
1618852929.3797,-22.79066,28.497699975967407
1618852929.39532,-26.2182,28.513319969177246
1618852929.41095,-27.24638,28.528949975967407
1618852929.42657,-24.73691,28.544569969177246
1618852929.4422,-18.23944,28.560199975967407
1618852929.45783,-8.111618,28.57582998275757
1618852929.47345,4.597198,28.591449975967407
1618852929.48908,18.43015,28.60707998275757
1618852929.5047,31.91975,28.622699975967407
1618852929.52033,43.88429,28.63832998275757
1618852929.53595,53.58144,28.653949975967407
1618852929.55158,60.7197,28.66957998275757
1618852929.56721,65.29671,28.68520998954773
1618852929.58283,67.4774,28.70082998275757
1618852929.59846,67.47749,28.71645998954773
1618852929.61408,65.54202,28.73207998275757
1618852929.62971,61.98877,28.74770998954773
1618852929.64533,57.22849,28.76332998275757
1618852929.66096,51.75842,28.77895998954773
1618852929.67659,46.0589,28.79458999633789
1618852929.69221,40.50708,28.81020998954773
1618852929.70784,35.28259,28.82583999633789
1618852929.72346,30.41331,28.84145998954773
1618852929.73909,25.84552,28.85708999633789
1618852929.75471,21.59222,28.87270998954773
1618852929.77034,17.77115,28.88833999633789
1618852929.78597,14.55163,28.90397000312805
1618852929.80159,12.06002,28.91958999633789
1618852929.81722,10.21478,28.93522000312805
1618852929.83284,8.705971,28.95083999633789
1618852929.84847,7.01757,28.96647000312805
1618852929.86409,4.668472,28.98208999633789
1618852929.87972,1.378326,28.99772000312805
1618852929.89535,-2.746223,29.013350009918213
1618852929.91097,-7.302223,29.02897000312805
1618852929.9266,-11.79015,29.044600009918213
1618852929.94222,-15.84377,29.06022000312805
1618852929.95785,-19.42903,29.075850009918213
1618852929.97347,-22.84835,29.09147000312805
1618852929.9891,-26.5649,29.107100009918213
1618852930.00473,-31.03851,29.122730016708374
1618852930.02035,-36.57478,29.138350009918213
1618852930.03598,-43.21191,29.153980016708374
1618852930.0516,-50.69694,29.169600009918213
1618852930.06723,-58.42966,29.185230016708374
1618852930.08285,-65.4332,29.200850009918213
1618852930.09848,-70.38089,29.216480016708374
1618852930.11411,-71.89675,29.232110023498535
1618852930.12973,-68.92319,29.247730016708374
1618852930.14536,-61.19837,29.263360023498535
1618852930.16098,-49.43259,29.278980016708374
1618852930.17661,-35.20007,29.294610023498535
1618852930.19223,-20.42899,29.310230016708374
1618852930.20786,-6.817574,29.325860023498535
1618852930.22349,4.657768,29.341490030288696
1618852930.23911,13.81264,29.357110023498535
1618852930.25474,21.02423,29.372740030288696
1618852930.27036,26.83363,29.388360023498535
1618852930.28599,31.61988,29.403990030288696
1618852930.30162,35.48132,29.419620037078857
1618852930.31724,38.35354,29.435240030288696
1618852930.33287,40.18952,29.450870037078857
1618852930.34849,41.13862,29.466490030288696
1618852930.36412,41.52505,29.482120037078857
1618852930.37974,41.71221,29.497740030288696
1618852930.39537,41.91846,29.513370037078857
1618852930.411,42.0948,29.52900004386902
1618852930.42662,41.99589,29.544620037078857
1618852930.44225,41.31118,29.56025004386902
1618852930.45787,39.90538,29.575870037078857
1618852930.4735,37.86701,29.59150004386902
1618852930.48912,35.4939,29.607120037078857
1618852930.50475,33.10628,29.62275004386902
1618852930.52038,30.8544,29.63838005065918
1618852930.536,28.6431,29.65400004386902
1618852930.55163,26.18392,29.66963005065918
1618852930.56725,23.16926,29.68525004386902
1618852930.58288,19.46699,29.70088005065918
1618852930.5985,15.20156,29.71650004386902
1618852930.61413,10.7226,29.73213005065918
1618852930.62976,6.49493,29.74776005744934
1618852930.64538,2.857307,29.76338005065918
1618852930.66101,-0.100853,29.77901005744934
1618852930.67663,-2.643639,29.79463005065918
1618852930.69226,-5.345493,29.81026005744934
1618852930.70788,-8.885311,29.82588005065918
1618852930.72351,-13.80313,29.84151005744934
1618852930.73914,-20.15341,29.857140064239502
1618852930.75476,-27.35795,29.87276005744934
1618852930.77039,-34.22564,29.888390064239502
1618852930.78601,-39.25321,29.90401005744934
1618852930.80164,-41.05437,29.919640064239502
1618852930.81726,-38.77375,29.93526005744934
1618852930.83289,-32.30601,29.950890064239502
1618852930.84852,-22.27473,29.966520071029663
1618852930.86414,-9.806,29.982140064239502
1618852930.87977,3.768738,29.997770071029663
1618852930.89539,17.18561,30.013390064239502
1618852930.91102,29.3606,30.029020071029663
1618852930.92664,39.54905,30.044640064239502
1618852930.94227,47.33311,30.060270071029663
1618852930.9579,52.67522,30.075900077819824
1618852930.97352,55.90746,30.091520071029663
1618852930.98915,57.56095,30.107150077819824
1618852931.00477,58.1673,30.122770071029663
1618852931.0204,58.06365,30.138400077819824
1618852931.03602,57.29074,30.154020071029663
1618852931.05165,55.71512,30.169650077819824
1618852931.06728,53.19713,30.185280084609985
1618852931.0829,49.8244,30.200900077819824
1618852931.09853,45.91104,30.216530084609985
1618852931.11415,41.96301,30.232150077819824
1618852931.12978,38.44653,30.247780084609985
1618852931.1454,35.59154,30.263400077819824
1618852931.16103,33.28046,30.279030084609985
1618852931.17666,31.03962,30.294660091400146
1618852931.19228,28.16746,30.310280084609985
1618852931.20791,23.88148,30.325910091400146
1618852931.22353,17.50614,30.341530084609985
1618852931.23916,8.630962,30.357160091400146
1618852931.25478,-2.86689,30.372780084609985
1618852931.27041,-16.86785,30.388410091400146
1618852931.28604,-33.1538,30.404040098190308
1618852931.30166,-51.47141,30.419660091400146
1618852931.31729,-71.57831,30.435290098190308
1618852931.33291,-93.18349,30.450910091400146
1618852931.34854,-115.8439,30.466540098190308
1618852931.36416,-139.0375,30.482160091400146
1618852931.37979,-162.2095,30.497790098190308
1618852931.39542,-184.9237,30.51342010498047
1618852931.41104,-206.7266,30.529040098190308
1618852931.42667,-226.9364,30.54467010498047
1618852931.44229,-244.2728,30.560290098190308
1618852931.45792,-256.9012,30.57592010498047
1618852931.47354,-262.7948,30.591540098190308
1618852931.48917,-260.4464,30.60717010498047
1618852931.5048,-249.5739,30.62280011177063
1618852931.52042,-231.2971,30.63842010498047
1618852931.53605,-207.5754,30.65405011177063
1618852931.55167,-180.2028,30.66967010498047
1618852931.5673,-149.994,30.68530011177063
1618852931.58292,-116.7265,30.70092010498047
1618852931.59855,-79.93317,30.71655011177063
1618852931.61418,-40.10058,30.73218011856079
1618852931.6298,0.4157181,30.74780011177063
1618852931.64543,37.38111,30.76343011856079
1618852931.66105,65.84123,30.77905011177063
1618852931.67668,81.68203,30.79468011856079
1618852931.6923,83.08392,30.81030011177063
1618852931.70793,70.97437,30.82593011856079
1618852931.72356,48.36699,30.841560125350952
1618852931.73918,19.0874,30.85718011856079
1618852931.75481,-13.46198,30.872810125350952
1618852931.77043,-46.74059,30.88843011856079
1618852931.78606,-78.79373,30.904060125350952
1618852931.80168,-107.585,30.91968011856079
1618852931.81731,-130.7288,30.935310125350952
1618852931.83294,-145.8936,30.950940132141113
1618852931.84856,-151.5898,30.966560125350952
1618852931.86419,-147.9106,30.982190132141113
1618852931.87981,-136.5382,30.997810125350952
1618852931.89544,-120.0732,31.013440132141113
1618852931.91106,-100.783,31.029060125350952
1618852931.92669,-79.72058,31.044690132141113
1618852931.94232,-56.27679,31.060320138931274
1618852931.95794,-28.77399,31.075940132141113
1618852931.97357,4.624512,31.091570138931274
1618852931.98919,45.09772,31.107190132141113
1618852932.00482,92.8541,31.122820138931274
1618852932.02044,147.2998,31.138440132141113
1618852932.03607,207.1964,31.154070138931274
1618852932.0517,270.5205,31.169700145721436
1618852932.06732,334.1911,31.185320138931274
1618852932.08295,394.0391,31.200950145721436
1618852932.09857,445.4984,31.216570138931274
1618852932.1142,485.0343,31.232200145721436
1618852932.12982,511.5688,31.247820138931274
1618852932.14545,527.0532,31.263450145721436
1618852932.16108,535.73,31.279079914093018
1618852932.1767,542.1525,31.294700145721436
1618852932.19233,548.9534,31.310329914093018
1618852932.20795,555.5022,31.325950145721436
1618852932.22358,558.1984,31.341579914093018
1618852932.2392,552.2679,31.357200145721436
1618852932.25483,533.9998,31.372829914093018
1618852932.27046,502.3063,31.38845992088318
1618852932.28608,458.9023,31.404079914093018
1618852932.30171,407.1393,31.41970992088318
1618852932.31733,350.4216,31.435329914093018
1618852932.33296,290.9727,31.45095992088318
1618852932.34858,229.4731,31.466579914093018
1618852932.36421,165.593,31.48220992088318
1618852932.37984,98.73383,31.49783992767334
1618852932.39546,28.44775,31.51345992088318
1618852932.41109,-45.62814,31.52908992767334
1618852932.42671,-124.1,31.54470992088318
1618852932.44234,-207.6303,31.56033992767334
1618852932.45796,-295.8672,31.57595992088318
1618852932.47359,-386.0009,31.59158992767334
1618852932.48922,-471.8865,31.6072199344635
1618852932.50484,-544.5544,31.62283992767334
1618852932.52047,-594.4084,31.6384699344635
1618852932.53609,-614.2356,31.65408992767334
1618852932.55172,-601.7213,31.6697199344635
1618852932.56735,-560.2759,31.685349941253662
1618852932.58297,-497.9232,31.7009699344635
1618852932.5986,-424.9628,31.716599941253662
1618852932.61422,-351.4741,31.7322199344635
1618852932.62985,-285.775,31.747849941253662
1618852932.64547,-233.9105,31.7634699344635
1618852932.6611,-199.69,31.779099941253662
1618852932.67673,-184.8012,31.794729948043823
1618852932.69235,-188.3944,31.810349941253662
1618852932.70798,-206.4374,31.825979948043823
1618852932.7236,-231.7757,31.841599941253662
1618852932.73923,-255.2941,31.857229948043823
1618852932.75485,-268.6172,31.872849941253662
1618852932.77048,-267.0786,31.888479948043823
1618852932.78611,-251.5289,31.904109954833984
1618852932.80173,-227.9123,31.919729948043823
1618852932.81736,-204.3452,31.935359954833984
1618852932.83298,-186.9317,31.950979948043823
1618852932.84861,-176.5679,31.966609954833984
1618852932.86423,-168.3777,31.982229948043823
1618852932.87986,-154.0375,31.997859954833984
1618852932.89549,-125.7454,32.013489961624146
1618852932.91111,-79.49438,32.029109954833984
1618852932.92674,-16.37935,32.044739961624146
1618852932.94236,58.34393,32.060359954833984
1618852932.95799,137.5159,32.075989961624146
1618852932.97361,214.0714,32.091609954833984
1618852932.98924,281.8373,32.107239961624146
1618852933.00487,335.8312,32.12286996841431
1618852933.02049,372.9717,32.138489961624146
1618852933.03612,393.136,32.15411996841431
1618852933.05174,400.1108,32.169739961624146
1618852933.06737,400.9102,32.18536996841431
1618852933.08299,403.5352,32.200989961624146
1618852933.09862,413.7498,32.21661996841431
1618852933.11425,432.7192,32.23224997520447
1618852933.12987,456.9161,32.24786996841431
1618852933.1455,479.9393,32.26349997520447
1618852933.16112,495.4563,32.27911996841431
1618852933.17675,499.4548,32.29474997520447
1618852933.19237,490.467,32.31036996841431
1618852933.208,468.1483,32.32599997520447
1618852933.22363,431.6908,32.34162998199463
1618852933.23925,379.6697,32.35724997520447
1618852933.25488,311.7296,32.37287998199463
1618852933.2705,230.7063,32.38849997520447
1618852933.28613,143.4266,32.40412998199463
1618852933.30175,59.21585,32.41974997520447
1618852933.31738,-13.47032,32.43537998199463
1618852933.33301,-70.28792,32.45100998878479
1618852933.34863,-112.5105,32.46662998199463
1618852933.36426,-145.8879,32.48225998878479
1618852933.37988,-177.6981,32.49787998199463
1618852933.39551,-213.5616,32.51350998878479
1618852933.41113,-255.3123,32.52912998199463
1618852933.42676,-300.7529,32.54475998878479
1618852933.44239,-344.8668,32.56038999557495
1618852933.45801,-381.6523,32.57600998878479
1618852933.47364,-405.6814,32.59163999557495
1618852933.48926,-413.0726,32.60725998878479
1618852933.50489,-402.1423,32.62288999557495
1618852933.52051,-373.9366,32.63850998878479
1618852933.53614,-332.6018,32.65413999557495
1618852933.55177,-284.922,32.66977000236511
1618852933.56739,-238.9998,32.68538999557495
1618852933.58302,-202.0659,32.70102000236511
1618852933.59864,-178.1501,32.71663999557495
1618852933.61427,-166.886,32.73227000236511
1618852933.62989,-163.4819,32.74788999557495
1618852933.64552,-160.46,32.76352000236511
1618852933.66115,-150.6012,32.77915000915527
1618852933.67677,-129.6839,32.79477000236511
1618852933.6924,-97.95863,32.81040000915527
1618852933.70802,-59.70781,32.82602000236511
1618852933.72365,-21.07606,32.84165000915527
1618852933.73927,12.50419,32.85727000236511
1618852933.7549,38.11289,32.87290000915527
1618852933.77053,55.71198,32.888530015945435
1618852933.78615,67.07317,32.90415000915527
1618852933.80178,74.3063,32.919780015945435
1618852933.8174,78.94887,32.93540000915527
1618852933.83303,82.27822,32.951030015945435
1618852933.84865,86.04329,32.96665000915527
1618852933.86428,93.11509,32.982280015945435
1618852933.87991,107.0022,32.997910022735596
1618852933.89553,130.3692,33.013530015945435
1618852933.91116,163.3093,33.029160022735596
1618852933.92678,202.2727,33.044780015945435
1618852933.94241,240.63,33.060410022735596
1618852933.95803,270.676,33.076030015945435
1618852933.97366,286.2708,33.091660022735596
1618852933.98929,284.6781,33.10729002952576
1618852934.00491,266.998,33.122910022735596
1618852934.02054,237.0454,33.13854002952576
1618852934.03616,199.5288,33.154160022735596
1618852934.05179,158.589,33.16979002952576
1618852934.06741,117.1941,33.185410022735596
1618852934.08304,77.4444,33.20104002952576
1618852934.09867,41.09642,33.21667003631592
1618852934.11429,9.819954,33.23229002952576
1618852934.12992,-15.17184,33.24792003631592
1618852934.14554,-33.65424,33.26354002952576
1618852934.16117,-46.77407,33.27917003631592
1618852934.17679,-56.80035,33.29479002952576
1618852934.19242,-66.38823,33.31042003631592
1618852934.20805,-77.61501,33.32605004310608
1618852934.22367,-91.24963,33.34167003631592
1618852934.2393,-106.5221,33.35730004310608
1618852934.25492,-121.2679,33.37292003631592
1618852934.27055,-132.6853,33.38855004310608
1618852934.28617,-138.1536,33.40417003631592
1618852934.3018,-136.0298,33.41980004310608
1618852934.31743,-126.2204,33.43543004989624
1618852934.33305,-110.3446,33.45105004310608
1618852934.34868,-91.52836,33.46668004989624
1618852934.3643,-73.59387,33.48230004310608
1618852934.37993,-60.05475,33.49793004989624
1618852934.39555,-53.11905,33.51355004310608
1618852934.41118,-53.21658,33.52918004989624
1618852934.42681,-59.06284,33.5448100566864
1618852934.44243,-68.27242,33.56043004989624
1618852934.45806,-78.13708,33.5760600566864
1618852934.47368,-86.25188,33.59168004989624
1618852934.48931,-90.84317,33.6073100566864
1618852934.50493,-90.87323,33.62293004989624
1618852934.52056,-85.97124,33.6385600566864
1618852934.53619,-76.47292,33.65419006347656
1618852934.55181,-63.41641,33.6698100566864
1618852934.56744,-48.49333,33.68544006347656
1618852934.58306,-33.76938,33.7010600566864
1618852934.59869,-21.13174,33.71669006347656
1618852934.61431,-11.71196,33.7323100566864
1618852934.62994,-5.539124,33.74794006347656
1618852934.64557,-1.597946,33.763570070266724
1618852934.66119,1.612579,33.77919006347656
1618852934.67682,5.297501,33.794820070266724
1618852934.69244,9.860672,33.81044006347656
1618852934.70807,14.82835,33.826070070266724
1618852934.72369,19.0923,33.84169006347656
1618852934.73932,21.37129,33.857320070266724
1618852934.75495,20.7643,33.872950077056885
1618852934.77057,17.0499,33.888570070266724
1618852934.7862,10.81493,33.904200077056885
1618852934.80182,3.355179,33.919820070266724
1618852934.81745,-3.59314,33.935450077056885
1618852934.83308,-8.29599,33.951080083847046
1618852934.8487,-9.50679,33.966700077056885
1618852934.86433,-6.865891,33.982330083847046
1618852934.87995,-1.139832,33.997950077056885
1618852934.89558,6.051254,34.013580083847046
1618852934.9112,12.66286,34.029200077056885
1618852934.92683,16.89964,34.044830083847046
1618852934.94246,17.78839,34.06046009063721
1618852934.95808,15.33382,34.076080083847046
1618852934.97371,10.38501,34.09171009063721
1618852934.98933,4.216141,34.107330083847046
1618852935.00496,-1.950027,34.12296009063721
1618852935.02058,-7.229111,34.138580083847046
1618852935.03621,-11.10568,34.15421009063721
1618852935.05184,-13.24454,34.16984009742737
1618852935.06746,-13.29663,34.18546009063721
1618852935.08309,-10.78206,34.20109009742737
1618852935.09871,-5.264023,34.21671009063721
1618852935.11434,3.515182,34.23234009742737
1618852935.12996,15.35049,34.24796009063721
1618852935.14559,29.45134,34.26359009742737
1618852935.16122,44.49918,34.27922010421753
1618852935.17684,58.92197,34.29484009742737
1618852935.19247,71.17421,34.31047010421753
1618852935.20809,80.04073,34.32609009742737
1618852935.22372,84.73227,34.34172010421753
1618852935.23934,84.83351,34.35734009742737
1618852935.25497,80.23407,34.37297010421753
1618852935.2706,71.12935,34.38860011100769
1618852935.28622,58.1864,34.40422010421753
1618852935.30185,42.66296,34.41985011100769
1618852935.31747,26.45483,34.43547010421753
1618852935.3331,11.66182,34.45110011100769
1618852935.34872,0.0151062,34.46672010421753
1618852935.36435,-7.673965,34.48235011100769
1618852935.37998,-11.85696,34.49798011779785
1618852935.3956,-13.97804,34.51360011100769
1618852935.41123,-15.92116,34.52923011779785
1618852935.42685,-19.27771,34.54485011100769
1618852935.44248,-24.89641,34.56048011779785
1618852935.4581,-32.74319,34.57610011100769
1618852935.47373,-42.12314,34.59173011779785
1618852935.48936,-52.01237,34.60736012458801
1618852935.50498,-61.34074,34.62298011779785
1618852935.52061,-69.17734,34.63861012458801
1618852935.53623,-74.87964,34.65423011779785
1618852935.55186,-78.25256,34.66986012458801
1618852935.56748,-79.61345,34.68548011779785
1618852935.58311,-79.67262,34.70111012458801
1618852935.59874,-79.23228,34.716740131378174
1618852935.61436,-78.80772,34.73236012458801
1618852935.62999,-78.27267,34.747990131378174
1618852935.64561,-76.849,34.76361012458801
1618852935.66124,-73.48457,34.779240131378174
1618852935.67686,-67.30222,34.79486012458801
1618852935.69249,-58.06256,34.810490131378174
1618852935.70812,-46.34796,34.826120138168335
1618852935.72374,-33.40401,34.841740131378174
1618852935.73937,-20.75061,34.857370138168335
1618852935.75499,-9.804565,34.872990131378174
1618852935.77062,-1.559097,34.888620138168335
1618852935.78624,3.623215,34.904240131378174
1618852935.80187,6.009689,34.919870138168335
1618852935.8175,6.412659,34.935500144958496
1618852935.83312,5.949585,34.951120138168335
1618852935.84875,5.693588,34.966750144958496
1618852935.86437,6.407867,34.982370138168335
1618852935.88,8.338715,34.998000144958496
1618852935.89562,11.26575,35.013620138168335
1618852935.91125,14.6414,35.029250144958496
1618852935.92688,17.9234,35.04487991333008
1618852935.9425,20.74289,35.060500144958496
1618852935.95813,23.01141,35.07612991333008
1618852935.97375,24.9079,35.091750144958496
1618852935.98938,26.77357,35.10737991333008
1618852936.005,28.96658,35.123000144958496
1618852936.02063,31.71736,35.13862991333008
1618852936.03626,35.0305,35.15425992012024
1618852936.05188,38.58023,35.16987991333008
1618852936.06751,41.71867,35.18550992012024
1618852936.08313,43.6998,35.20112991333008
1618852936.09876,43.81049,35.21675992012024
1618852936.11438,41.62709,35.23237991333008
1618852936.13001,37.04276,35.24800992012024
1618852936.14564,30.18265,35.2636399269104
1618852936.16126,21.37596,35.27925992012024
1618852936.17689,11.14349,35.2948899269104
1618852936.19251,0.37854,35.31050992012024
1618852936.20814,-9.543701,35.3261399269104
1618852936.22376,-16.87216,35.34175992012024
1618852936.23939,-19.86421,35.3573899269104
1618852936.25502,-17.36205,35.37301993370056
1618852936.27064,-9.263214,35.3886399269104
1618852936.28627,3.360306,35.40426993370056
1618852936.30189,18.6196,35.4198899269104
1618852936.31752,34.40932,35.43551993370056
1618852936.33314,49.02766,35.4511399269104
1618852936.34877,61.43428,35.46676993370056
1618852936.3644,71.18767,35.48239994049072
1618852936.38002,78.13623,35.49801993370056
1618852936.39565,82.17766,35.51364994049072
1618852936.41127,83.16632,35.52926993370056
1618852936.4269,80.98514,35.54489994049072
1618852936.44252,75.72597,35.56051993370056
1618852936.45815,67.76324,35.57614994049072
1618852936.47378,57.78819,35.591779947280884
1618852936.4894,46.67667,35.60739994049072
1618852936.50503,35.34758,35.623029947280884
1618852936.52065,24.55254,35.63864994049072
1618852936.53628,14.80875,35.654279947280884
1618852936.5519,6.398682,35.66989994049072
1618852936.56753,-0.5127258,35.685529947280884
1618852936.58316,-5.661926,35.701159954071045
1618852936.59878,-8.634827,35.716779947280884
1618852936.61441,-8.969727,35.732409954071045
1618852936.63003,-6.514587,35.748029947280884
1618852936.64566,-1.848724,35.763659954071045
1618852936.66128,3.532318,35.779279947280884
1618852936.67691,7.438568,35.794909954071045
1618852936.69254,7.646759,35.810539960861206
1618852936.70816,2.720398,35.826159954071045
1618852936.72379,-7.404114,35.841789960861206
1618852936.73941,-21.37244,35.857409954071045
1618852936.75504,-36.89447,35.873039960861206
1618852936.77066,-51.4985,35.888659954071045
1618852936.78629,-63.22018,35.904289960861206
1618852936.80192,-70.94162,35.91991996765137
1618852936.81754,-74.43552,35.935539960861206
1618852936.83317,-74.13681,35.95116996765137
1618852936.84879,-70.96048,35.966789960861206
1618852936.86442,-66.10925,35.98241996765137
1618852936.88004,-60.94632,35.998039960861206
1618852936.89567,-56.73138,36.01366996765137
1618852936.9113,-54.37347,36.02929997444153
1618852936.92692,-54.11539,36.04491996765137
1618852936.94255,-55.44077,36.06054997444153
1618852936.95817,-57.16406,36.07616996765137
1618852936.9738,-57.85162,36.09179997444153
1618852936.98942,-56.36688,36.10741996765137
1618852937.00505,-52.3219,36.12304997444153
1618852937.02068,-46.2915,36.13867998123169
1618852937.0363,-39.63547,36.15429997444153
1618852937.05193,-34.0087,36.16992998123169
1618852937.06755,-30.74701,36.18554997444153
1618852937.08318,-30.41052,36.20117998123169
1618852937.0988,-32.69513,36.21679997444153
1618852937.11443,-36.68286,36.23242998123169
1618852937.13006,-41.24149,36.24805998802185
1618852937.14568,-45.38605,36.26367998123169
1618852937.16131,-48.38422,36.27930998802185
1618852937.17693,-49.69836,36.29492998123169
1618852937.19256,-48.90518,36.31055998802185
1618852937.20818,-45.76547,36.32617998123169
1618852937.22381,-40.41809,36.34180998802185
1618852937.23944,-33.59653,36.35743999481201
1618852937.25506,-26.60583,36.37305998802185
1618852937.27069,-20.97134,36.38868999481201
1618852937.28631,-18.00253,36.40430998802185
1618852937.30194,-18.30362,36.41993999481201
1618852937.31756,-21.66171,36.43555998802185
1618852937.33319,-27.10751,36.45118999481201
1618852937.34882,-33.26932,36.46682000160217
1618852937.36444,-38.62427,36.48243999481201
1618852937.38007,-41.7674,36.49807000160217
1618852937.39569,-41.54407,36.51368999481201
1618852937.41132,-37.16229,36.52932000160217
1618852937.42695,-28.36929,36.544950008392334
1618852937.44257,-15.59645,36.56057000160217
1618852937.4582,0.04083252,36.576200008392334
1618852937.47382,16.93376,36.59182000160217
1618852937.48945,33.36536,36.607450008392334
1618852937.50507,47.90808,36.62307000160217
1618852937.5207,59.72789,36.638700008392334
1618852937.53633,68.536,36.654330015182495
1618852937.55195,74.46503,36.669950008392334
1618852937.56758,77.73608,36.685580015182495
1618852937.5832,78.54807,36.701200008392334
1618852937.59883,77.10532,36.716830015182495
1618852937.61445,73.77573,36.732450008392334
1618852937.63008,69.21259,36.748080015182495
1618852937.64571,64.34195,36.763710021972656
1618852937.66133,60.17603,36.779330015182495
1618852937.67696,57.46436,36.794960021972656
1618852937.69258,56.41046,36.810580015182495
1618852937.70821,56.54378,36.826210021972656
1618852937.72383,56.83643,36.841830015182495
1618852937.73946,56.10251,36.857460021972656
1618852937.75509,53.38544,36.87309002876282
1618852937.77071,48.30818,36.888710021972656
1618852937.78634,41.12434,36.90434002876282
1618852937.80196,32.58249,36.919960021972656
1618852937.81759,23.62419,36.93559002876282
1618852937.83321,15.09785,36.951210021972656
1618852937.84884,7.529968,36.96684002876282
1618852937.86447,1.108017,36.98247003555298
1618852937.88009,-4.266388,36.99809002876282
1618852937.89572,-8.879684,37.01372003555298
1618852937.91134,-13.17111,37.02934002876282
1618852937.92697,-17.55209,37.04497003555298
1618852937.94259,-22.29153,37.06059002876282
1618852937.95822,-27.34169,37.07622003555298
1618852937.97385,-32.11874,37.09185004234314
1618852937.98947,-35.55267,37.10747003555298
1618852938.0051,-36.33597,37.12310004234314
1618852938.02072,-33.30235,37.13872003555298
1618852938.03635,-25.93883,37.15435004234314
1618852938.05197,-14.5724,37.16997003555298
1618852938.0676,-0.3526917,37.18560004234314
1618852938.08323,15.0916,37.2012300491333
1618852938.09885,30.08289,37.21685004234314
1618852938.11448,43.30032,37.2324800491333
1618852938.1301,53.89339,37.24810004234314
1618852938.14573,61.42953,37.2637300491333
1618852938.16135,65.75099,37.27935004234314
1618852938.17698,66.84671,37.2949800491333
1618852938.19261,64.86522,37.31061005592346
1618852938.20823,60.20616,37.3262300491333
1618852938.22386,53.58449,37.34186005592346
1618852938.23948,45.9592,37.3574800491333
1618852938.25511,38.35123,37.37311005592346
1618852938.27073,31.55159,37.3887300491333
1618852938.28636,25.9361,37.40436005592346
1618852938.30199,21.41121,37.41999006271362
1618852938.31761,17.52744,37.43561005592346
1618852938.33324,13.70384,37.45124006271362
1618852938.34886,9.402664,37.46686005592346
1618852938.36449,4.334839,37.48249006271362
1618852938.38011,-1.519302,37.49811005592346
1618852938.39574,-7.848892,37.51374006271362
1618852938.41137,-14.10776,37.529370069503784
1618852938.42699,-19.57999,37.54499006271362
1618852938.44262,-23.70485,37.560620069503784
1618852938.45824,-26.39,37.57624006271362
1618852938.47387,-28.3224,37.591870069503784
1618852938.48949,-30.95967,37.60749006271362
1618852938.50512,-36.14577,37.623120069503784
1618852938.52075,-45.35657,37.638750076293945
1618852938.53637,-58.89072,37.654370069503784
1618852938.552,-75.39876,37.670000076293945
1618852938.56762,-91.99188,37.685620069503784
1618852938.58325,-105.093,37.701250076293945
1618852938.59887,-111.5882,37.716870069503784
1618852938.6145,-109.8483,37.732500076293945
1618852938.63013,-100.1776,37.748130083084106
1618852938.64575,-84.49641,37.763750076293945
1618852938.66138,-65.51364,37.779380083084106
1618852938.677,-45.79279,37.795000076293945
1618852938.69263,-27.19211,37.810630083084106
1618852938.70825,-10.7267,37.826250076293945
1618852938.72388,3.134628,37.841880083084106
1618852938.73951,14.16225,37.85751008987427
1618852938.75513,22.17038,37.873130083084106
1618852938.77076,27.09502,37.88876008987427
1618852938.78638,29.16051,37.904380083084106
1618852938.80201,28.96141,37.92001008987427
1618852938.81763,27.36905,37.935630083084106
1618852938.83326,25.2204,37.95126008987427
1618852938.84889,23.05531,37.96689009666443
1618852938.86451,20.98593,37.98251008987427
1618852938.88014,18.78374,37.99814009666443
1618852938.89576,16.15605,38.01376008987427
1618852938.91139,13.02869,38.02939009666443
1618852938.92701,9.688263,38.04501008987427
1618852938.94264,6.778305,38.06064009666443
1618852938.95827,5.075073,38.07627010345459
1618852938.97389,5.172882,38.09189009666443
1618852938.98952,7.281342,38.10752010345459
1618852939.00514,11.004,38.12314009666443
1618852939.02077,15.37553,38.13877010345459
1618852939.03639,19.07581,38.15439009666443
1618852939.05202,20.74533,38.17002010345459
1618852939.06765,19.43338,38.18565011024475
1618852939.08327,14.85289,38.20127010345459
1618852939.0989,7.413834,38.21690011024475
1618852939.11452,-1.835922,38.23252010345459
1618852939.13015,-11.42259,38.24815011024475
1618852939.14577,-19.80399,38.26377010345459
1618852939.1614,-25.69968,38.27940011024475
1618852939.17703,-28.31508,38.29503011703491
1618852939.19265,-27.53513,38.31065011024475
1618852939.20828,-23.84598,38.32628011703491
1618852939.2239,-18.28026,38.34190011024475
1618852939.23953,-12.13371,38.35753011703491
1618852939.25515,-6.614044,38.37315011024475
1618852939.27078,-2.510498,38.38878011703491
1618852939.28641,-0.2818451,38.40441012382507
1618852939.30203,-0.2436371,38.42003011703491
1618852939.31766,-2.802994,38.43566012382507
1618852939.33328,-8.535019,38.45128011703491
1618852939.34891,-17.84486,38.46691012382507
1618852939.36453,-30.76237,38.48253011703491
1618852939.38016,-46.75424,38.49816012382507
1618852939.39579,-64.61824,38.513790130615234
1618852939.41141,-82.52153,38.52941012382507
1618852939.42704,-98.84355,38.545040130615234
1618852939.44266,-112.8249,38.56066012382507
1618852939.45829,-124.8271,38.576290130615234
1618852939.47391,-135.907,38.59191012382507
1618852939.48954,-146.7908,38.607540130615234
1618852939.50517,-157.3536,38.623170137405396
1618852939.52079,-166.7731,38.638790130615234
1618852939.53642,-173.5094,38.654420137405396
1618852939.55204,-175.5455,38.670040130615234
1618852939.56767,-171.765,38.685670137405396
1618852939.58329,-162.5165,38.701290130615234
1618852939.59892,-149.6674,38.716920137405396
1618852939.61455,-135.7591,38.73255014419556
1618852939.63017,-122.5801,38.748170137405396
1618852939.6458,-110.6949,38.76380014419556
1618852939.66142,-100.1634,38.779420137405396
1618852939.67705,-89.96738,38.79505014419556
1618852939.69268,-77.94494,38.81067991256714
1618852939.7083,-62.16279,38.82630014419556
1618852939.72393,-41.70146,38.84192991256714
1618852939.73955,-17.47114,38.85755014419556
1618852939.75518,7.987555,38.87317991256714
1618852939.7708,31.91278,38.88880014419556
1618852939.78643,51.86924,38.90442991256714
1618852939.80206,65.46655,38.9200599193573
1618852939.81768,72.56294,38.93567991256714
1618852939.83331,76.3882,38.9513099193573
1618852939.84893,82.06869,38.96692991256714
1618852939.86456,95.05541,38.9825599193573
1618852939.88018,118.9199,38.99817991256714
1618852939.89581,154.6416,39.0138099193573
1618852939.91144,201.544,39.02943992614746
1618852939.92706,257.1696,39.0450599193573
1618852939.94269,316.6403,39.06068992614746
1618852939.95831,365.5301,39.0763099193573
1618852939.97394,389.3888,39.09193992614746
1618852939.98956,380.4275,39.1075599193573
1618852940.00519,343.5903,39.12318992614746
1618852940.02082,292.393,39.13881993293762
1618852940.03644,239.5399,39.15443992614746
1618852940.05207,191.6986,39.17006993293762
1618852940.06769,156.9018,39.18568992614746
1618852940.08332,130.0431,39.20131993293762
1618852940.09894,107.0089,39.21693992614746
1618852940.11457,87.74612,39.23256993293762
1618852940.1302,73.93173,39.24819993972778
1618852940.14582,66.78967,39.26381993293762
1618852940.16145,63.46886,39.27944993972778
1618852940.17707,53.84727,39.29506993293762
1618852940.1927,30.70438,39.31069993972778
1618852940.20832,-8.555817,39.32631993293762
1618852940.22395,-61.47357,39.34194993972778
1618852940.23958,-118.7483,39.357579946517944
1618852940.2552,-167.2295,39.37319993972778
1618852940.27083,-195.0911,39.388829946517944
1618852940.28645,-194.5792,39.40444993972778
1618852940.30208,-166.4962,39.420079946517944
1618852940.3177,-118.207,39.43569993972778
1618852940.33333,-58.05222,39.451329946517944
1618852940.34896,7.96212,39.466959953308105
1618852940.36458,76.8954,39.482579946517944
1618852940.38021,149.3999,39.498209953308105
1618852940.39583,226.5073,39.513829946517944
1618852940.41146,305.8946,39.529459953308105
1618852940.42708,381.6782,39.545079946517944
1618852940.44271,441.8575,39.560709953308105
1618852940.45834,473.1979,39.57633996009827
1618852940.47396,467.4566,39.591959953308105
1618852940.48959,424.1039,39.60758996009827
1618852940.50521,349.3603,39.623209953308105
1618852940.52084,253.9232,39.63883996009827
1618852940.53646,148.433,39.654459953308105
1618852940.55209,35.17542,39.67008996009827
1618852940.56772,-76.37656,39.68571996688843
1618852940.58334,-175.9757,39.70133996009827
1618852940.59897,-255.8655,39.71696996688843
1618852940.61459,-312.6531,39.73258996009827
1618852940.63022,-347.1774,39.74821996688843
1618852940.64584,-363.1167,39.76383996009827
1618852940.66147,-365.3966,39.77946996688843
1618852940.6771,-359.25,39.79509997367859
1618852940.69272,-356.2344,39.81071996688843
1618852940.70835,-355.9163,39.82634997367859
1618852940.72397,-355.2525,39.84196996688843
1618852940.7396,-349.854,39.85759997367859
1618852940.75522,-334.8571,39.87321996688843
1618852940.77085,-306.9674,39.88884997367859
1618852940.78648,-266.2454,39.90447998046875
1618852940.8021,-216.6139,39.92009997367859
1618852940.81773,-164.9549,39.93572998046875
1618852940.83335,-115.0731,39.95134997367859
1618852940.84898,-71.18909,39.96697998046875
1618852940.8646,-37.45445,39.98259997367859
1618852940.88023,-15.59265,39.99822998046875
1618852940.89586,-4.358547,40.01385998725891
1618852940.91148,-0.4024506,40.02947998046875
1618852940.92711,0.2195206,40.04510998725891
1618852940.94273,0.8133087,40.06072998046875
1618852940.95836,3.447983,40.07635998725891
1618852940.97398,9.119625,40.09197998046875
1618852940.98961,18.73973,40.10760998725891
1618852941.00524,31.55975,40.12323999404907
1618852941.02086,46.04247,40.13885998725891
1618852941.03649,60.37059,40.15448999404907
1618852941.05211,72.89454,40.17010998725891
1618852941.06774,82.40578,40.18573999404907
1618852941.08336,88.24297,40.20135998725891
1618852941.09899,90.43172,40.21698999404907
1618852941.11462,89.67946,40.23262000083923
1618852941.13024,87.41717,40.24823999404907
1618852941.14587,84.5817,40.26387000083923
1618852941.16149,81.67764,40.27948999404907
1618852941.17712,78.77127,40.29512000083923
1618852941.19274,75.68601,40.31073999404907
1618852941.20837,72.19084,40.32637000083923
1618852941.224,68.11046,40.342000007629395
1618852941.23962,63.51556,40.35762000083923
1618852941.25525,58.70888,40.373250007629395
1618852941.27087,54.11835,40.38887000083923
1618852941.2865,49.93373,40.404500007629395
1618852941.30212,46.05955,40.42012000083923
1618852941.31775,42.16642,40.435750007629395
1618852941.33338,37.85181,40.451380014419556
1618852941.349,32.81435,40.467000007629395
1618852941.36463,26.98232,40.482630014419556
1618852941.38025,20.53889,40.498250007629395
1618852941.39588,13.8209,40.513880014419556
1618852941.4115,7.081432,40.529500007629395
1618852941.42713,0.4199257,40.545130014419556
1618852941.44276,-6.256237,40.56076002120972
1618852941.45838,-13.16671,40.576380014419556
1618852941.47401,-20.52665,40.59201002120972
1618852941.48963,-28.417,40.607630014419556
1618852941.50526,-36.71276,40.62326002120972
1618852941.52088,-45.04465,40.638880014419556
1618852941.53651,-52.82743,40.65451002120972
1618852941.55214,-59.35716,40.67014002799988
1618852941.56776,-63.83832,40.68576002120972
1618852941.58339,-65.58122,40.70139002799988
1618852941.59901,-64.21006,40.71701002120972
1618852941.61464,-59.79152,40.73264002799988
1618852941.63026,-52.83641,40.74826002120972
1618852941.64589,-44.21167,40.76389002799988
1618852941.66152,-34.88114,40.77952003479004
1618852941.67714,-25.74274,40.79514002799988
1618852941.69277,-17.46563,40.81077003479004
1618852941.70839,-10.46593,40.82639002799988
1618852941.72402,-4.945702,40.84202003479004
1618852941.73964,-0.9626732,40.85764002799988
1618852941.75527,1.544773,40.87327003479004
1618852941.7709,2.719707,40.8889000415802
1618852941.78652,2.774368,40.90452003479004
1618852941.80215,1.961449,40.9201500415802
1618852941.81777,0.5537739,40.93577003479004
1618852941.8334,-1.13196,40.9514000415802
1618852941.84903,-2.729057,40.96703004837036
1618852941.86465,-3.816841,40.9826500415802
1618852941.88028,-3.983032,40.99828004837036
1618852941.8959,-2.933496,41.0139000415802
1618852941.91153,-0.5897274,41.02953004837036
1618852941.92715,2.797052,41.0451500415802
1618852941.94278,6.701971,41.06078004837036
1618852941.95841,10.43535,41.07641005516052
1618852941.97403,13.34105,41.09203004837036
1618852941.98966,14.95027,41.10766005516052
1618852942.00528,15.10929,41.12328004837036
1618852942.02091,13.93532,41.13891005516052
1618852942.03653,11.72618,41.15453004837036
1618852942.05216,8.830921,41.17016005516052
1618852942.06779,5.555508,41.185790061950684
1618852942.08341,2.125763,41.20141005516052
1618852942.09904,-1.197916,41.217040061950684
1618852942.11466,-4.039867,41.23266005516052
1618852942.13029,-5.852081,41.248290061950684
1618852942.14591,-5.949854,41.26391005516052
1618852942.16154,-3.700809,41.279540061950684
1618852942.17717,1.147661,41.295170068740845
1618852942.19279,8.347271,41.310790061950684
1618852942.20842,17.09839,41.326420068740845
1618852942.22404,26.30981,41.342040061950684
1618852942.23967,34.98409,41.357670068740845
1618852942.25529,42.568,41.373290061950684
1618852942.27092,48.99372,41.388920068740845
1618852942.28655,54.57834,41.404550075531006
1618852942.30217,59.59261,41.420170068740845
1618852942.3178,63.99068,41.435800075531006
1618852942.33342,67.3251,41.451420068740845
1618852942.34905,68.93883,41.467050075531006
1618852942.36467,68.27792,41.482670068740845
1618852942.3803,65.16154,41.498300075531006
1618852942.39593,59.85924,41.51393008232117
1618852942.41155,52.99281,41.529550075531006
1618852942.42718,45.28441,41.54518008232117
1618852942.4428,37.4361,41.560800075531006
1618852942.45843,29.99632,41.57643008232117
1618852942.47405,23.38059,41.592050075531006
1618852942.48968,17.84186,41.60768008232117
1618852942.50531,13.44173,41.62331008911133
1618852942.52093,10.07678,41.63893008232117
1618852942.53656,7.483059,41.65456008911133
1618852942.55218,5.321514,41.67018008232117
1618852942.56781,3.303455,41.68581008911133
1618852942.58343,1.241035,41.70143008232117
1618852942.59906,-0.9897614,41.71706008911133
1618852942.61469,-3.463169,41.73269009590149
1618852942.63031,-6.291584,41.74831008911133
1618852942.64594,-9.655098,41.76394009590149
1618852942.66156,-13.77316,41.77956008911133
1618852942.67719,-18.88692,41.79519009590149
1618852942.69281,-25.11919,41.81081008911133
1618852942.70844,-32.40482,41.82644009590149
1618852942.72407,-40.38898,41.84207010269165
1618852942.73969,-48.36989,41.85769009590149
1618852942.75532,-55.3861,41.87332010269165
1618852942.77094,-60.2806,41.88894009590149
1618852942.78657,-62.04724,41.90457010269165
1618852942.80219,-60.199,41.92019009590149
1618852942.81782,-54.90887,41.93582010269165
1618852942.83345,-47.02612,41.95145010948181
