,index,PPG_Raw,PPG_Clean,PPG_Rate,PPG_Peaks,EDA_Raw,EDA_Clean,EDA_Tonic,EDA_Phasic,SCR_Onsets,SCR_Peaks,SCR_Height,SCR_Amplitude,SCR_RiseTime,SCR_Recovery,SCR_RecoveryTime,Index,Label,Condition,id
0,0.0,14.81306,0.0,61.16343490304709,0,0.12680600000000009,0.1267951239579111,0.12569647552517116,0.0010986482306851297,0,0,0,0,0,0,1,0,1,neutral,0
1,0.015873015873015872,13.97647,0.0,61.16343490304709,0,0.12679951943291512,0.12676283579269346,0.12569020516678975,0.001072630422691583,0,0,0,0,0,0,0,1,1,neutral,0
2,0.031746031746031744,13.17818,0.0,61.16343490304709,0,0.12678047914886179,0.12673022756745847,0.12568392874496218,0.0010462986181236792,0,0,0,0,0,0,0,2,1,neutral,0
3,0.047619047619047616,11.9552,0.0,61.16343490304709,0,0.12674948127364227,0.126695216937928,0.125677646367436,0.001017570364955742,0,0,0,0,0,0,0,3,1,neutral,0
4,0.06349206349206349,9.896408,0.0,61.16343490304709,0,0.12670712793305886,0.1266558369596512,0.12567135814256566,0.0009844786103825813,0,0,0,0,0,0,0,4,1,neutral,0
5,0.07936507936507936,6.794998,0.0,61.16343490304709,0,0.12665402125291375,0.12661034416966943,0.12566506417929507,0.0009452797825015694,0,0,0,0,0,0,0,5,1,neutral,0
6,0.09523809523809523,2.765732,0.0,61.16343490304709,0,0.12659076335900918,0.12655730195732334,0.12565876458713798,0.0008985371611396046,0,0,0,0,0,0,0,6,1,neutral,0
7,0.1111111111111111,-1.776245,0.0,61.16343490304709,0,0.12651795637714747,0.1264956354433594,0.12565245947615483,0.0008431757569827075,0,0,0,0,0,0,0,7,1,neutral,0
8,0.12698412698412698,-6.21463,0.0,61.16343490304709,0,0.12643620243313075,0.1264246568791135,0.12564614895692525,0.000778507710787125,0,0,0,0,0,0,0,8,1,neutral,0
9,0.14285714285714285,-9.899124,0.0,61.16343490304709,0,0.1263461036527613,0.12634406303438256,0.12563983314051577,0.0007042296812833018,0,0,0,0,0,0,0,9,1,neutral,0
10,0.15873015873015872,-12.37242,0.0,61.16343490304709,0,0.1262482621618414,0.12625390798645894,0.12563351213844218,0.0006203956342478404,0,0,0,0,0,0,0,10,1,neutral,0
11,0.1746031746031746,-13.5078,0.0,61.16343490304709,0,0.1261432800861733,0.12615455607559367,0.12562718606262632,0.0005273697980099083,0,0,0,0,0,0,0,11,1,neutral,0
12,0.19047619047619047,-13.5713,0.0,61.16343490304709,0,0.12603175955155912,0.12604662055325613,0.1256208550253476,0.00042576531175947895,0,0,0,0,0,0,0,12,1,neutral,0
13,0.20634920634920634,-13.15202,0.0,61.16343490304709,0,0.1259143026838012,0.1259308936742085,0.12561451913918914,0.0003163743176756097,0,0,0,0,0,0,0,13,1,neutral,0
14,0.2222222222222222,-12.94994,0.0,61.16343490304709,0,0.1257915116087018,0.12580827376244108,0.12560817851697903,0.00020009502692053065,0,0,0,0,0,0,0,14,1,neutral,0
15,0.23809523809523808,-13.45082,0.0,61.16343490304709,0,0.12566398845206306,0.12567969422307043,0.12560183327172705,7.786073160112117e-05,0,0,0,0,0,0,0,15,1,neutral,0
16,0.25396825396825395,-14.70274,0.0,61.16343490304709,0,0.12553233533968733,0.12554605868943963,0.1255954835165574,-4.942504806377179e-05,0,0,0,0,0,0,0,16,1,neutral,0
17,0.2698412698412698,-16.25911,0.0,61.16343490304709,0,0.12539707669478653,0.12540818559177316,0.12558912936463795,-0.00018094399501762106,0,0,0,0,0,0,0,17,1,neutral,0
18,0.2857142857142857,-17.32959,0.0,61.16343490304709,0,0.12525837120401873,0.12526676450186253,0.12558277092910672,-0.00031600665060692876,0,0,0,0,0,0,0,18,1,neutral,0
19,0.30158730158730157,-17.13657,0.0,61.16343490304709,0,0.12511627004509093,0.1251223257208941,0.12557640832299563,-0.00045408282667724247,0,0,0,0,0,0,0,19,1,neutral,0
20,0.31746031746031744,-15.30411,0.0,61.16343490304709,0,0.12497082438112851,0.12497522378827024,0.12557004165915223,-0.0005948180966737432,0,0,0,0,0,0,0,20,1,neutral,0
21,0.3333333333333333,-12.03654,0.0,61.16343490304709,0,0.12482208537525681,0.12482563492943728,0.12556367105015967,-0.0007380363477332221,0,0,0,0,0,0,0,21,1,neutral,0
22,0.3492063492063492,-8.117325,0.0,61.16343490304709,0,0.12467010419060127,0.12467356793789876,0.12555729660825501,-0.0008837288985891973,0,0,0,0,0,0,0,22,1,neutral,0
23,0.36507936507936506,-4.593124,0.0,61.16343490304709,0,0.12451493199028726,0.12451888758625049,0.12555091844524607,-0.0010320310884536549,0,0,0,0,0,0,0,23,1,neutral,0
24,0.38095238095238093,-2.39653,0.0,61.16343490304709,0,0.12435661993744015,0.12436134935240217,0.1255445366724268,-0.0011831875507108413,0,0,0,0,0,0,0,24,1,neutral,0
25,0.3968253968253968,-1.968826,0.0,61.16343490304709,0,0.12419521919518534,0.12420064399149588,0.1255381514004911,-0.001337507640912622,0,0,0,0,0,0,0,25,1,neutral,0
26,0.4126984126984127,-3.146637,0.0,61.16343490304709,0,0.12403078092664822,0.12403645024393681,0.12553176273944508,-0.001495312728659864,0,0,0,0,0,0,0,26,1,neutral,0
27,0.42857142857142855,-5.154053,0.0,61.16343490304709,0,0.12386335629495415,0.12386849371708734,0.12552537079851722,-0.0016568773158186145,0,0,0,0,0,0,0,27,1,neutral,0
28,0.4444444444444444,-6.849426,0.0,61.16343490304709,0,0.12369299646322857,0.12369660969932579,0.1255189756860667,-0.0018223662223697378,0,0,0,0,0,0,0,28,1,neutral,0
29,0.4603174603174603,-7.017029,0.0,61.16343490304709,0,0.12351975259459679,0.12352080736562296,0.12551257750948955,-0.0019917703807384906,0,0,0,0,0,0,0,29,1,neutral,0
30,0.47619047619047616,-4.584595,0.0,61.16343490304709,0,0.12334367585218423,0.12334133253770169,0.1255061763751226,-0.0021648440755388785,0,0,0,0,0,0,0,30,1,neutral,0
31,0.49206349206349204,1.15274,0.0,61.16343490304709,0,0.12316481739911629,0.12315872590919398,0.12549977238814522,-0.0023410467183182307,0,0,0,0,0,0,0,31,1,neutral,0
32,0.5079365079365079,10.429,0.0,61.16343490304709,0,0.12298322839851833,0.12297387348614312,0.12549336565247896,-0.0025194924069547845,0,0,0,0,0,0,0,32,1,neutral,0
33,0.5238095238095237,23.0377,0.0,61.16343490304709,0,0.12279929756777552,0.12278804597375978,0.12548695627068548,-0.002698910538799533,0,0,0,0,0,0,0,33,1,neutral,0
34,0.5396825396825397,38.4225,0.0,61.16343490304709,0,0.12261528630548016,0.1226029239956277,0.12548054434386338,-0.002877620591367267,0,0,0,0,0,0,0,34,1,neutral,0
35,0.5555555555555556,55.77832,0.0,61.16343490304709,0,0.12243410172955785,0.12242060637035976,0.1254741299715444,-0.0030535238455768406,0,0,0,0,0,0,0,35,1,neutral,0
36,0.5714285714285714,74.18999,14.417696325012976,61.16343490304709,0,0.12225865156274074,0.12224359917439558,0.12546771325159034,-0.0032241143228505,0,0,0,0,0,0,0,36,1,neutral,0
37,0.5873015873015872,92.63405,33.94674988262275,61.16343490304709,0,0.12209184352776097,0.12207478395426258,0.12546129428009173,-0.0033865105727513135,0,0,0,0,0,0,0,37,1,neutral,0
38,0.6031746031746031,109.97,52.303843665300434,61.16343490304709,0,0.12193658534735076,0.1219173641879844,0.12545487315126946,-0.003537509211476541,0,0,0,0,0,0,0,38,1,neutral,0
39,0.6190476190476191,125.007,68.28286991216788,61.16343490304709,0,0.1217957847442422,0.12177478992238269,0.12544844995738158,-0.003673660284462525,0,0,0,0,0,0,0,39,1,neutral,0
40,0.6349206349206349,136.6493,80.87830363902715,61.16343490304709,0,0.12167234944116748,0.12165066143613916,0.12544202478863647,-0.0037913636032359636,0,0,0,0,0,0,0,40,1,neutral,0
41,0.6507936507936507,144.1911,89.49184231412107,61.16343490304709,0,0.12156918716085878,0.12154861380599796,0.125435597733115,-0.0038869841791335244,0,0,0,0,0,0,0,41,1,neutral,0
42,0.6666666666666666,147.55,94.12185214407468,61.16343490304709,0,0.1214892056260482,0.12147218538033167,0.12542916887670305,-0.00395698374966857,0,0,0,0,0,0,0,42,1,neutral,0
43,0.6825396825396826,147.4215,95.46571347242295,61.16343490304709,0,0.121435312559468,0.12142467435859931,0.1254227383030372,-0.003998064199018612,0,0,0,0,0,0,0,43,1,neutral,0
44,0.6984126984126984,145.1938,94.87702395285022,61.16343490304709,0,0.12141041568385025,0.12140898887042423,0.12541630609346496,-0.004007317478907757,1,0,0,0,0,0,0,44,1,neutral,0
45,0.7142857142857142,142.6915,94.15471833308258,61.16343490304709,0,0.12141742272192715,0.12142749704169307,0.1254098723270217,-0.003982375542484713,0,0,0,0,0,0,0,45,1,neutral,0
46,0.7301587301587301,141.7761,95.18653584181278,61.16343490304709,0,0.12145924139643083,0.12148188439545408,0.12540343708042603,-0.0039215529434198405,0,0,0,0,0,0,0,46,1,neutral,0
47,0.746031746031746,143.9738,99.51199163013563,61.16343490304709,0,0.12153877943009349,0.12157302641611345,0.12539700042809473,-0.0038239742717237437,0,0,0,0,0,0,0,47,1,neutral,0
48,0.7619047619047619,150.129,107.90199929348692,61.16343490304709,0,0.12165894454564728,0.12170088406894958,0.12539056244217833,-0.003689678634268552,0,0,0,0,0,0,0,48,1,neutral,0
49,0.7777777777777777,160.1098,120.06795701253972,61.16343490304709,0,0.12182176145934015,0.12186442941629481,0.12538412319261777,-0.0035196940386628354,0,0,0,0,0,0,0,49,1,neutral,0
50,0.7936507936507936,172.7044,134.60440391945298,61.16343490304709,0,0.12202346181792356,0.12206160718747826,0.12537768274722208,-0.0033160758233865043,0,0,0,0,0,0,0,50,1,neutral,0
51,0.8095238095238095,185.6626,149.2265298486755,61.16343490304709,0,0.12225794219765078,0.12228933633002352,0.12537124117176643,-0.0030819051066911154,0,0,0,0,0,0,0,51,1,neutral,0
52,0.8253968253968254,196.1745,161.28491968526913,61.16343490304709,0,0.12251909273104288,0.12254355338963482,0.12536479853010946,-0.00282124540673109,0,0,0,0,0,0,0,52,1,neutral,0
53,0.8412698412698412,201.5795,168.44212445420496,61.16343490304709,0,0.12280080355062092,0.12281929728926518,0.12535835488432812,-0.002539057862630362,0,0,0,0,0,0,0,53,1,neutral,0
54,0.8571428571428571,200.1887,169.31647781239394,61.16343490304709,1,0.12309696478890603,0.12311083293617509,0.12535191029486753,-0.0022410776275735384,0,0,0,0,0,0,0,54,1,neutral,0
55,0.873015873015873,191.8654,163.88049609362707,60.98273423644666,0,0.12340146657841923,0.12341180923240262,0.12534546482070322,-0.001933655858497997,0,0,0,0,0,0,0,55,1,neutral,0
56,0.8888888888888888,178.1259,153.4668099023595,60.80844468821492,0,0.1237081990516817,0.12371544555550622,0.12533901851951218,-0.0016235732355223272,0,0,0,0,0,0,0,56,1,neutral,0
57,0.9047619047619047,161.6553,140.36806249545094,60.64038502280853,0,0.12401105234121446,0.12401473959992625,0.1253325714478495,-0.0013178321207612275,0,0,0,0,0,0,0,57,1,neutral,0
58,0.9206349206349206,145.389,127.16591327159553,60.47838016133756,0,0.12430391657953863,0.1243026885806766,0.1253261236613264,-0.0010234353548119832,0,0,0,0,0,0,0,58,1,neutral,0
59,0.9365079365079365,131.6644,116.02281113037046,60.32226086646458,0,0.12458068189917522,0.12457251515960513,0.12531967521478557,-0.0007471603306694547,0,0,0,0,0,0,0,59,1,neutral,0
60,0.9523809523809523,121.6081,108.17447883077848,60.171863444344616,0,0.12483523843264542,0.12481788904739383,0.12531322616247034,-0.0004953373918949717,0,0,0,0,0,0,0,60,1,neutral,0
61,0.9682539682539681,115.0956,103.77148193791636,60.027029462504615,0,0.12506147631247028,0.12503313508951794,0.1253067765581831,-0.000273641746815651,0,0,0,0,0,0,0,61,1,neutral,0
62,0.9841269841269841,111.1094,102.07811716493526,59.887605482642236,0,0.12525328567117083,0.12521341882949028,0.12530032645542993,-8.690790542476446e-05,0,0,0,0,0,0,0,62,1,neutral,0
63,1.0,108.3073,101.90821607504932,59.7534428073982,0,0.12540455664126826,0.12535490115278478,0.12529387590754798,6.102496441453382e-05,0,0,0,0,0,0,0,63,1,neutral,0
0,0.0,-12.03748,0.0,42.99759380317429,0,0.12096535887109792,0.12094113948736473,0.12287913494219761,-0.001937994058845587,0,0,0,0,0,0,0,748,3,neutral,2
1,0.015873015873015872,-0.6339722,0.0,42.69541010254667,0,0.12129988459890195,0.12127332371899904,0.12287916883565085,-0.0016058437056767803,0,0,0,0,0,0,0,749,3,neutral,2
2,0.031746031746031744,9.525757,0.0,42.39729121403398,0,0.1216344188200755,0.1216048694745232,0.12287921030793972,-0.0012743394073834638,0,0,0,0,0,0,0,750,3,neutral,2
3,0.047619047619047616,17.80688,0.0,42.103328610171594,0,0.1219619915696678,0.12192851187837464,0.12287925933323977,-0.0009507460137036094,0,0,0,0,0,0,0,751,3,neutral,2
4,0.06349206349206349,24.10394,0.0,41.81360643032863,0,0.12227563288272798,0.12223767381175323,0.1228793158849844,-0.0006416406168706669,0,0,0,0,0,0,0,752,3,neutral,2
5,0.07936507936507936,28.65503,0.0,41.52820190342514,0,0.12256837279430528,0.12252661924846342,0.12287937993605082,-0.00035275921595725904,0,0,0,0,0,0,0,753,3,neutral,2
6,0.09523809523809523,31.82306,0.0,41.247185759459995,0,0.12283324133944878,0.12279056386397907,0.12287945145893787,-8.888610798825228e-05,0,0,0,0,0,0,0,754,3,neutral,2
7,0.1111111111111111,33.86682,0.0,40.970622629496006,0,0.12306340768142274,0.12302574062682103,0.12287953042593235,0.00014621170327056205,0,0,0,0,0,0,0,755,3,neutral,2
8,0.12698412698412698,34.91498,0.0,40.69857143385456,0,0.12325603664318698,0.12322942029818099,0.12287961680926113,0.00034980500678407527,0,0,0,0,0,0,0,756,3,neutral,2
9,0.14285714285714285,34.99884,0.0,40.43108575836885,0,0.1234127881968268,0.12339988909088519,0.12287971058122685,0.000520180043076025,0,0,0,0,0,0,0,757,3,neutral,2
10,0.15873015873015872,34.16669,0.0,40.16821421863055,0,0.12353556177522211,0.12353638799914929,0.12287981171432566,0.0006565778338660358,0,0,0,0,0,0,0,758,3,neutral,2
11,0.1746031746031746,32.50891,0.0,39.91000081224231,0,0.12362625681125289,0.1236390202714453,0.1228799201813459,0.0007591016548379014,0,0,0,0,0,0,0,759,3,neutral,2
12,0.19047619047619047,30.18738,0.0,39.65648525915769,0,0.12368677273779909,0.12370863493213528,0.1228800359554473,0.0008286005571940974,0,0,0,0,0,0,0,760,3,neutral,2
13,0.20634920634920634,27.44226,0.0,39.407703330250875,0,0.12371900898774067,0.12374669501350988,0.12288015901022079,0.0008665375996344489,0,0,0,0,0,0,0,761,3,neutral,2
14,0.2222222222222222,24.56104,0.0,39.16368716431298,0,0.1237248649939576,0.12375513920092082,0.12288028931972919,0.0008748514934479208,0,1,0,0,0,0,0,762,3,neutral,2
15,0.23809523809523808,21.93353,0.0,38.92446557371923,0,0.12370624018932982,0.12373624498432358,0.12288042685852993,0.0008558197540327341,0,0,0,0,0,0,0,763,3,neutral,2
16,0.25396825396825395,20.02954,0.0,38.69006433905274,0,0.12366503400673737,0.12369250028344289,0.1228805716016804,0.0008119303260563283,0,0,0,0,0,0,0,764,3,neutral,2
17,0.2698412698412698,19.36023,0.0,38.46050649300691,0,0.12360314587906013,0.12362648903889038,0.12288072352472768,0.0007457671745833513,0,0,0,0,0,0,0,765,3,neutral,2
18,0.2857142857142857,20.28302,0.0,38.23581259391993,0,0.12352247523917809,0.12354079461154796,0.1228808826036838,0.0006599136844838122,0,0,0,0,0,0,0,766,3,neutral,2
19,0.30158730158730157,22.80566,0.0,38.01600098932143,0,0.1234249215199712,0.12343792316592919,0.12288104881498807,0.0005568760438320354,0,0,0,0,0,0,0,767,3,neutral,2
20,0.31746031746031744,26.42023,0.0,37.801088069894945,0,0.12331238415431946,0.12332024766005047,0.12288122213545796,0.00043902723382708035,0,0,0,0,0,0,0,768,3,neutral,2
21,0.3333333333333333,30.19104,0.0,37.59108851427897,0,0.12318676257510278,0.12318997171926566,0.12288140254222996,0.00030857090268646527,0,0,0,0,0,0,0,769,3,neutral,2
22,0.3492063492063492,33.07782,0.0,37.38601552514622,0,0.12304995621520118,0.12304911159276362,0.1228815900126918,0.0001675233222113759,0,0,0,0,0,0,0,770,3,neutral,2
23,0.36507936507936506,34.33093,0.0,37.18588105701496,0,0.12290385732260534,0.12289949360418402,0.1228817845244073,1.7710838477818527e-05,0,0,0,0,0,0,0,771,3,neutral,2
24,0.38095238095238093,33.86285,0.0,36.99069603625761,0,0.12275008002059737,0.12274276401097295,0.12288198605503495,-0.0001392202687265278,0,0,0,0,0,0,0,772,3,neutral,2
25,0.3968253968253968,32.28986,0.0,36.800470573781915,0,0.12258987782432325,0.12258040796172578,0.12288219458224145,-0.0003017848284728766,0,0,0,0,0,0,0,773,3,neutral,2
26,0.4126984126984127,30.62201,0.0,36.61521417086866,0,0.12242448021773199,0.12241377425777906,0.12288241008361106,-0.0004686340170088297,0,0,0,0,0,0,0,774,3,neutral,2
27,0.42857142857142855,29.78156,0.0,36.434935918656414,0,0.12225511668477243,0.12224410284999421,0.12288263253655159,-0.0006385278608806839,0,0,0,0,0,0,0,775,3,neutral,2
28,0.4444444444444444,30.15668,0.0,36.259644691770475,0,0.12208301670939366,0.12207255239436973,0.12288286191819783,-0.0008103076812245893,0,0,0,0,0,0,0,776,3,neutral,2
29,0.4603174603174603,31.46661,0.0,36.08934933659865,0,0.12190940977554446,0.1219002257056137,0.12288309820531329,-0.0009828706400959097,0,0,0,0,0,0,0,777,3,neutral,2
30,0.47619047619047616,33.01782,0.0,35.924058854721174,0,0.12173552536717393,0.12172819153638635,0.1228833413741908,-0.0011551479611270872,0,0,0,0,0,0,0,778,3,neutral,2
31,0.49206349206349204,34.21564,0.0,35.76378258200801,0,0.12156259296823092,0.12155750172066493,0.12288359140055259,-0.0013260877860630587,0,0,0,0,0,0,0,779,3,neutral,2
32,0.5079365079365079,34.90735,0.0,35.60853036390066,0,0.12139184206266439,0.12138920330456363,0.12288384825945056,-0.0014946430438414504,0,0,0,0,0,1,0,780,3,neutral,2
33,0.5238095238095237,35.48352,0.0,35.45831272740209,0,0.12122450213442328,0.12122434580525863,0.12288411192516739,-0.0016597641915686674,0,0,0,0,0,0,0,781,3,neutral,2
34,0.5396825396825397,36.58649,0.0,35.31314105030355,0,0.12106180266745659,0.12106398415534113,0.12288438237111896,-0.0018203962700693024,0,0,0,0,0,0,0,782,3,neutral,2
35,0.5555555555555556,38.62268,0.0,35.17302772818439,0,0.12090497314571319,0.1209091781828036,0.12288465956975878,-0.0019754794238042994,0,0,0,0,0,0,0,783,3,neutral,2
36,0.5714285714285714,41.49011,0.0,35.037986339727944,0,0.12075524305314207,0.12076098963330695,0.12288494349248502,-0.0021239518785108095,0,0,0,0,0,0,0,784,3,neutral,2
37,0.5873015873015872,44.61084,0.0,34.908031810906365,0,0.12061384187369216,0.1206204777593336,0.12288523410955084,-0.002264754351959467,0,0,0,0,0,0,0,785,3,neutral,2
38,0.6031746031746031,47.26141,0.0,34.78318057859657,0,0.12048199909131241,0.12048869438874567,0.12288553138997838,-0.0023968349853102223,0,0,0,0,0,0,0,786,3,neutral,2
39,0.6190476190476191,48.8869,0.0,34.66345075420228,0,0.12036093990743883,0.12036667916191073,0.12288583530147738,-0.002519154105905164,0,0,0,0,0,0,0,787,3,neutral,2
40,0.6349206349206349,49.28467,0.0,34.548862287870286,0,0.12025165545827769,0.12025545532095412,0.12288614581036884,-0.0026306884379398102,0,0,0,0,0,0,0,788,3,neutral,2
41,0.6507936507936507,48.49942,0.0,34.439437133905265,0,0.12015478665981819,0.12015602608574967,0.1228864628815142,-0.0027304347264017217,0,0,0,0,0,0,0,789,3,neutral,2
42,0.6666666666666666,46.66684,0.0,34.33519941800571,0,0.12007094572548474,0.12006937130594478,0.12288678647825094,-0.0028174130849808925,0,0,0,0,0,0,0,790,3,neutral,2
43,0.6825396825396826,44.02225,0.0,34.236175606963975,0,0.12000074486870173,0.11999644378688426,0.12288711656233493,-0.0028906706700882767,0,0,0,0,0,0,0,791,3,neutral,2
44,0.6984126984126984,41.04333,0.0,34.142394681497926,0,0.11994479630289358,0.11993816449555751,0.12288745309389022,-0.002949286474858462,0,0,0,0,0,0,0,792,3,neutral,2
45,0.7142857142857142,38.69812,0.0,34.05388831290759,0,0.11990371224148469,0.1198954157939746,0.12288779603136674,-0.002992378095731222,0,0,0,0,0,0,0,793,3,neutral,2
46,0.7301587301587301,38.45633,0.0,33.97069104428154,0,0.11987810489789948,0.11986903193734037,0.12288814533150653,-0.003019111234243696,0,0,0,0,0,0,0,794,3,neutral,2
47,0.746031746031746,41.85544,0.0,33.89284047701159,0,0.11986858648556235,0.1198597863096163,0.12288850094931904,-0.003028712461443726,1,0,0,0,0,0,0,795,3,neutral,2
48,0.7619047619047619,49.82944,4.025093144690209,33.82037746341294,0,0.11987576921789769,0.11986837522814799,0.12288886283806567,-0.0030204854132470714,0,0,0,0,0,0,0,796,3,neutral,2
49,0.7777777777777777,62.17755,17.00401014582177,33.753346306290574,0,0.11990026530832992,0.11989539859498038,0.1228892309492546,-0.002993830139116866,0,0,0,0,0,0,0,797,3,neutral,2
50,0.7936507936507936,77.5325,32.65555916497319,33.69179496634081,0,0.11994268697028346,0.11994133815571642,0.12288960523264557,-0.0029482648432098734,0,0,0,0,0,0,0,798,3,neutral,2
51,0.8095238095238095,93.9798,49.83345371265517,33.63577527833153,0,0.1200036464171827,0.12000653458902345,0.12288998563626559,-0.0028834487948856307,0,0,0,0,0,0,0,799,3,neutral,2
52,0.8253968253968254,109.9806,67.65463613348975,33.58534317706475,0,0.12008375586245204,0.12009116502898289,0.12289037210643547,-0.002799204806383449,0,0,0,0,0,0,0,800,3,neutral,2
53,0.8412698412698412,125.0985,85.75077672872023,33.54055893419323,0,0.12018362751951592,0.12019522285824837,0.12289076458780747,-0.0026955394397019344,0,0,0,0,0,0,0,801,3,neutral,2
54,0.8571428571428571,139.9737,104.15962669207144,33.50148740703776,0,0.1203038736017987,0.12031850165143919,0.12289116302341424,-0.002572659063254319,0,0,0,0,0,0,0,802,3,neutral,2
55,0.873015873015873,155.5822,122.90322981592975,33.46819830063576,0,0.12044509618220418,0.12046058496195478,0.12289156735472898,-0.002430980065114347,0,0,0,0,0,0,0,803,3,neutral,2
56,0.8888888888888888,172.1411,141.49914063753204,33.44076644434517,0,0.12060706239949498,0.12062084322512627,0.12289197752173661,-0.0022711319499357056,0,0,0,0,0,0,0,804,3,neutral,2
57,0.9047619047619047,188.445,158.7189050258884,33.419272084431604,0,0.12078809483896388,0.12079843842586666,0.12289239346301586,-0.0020939526713840717,0,0,0,0,0,0,0,805,3,neutral,2
58,0.9206349206349206,201.9894,172.79051922260535,33.40380119418223,0,0.12098637241348242,0.12099233641845344,0.12289281511583189,-0.0019004763124469929,0,0,0,0,0,0,0,806,3,neutral,2
59,0.9365079365079365,210.0253,181.995014933524,33.394445803218915,0,0.12120007403592183,0.12120132598896695,0.12289324241623877,-0.0016919140230982,0,0,0,0,0,0,0,807,3,neutral,2
60,0.9523809523809523,210.8668,185.37170908399088,33.391304347826086,1,0.12142737861915362,0.12142404302548576,0.12289367529919148,-0.0014696298502140344,0,0,0,0,0,0,0,808,3,neutral,2
61,0.9682539682539681,204.8114,183.16332373618488,33.39737835630753,0,0.12166646507604914,0.12165899760020966,0.12289411369866673,-0.001235113655571321,0,0,0,0,0,0,0,809,3,neutral,2
62,0.9841269841269841,194.0286,176.7569581487344,33.415406900525134,0,0.12191551231947984,0.12190460143313721,0.12289455754779145,-0.0009899536522983722,0,0,0,0,0,0,0,810,3,neutral,2
63,1.0,181.5779,168.1430831964934,33.44511805454571,0,0.12217269926231701,0.1221591931271557,0.12289500677897852,-0.0007358111699207488,0,0,0,0,0,0,0,811,3,neutral,2
0,0.0,-53.71033,0.0,48.04255039327177,0,0.1210714130615133,0.12105839521731314,0.12374038937644952,-0.0027630195727263887,0,0,0,0,0,0,0,3685,5,neutral,4
1,0.015873015873015872,-43.03665,0.0,47.70239608470231,0,0.120891441590187,0.1208830569911464,0.12373947891897498,-0.0029378329023885125,0,0,0,0,0,0,0,3686,5,neutral,4
2,0.031746031746031744,-30.79945,0.0,47.36801955074192,0,0.12073274094185475,0.12073080210541615,0.12373857428172741,-0.0030895694292348555,0,0,0,0,0,0,0,3687,5,neutral,4
3,0.047619047619047616,-18.26865,0.0,47.039559535478986,0,0.1205989700601251,0.12060527332054942,0.12373767546990361,-0.0032145863936926186,0,0,0,0,0,0,0,3688,5,neutral,4
4,0.06349206349206349,-6.477806,0.0,46.71714405474734,0,0.12049378788860649,0.12050971241678912,0.12373678248696177,-0.0033096420145870033,0,0,0,0,0,0,0,3689,5,neutral,4
5,0.07936507936507936,3.962303,0.0,46.40089115190992,0,0.12042085337090754,0.12044684410391462,0.12373589533455008,-0.0033720115793490543,0,0,0,0,0,0,0,3690,5,neutral,4
6,0.09523809523809523,12.90044,0.0,46.090909632503745,0,0.1203838254506368,0.12041877445895299,0.12373501401245253,-0.003399589006249965,1,0,0,0,0,0,0,3691,5,neutral,4
7,0.1111111111111111,20.44649,0.0,45.78729977732568,0,0.12038636307140277,0.12042690990147605,0.12373413851855354,-0.0033909678690684413,0,0,0,0,0,0,0,3692,5,neutral,4
8,0.12698412698412698,26.78198,0.0,45.490154033771155,0,0.12043192296575991,0.12047190174756993,0.12373326884882259,-0.0033454968431055067,0,0,0,0,0,0,0,3693,5,neutral,4
9,0.14285714285714285,31.99854,0.0,45.1995576854475,0,0.12052016596788313,0.12055361990457651,0.12373240499731958,-0.003263306010448282,0,0,0,0,0,0,0,3694,5,neutral,4
10,0.15873015873015872,36.08522,0.0,44.91558950026947,0,0.12064737880404966,0.12067115737522369,0.12373154695622149,-0.0031453023558661104,0,0,0,0,0,0,0,3695,5,neutral,4
11,0.1746031746031746,39.02499,0.0,44.6383223574104,0,0.12080973071465319,0.12082286512171107,0.12373069471587007,-0.002993134902772279,0,0,0,0,0,0,0,3696,5,neutral,4
12,0.19047619047619047,40.92294,0.0,44.36782385362912,0,0.12100339094008782,0.12100641474966206,0.12372984826484004,-0.00280913202933998,0,0,0,0,0,0,0,3697,5,neutral,4
13,0.20634920634920634,42.03365,0.0,44.10415688962343,0,0.12122452872074727,0.12121888465767877,0.12372900759002702,-0.002596215319035082,0,0,0,0,0,0,0,3698,5,neutral,4
14,0.2222222222222222,42.72111,0.0,43.847380237175116,0,0.1214693132970253,0.12145686394353675,0.12372817267675378,-0.0023577956545273917,0,0,0,0,0,0,0,3699,5,neutral,4
15,0.23809523809523808,43.35247,0.0,43.597549087953915,0,0.12173391390931598,0.12171656755111777,0.12372734350889308,-0.0020976580708805008,0,0,0,0,0,0,0,3700,5,neutral,4
16,0.25396825396825395,44.24779,0.0,43.35471558493754,0,0.12201449979801295,0.12199395588511817,0.12372652006900527,-0.0018198421409807673,0,0,0,0,0,0,0,3701,5,neutral,4
17,0.2698412698412698,45.66953,0.0,43.11892933748463,0,0.12230724020351025,0.12228485235589358,0.1237257023384883,-0.0015285244308424783,0,0,0,0,0,0,0,3702,5,neutral,4
18,0.2857142857142857,47.90096,0.0,42.8902379211694,0,0.12260830436620167,0.12258505295508947,0.1237248902977381,-0.0012279089241373487,0,0,0,0,0,0,0,3703,5,neutral,4
19,0.30158730158730157,51.18615,0.0,42.66868736355061,0,0.12291386152648093,0.12289042290476543,0.12372408392631677,-0.0009221303732382154,0,0,0,0,0,0,0,3704,5,neutral,4
20,0.31746031746031744,55.62911,0.0,42.454322617106506,0,0.1232200809247421,0.12319697657496564,0.1237232832031261,-0.0006151743818219273,0,0,0,0,0,0,0,3705,5,neutral,4
21,0.3333333333333333,61.07118,0.0,42.2471880206214,0,0.12352313180137894,0.12350093814782116,0.1237224881065842,-0.0003108167409434208,0,0,0,0,0,0,0,3706,5,neutral,4
22,0.3492063492063492,67.0618,0.0,42.047327750361084,0,0.12381918339678516,0.12379878185767872,0.12372169861480288,-1.2583189083965212e-05,0,0,0,0,0,0,0,3707,5,neutral,4
23,0.36507936507936506,72.9874,3.134657240015311,41.854786262423524,0,0.12410440495135487,0.12408725200732733,0.12372091470576349,0.0002762706038996319,0,0,0,0,0,0,0,3708,5,neutral,4
24,0.38095238095238093,78.30339,8.44586531443075,41.66960872770024,0,0.12437501488835544,0.12436336430671881,0.12372013635748944,0.0005527603753233833,0,0,0,0,0,0,0,3709,5,neutral,4
25,0.3968253968253968,82.72202,13.122450306322687,41.49184146093306,0,0.12462841225912895,0.12462439135389929,0.12371936354821328,0.0008141587504408153,0,0,0,0,0,0,0,3710,5,neutral,4
26,0.4126984126984127,86.26793,17.03792464504802,41.32153234540219,0,0.12486320487049761,0.1248678362130954,0.12371859625653667,0.0010579688203693697,0,0,0,0,0,0,0,3711,5,neutral,4
27,0.42857142857142855,89.15936,20.25792638556588,41.15873125483559,0,0.1250780553386163,0.12509139895616142,0.12371783446158158,0.0012818906833865287,0,0,0,0,0,0,0,3712,5,neutral,4
28,0.4444444444444444,91.64908,23.021991772193296,41.00349047418744,0,0.12527162627964009,0.12529294162323115,0.12371707814313149,0.0014837864054408256,0,0,0,0,0,0,0,3713,5,neutral,4
29,0.4603174603174603,93.97588,25.716467709845542,40.8558651209974,0,0.12544258030972377,0.12547045723849212,0.12371632728176102,0.0016616490357965784,0,0,0,0,0,0,0,3714,5,neutral,4
30,0.47619047619047616,96.42308,28.838794109448273,40.71591356911161,0,0.12558958004502227,0.1256220482322554,0.12371558185895278,0.0018135810289872023,0,0,0,0,0,0,0,3715,5,neutral,4
31,0.49206349206349204,99.44734,32.93494396688077,40.583697876624306,0,0.12571128810169058,0.12574591886123473,0.12371484185720026,0.0019377866649914989,0,0,0,0,0,0,0,3716,5,neutral,4
32,0.5079365079365079,103.6272,38.49539939941083,40.45928421998545,0,0.12580636709588347,0.12584038502195444,0.12371410726009588,0.0020325818625538537,0,0,0,0,0,0,0,3717,5,neutral,4
33,0.5238095238095237,109.5462,45.82515742173747,40.34274333631748,0,0.12587347964375606,0.1259039032952349,0.12371337805240276,0.0020964232235982845,0,0,0,0,0,0,0,3718,5,neutral,4
34,0.5396825396825397,117.462,54.93991919249238,40.234150976093055,0,0.12591128836146312,0.12593511925449813,0.12371265422010957,0.002127956341479179,0,1,0,0,0,0,0,3719,5,neutral,4
35,0.5555555555555556,127.0972,65.55176994712465,40.133588368449225,0,0.1259184558651596,0.125932933155808,0.12371193575046746,0.0021260814909849915,0,0,0,0,0,0,0,3720,5,neutral,4
36,0.5714285714285714,137.7318,77.17385806523774,40.04114270155257,0,0.12589364477100043,0.1258965792607925,0.12371122263200827,0.0020900329512424623,0,0,0,0,0,0,0,3721,5,neutral,4
37,0.5873015873015872,148.4999,89.30698241729867,39.95690762058622,0,0.12583551769514048,0.12582571339207196,0.12371051485454347,0.00201946656114614,0,0,0,0,0,0,0,3722,5,neutral,4
38,0.6031746031746031,158.8197,101.61218110004975,39.88098374610616,0,0.12574273725373478,0.12572050204889035,0.12370981240914336,0.0019145488350107486,0,0,0,0,0,0,0,3723,5,neutral,4
39,0.6190476190476191,168.6199,113.96564625119129,39.81347921571407,0,0.12561396606293812,0.1255817056637654,0.12370911528809637,0.0017760402192622223,0,0,0,0,0,0,0,3724,5,neutral,4
40,0.6349206349206349,178.221,126.35047923784965,39.75451025221826,0,0.12544796124479207,0.12541074846520162,0.12370842348484865,0.0016053649552113807,0,0,0,0,0,0,0,3725,5,neutral,4
41,0.6507936507936507,187.9198,138.63609245661058,39.70420176170765,0,0.12524646509214885,0.12520976796902464,0.12370773699392426,0.0014046605704683209,0,0,0,0,0,0,0,3726,5,neutral,4
42,0.6666666666666666,197.5233,150.37351631270457,39.662687965250115,0,0.12501474058492254,0.12498163830674412,0.12370705581082699,0.001176801207403691,0,0,0,0,0,0,0,3727,5,neutral,4
43,0.6825396825396826,206.103,160.7421950244605,39.63011306824848,0,0.12475825322704966,0.12472996327408165,0.12370637993192479,0.0009253906717924581,0,0,0,0,0,0,0,3728,5,neutral,4
44,0.6984126984126984,212.2414,168.70942881089414,39.60663197185162,0,0.12448246852246642,0.12445903693804733,0.12370570935431892,0.0006547230400215832,0,0,0,0,0,0,0,3729,5,neutral,4
45,0.7142857142857142,214.5587,173.3461326612791,39.59241103122883,0,0.1241928519751093,0.12417377165593506,0.12370504407569932,0.0003697106782301599,0,0,0,0,0,0,0,3730,5,neutral,4
46,0.7301587301587301,212.3259,174.1497811154689,39.58762886597938,1,0.12389486908891484,0.12387959525894657,0.1237043840941892,7.578142608909329e-05,0,0,0,0,0,0,0,3731,5,neutral,4
47,0.746031746031746,205.7675,171.21325155333733,39.589464677548015,0,0.12359398536781921,0.12358232083427582,0.12370372940818132,-0.00022125162095055172,0,0,0,0,0,0,0,3732,5,neutral,4
48,0.7619047619047619,195.91,165.1562436831314,39.59492402632753,0,0.12329566631575894,0.12328799396451082,0.1237030800161693,-0.0005153428720868298,0,0,0,0,0,0,0,3733,5,neutral,4
49,0.7777777777777777,184.0653,156.86050375850692,39.60393621588531,0,0.12300537743667056,0.12300272345229554,0.1237024359165771,-0.0008003835163341144,0,0,0,0,0,1,0,3734,5,neutral,4
50,0.7936507936507936,171.2845,147.1504577988657,39.61643235677754,0,0.12272858423449023,0.12273250248141625,0.12370179710759033,-0.0010703803612679827,0,0,0,0,0,0,0,3735,5,neutral,4
51,0.8095238095238095,157.9865,136.58109112346992,39.632345241890576,0,0.12247075221315457,0.12248302784108316,0.12370116358699264,-0.00131963660857971,0,0,0,0,0,0,0,3736,5,neutral,4
52,0.8253968253968254,144.1051,125.42619596635137,39.65160922633513,0,0.12223734687659979,0.12225952524161376,0.12370053535201095,-0.0015429265382377526,0,0,0,0,0,0,0,3737,5,neutral,4
53,0.8412698412698412,129.4279,113.84432505048578,39.674160111577976,0,0.12203383372876239,0.12206658882238694,0.12369991239917243,-0.0017356560003905991,0,0,0,0,0,0,0,3738,5,neutral,4
54,0.8571428571428571,114.0521,102.10309367245888,39.69993503351706,0,0.12186567827357886,0.12190804262123324,0.12369929472417641,-0.0018940009458479974,0,0,0,0,0,0,0,3739,5,neutral,4
55,0.873015873015873,98.56793,90.71640128781661,39.728872354226816,0,0.12173834601498547,0.12178683095918132,0.12369868232178388,-0.0020150170412238577,0,0,0,0,0,0,0,3740,5,neutral,4
56,0.8888888888888888,83.96106,80.4033296668111,39.76091155711871,0,0.12165721584161127,0.121704943340348,0.1236980751857266,-0.0020967147689549904,0,0,0,0,0,0,0,3741,5,neutral,4
57,0.9047619047619047,71.23996,71.87835717110406,39.79599314527996,0,0.12162392733837674,0.12166337757778199,0.12369747330863771,-0.002138096301387846,0,0,0,0,0,0,0,3742,5,neutral,4
58,0.9206349206349206,61.04083,65.5752719782938,39.83405854276992,0,0.12163503563284171,0.12166214253141477,0.12369687668200474,-0.002139152762780352,1,0,0,0,0,0,0,3743,5,neutral,4
59,0.9365079365079365,53.35159,61.445639812436234,39.87504999866913,0,0.12168673221780982,0.12170029929368832,0.12369628529614592,-0.002100823043650218,0,0,0,0,0,0,0,3744,5,neutral,4
60,0.9523809523809523,47.50549,58.94077924904162,39.9189104936907,0,0.12177520858608462,0.12177603717275112,0.12369569914020949,-0.002024917817578035,0,0,0,0,0,0,0,3745,5,neutral,4
61,0.9682539682539681,42.44324,57.20178803819325,39.965583649177496,0,0.1218966562304698,0.12188677869981857,0.12369511820219567,-0.001914014533868647,0,0,0,0,0,0,0,3746,5,neutral,4
62,0.9841269841269841,37.10944,55.385354009224336,40.01501363832166,0,0.12204726664376879,0.12202930634974564,0.12369454246900023,-0.0017713306970217103,0,0,0,0,0,0,0,3747,5,neutral,4
63,1.0,30.83557,52.987047986173906,40.06714509945574,0,0.12222323131878535,0.1221999028187226,0.12369397192647824,-0.001600583589099542,0,0,0,0,0,0,0,3748,5,neutral,4
