timestamp,value,norm_ts
1619091210.64069,-2.173431,2.0522501468658447
1619091210.65632,-4.86908,2.067880153656006
1619091210.67194,-8.420074,2.0835001468658447
1619091210.68757,-12.76181,2.099130153656006
1619091210.70319,-17.48529,2.1147501468658447
1619091210.71882,-22.02869,2.130380153656006
1619091210.73444,-25.87003,2.1460001468658447
1619091210.75007,-28.7496,2.161630153656006
1619091210.7657,-30.7482,2.177260160446167
1619091210.78132,-32.28668,2.192880153656006
1619091210.79695,-33.97006,2.208510160446167
1619091210.81257,-36.45798,2.224130153656006
1619091210.8282,-40.28751,2.239760160446167
1619091210.84382,-45.61734,2.255380153656006
1619091210.85945,-52.07101,2.271010160446167
1619091210.87508,-58.63965,2.286640167236328
1619091210.8907,-63.78339,2.302260160446167
1619091210.90633,-65.79312,2.317890167236328
1619091210.92195,-63.36176,2.333510160446167
1619091210.93758,-56.05603,2.349140167236328
1619091210.9532,-44.57346,2.364760160446167
1619091210.96883,-30.57642,2.380390167236328
1619091210.98446,-16.20227,2.3960201740264893
1619091211.00008,-3.36618,2.411640167236328
1619091211.01571,6.75531,2.4272701740264893
1619091211.03133,14.02167,2.442890167236328
1619091211.04696,19.12589,2.4585201740264893
1619091211.06258,23.19052,2.474140167236328
1619091211.07821,27.25577,2.4897701740264893
1619091211.09384,31.91229,2.5053999423980713
1619091211.10946,37.15494,2.5210201740264893
1619091211.12509,42.49448,2.5366499423980713
1619091211.14071,47.20706,2.5522701740264893
1619091211.15634,50.61523,2.5678999423980713
1619091211.17196,52.37741,2.5835201740264893
1619091211.18759,52.49515,2.5991499423980713
1619091211.20322,51.33545,2.6147799491882324
1619091211.21884,49.3981,2.6303999423980713
1619091211.23447,47.18832,2.6460299491882324
1619091211.25009,45.12125,2.6616499423980713
1619091211.26572,43.49112,2.6772799491882324
1619091211.28134,42.49045,2.6928999423980713
1619091211.29697,42.15976,2.7085299491882324
1619091211.3126,42.44559,2.7241599559783936
1619091211.32822,43.08829,2.7397799491882324
1619091211.34385,43.70294,2.7554099559783936
1619091211.35947,43.83755,2.7710299491882324
1619091211.3751,43.1431,2.7866599559783936
1619091211.39072,41.49838,2.8022799491882324
1619091211.40635,39.01572,2.8179099559783936
1619091211.42198,36.02319,2.8335399627685547
1619091211.4376,32.88075,2.8491599559783936
1619091211.45323,29.81194,2.8647899627685547
1619091211.46885,26.88156,2.8804099559783936
1619091211.48448,23.99582,2.8960399627685547
1619091211.5001,21.02481,2.9116599559783936
1619091211.51573,17.91121,2.9272899627685547
1619091211.53136,14.70888,2.942919969558716
1619091211.54698,11.52405,2.9585399627685547
1619091211.56261,8.451996,2.974169969558716
1619091211.57823,5.462753,2.9897899627685547
1619091211.59386,2.462296,3.005419969558716
1619091211.60948,-0.6818542,3.0210399627685547
1619091211.62511,-3.992599,3.036669969558716
1619091211.64074,-7.345734,3.052299976348877
1619091211.65636,-10.49738,3.067919969558716
1619091211.67199,-13.23532,3.083549976348877
1619091211.68761,-15.58252,3.099169969558716
1619091211.70324,-17.8118,3.114799976348877
1619091211.71886,-20.36929,3.130419969558716
1619091211.73449,-23.65511,3.146049976348877
1619091211.75012,-27.77879,3.161679983139038
1619091211.76574,-32.51076,3.177299976348877
1619091211.78137,-37.36778,3.192929983139038
1619091211.79699,-41.907,3.208549976348877
1619091211.81262,-45.8885,3.224179983139038
1619091211.82825,-49.42593,3.239809989929199
1619091211.84387,-52.8844,3.255429983139038
1619091211.8595,-56.72437,3.271059989929199
1619091211.87512,-61.37076,3.286679983139038
1619091211.89075,-67.10793,3.302309989929199
1619091211.90637,-73.95094,3.317929983139038
1619091211.922,-81.57863,3.333559989929199
1619091211.93763,-89.18515,3.3491899967193604
1619091211.95325,-95.46675,3.364809989929199
1619091211.96888,-98.8096,3.3804399967193604
1619091211.9845,-97.74788,3.396059989929199
1619091212.00013,-91.49639,3.4116899967193604
1619091212.01575,-80.36996,3.427309989929199
1619091212.03138,-65.80898,3.4429399967193604
1619091212.04701,-50.02032,3.4585700035095215
1619091212.06263,-35.26208,3.4741899967193604
1619091212.07826,-23.18422,3.4898200035095215
1619091212.09388,-14.42853,3.5054399967193604
1619091212.10951,-8.627396,3.5210700035095215
1619091212.12513,-4.716003,3.5366899967193604
1619091212.14076,-1.506714,3.5523200035095215
1619091212.15639,1.970879,3.5679500102996826
1619091212.17201,6.174683,3.5835700035095215
1619091212.18764,11.11486,3.5992000102996826
1619091212.20326,16.45827,3.6148200035095215
1619091212.21889,21.76956,3.6304500102996826
1619091212.23451,26.66123,3.6460700035095215
1619091212.25014,30.88486,3.6617000102996826
1619091212.26577,34.32635,3.6773300170898438
1619091212.28139,36.98737,3.6929500102996826
1619091212.29702,38.97404,3.7085800170898438
1619091212.31264,40.46433,3.7242000102996826
1619091212.32827,41.71834,3.7398300170898438
1619091212.34389,42.95679,3.7554500102996826
1619091212.35952,44.36835,3.7710800170898438
1619091212.37515,45.99541,3.786710023880005
1619091212.39077,47.70684,3.8023300170898438
1619091212.4064,49.27867,3.817960023880005
1619091212.42202,50.43707,3.8335800170898438
1619091212.43765,50.96249,3.849210023880005
1619091212.45327,50.69759,3.8648300170898438
1619091212.4689,49.61752,3.880460023880005
1619091212.48453,47.74775,3.896090030670166
1619091212.50015,45.21468,3.911710023880005
1619091212.51578,42.25669,3.927340030670166
1619091212.5314,39.18702,3.942960023880005
1619091212.54703,36.31725,3.958590030670166
1619091212.56265,33.85272,3.974210023880005
1619091212.57828,31.78867,3.989840030670166
1619091212.59391,29.90147,4.005470037460327
1619091212.60953,27.86182,4.021090030670166
1619091212.62516,25.37893,4.036720037460327
1619091212.64078,22.36117,4.052340030670166
1619091212.65641,18.94329,4.067970037460327
1619091212.67203,15.35754,4.083590030670166
1619091212.68766,11.83729,4.099220037460327
1619091212.70329,8.470291,4.114850044250488
1619091212.71891,5.191032,4.130470037460327
1619091212.73454,1.837341,4.146100044250488
1619091212.75016,-1.718147,4.161720037460327
1619091212.76579,-5.530418,4.177350044250488
1619091212.78141,-9.605572,4.192970037460327
1619091212.79704,-13.94351,4.208600044250488
1619091212.81267,-18.64799,4.224230051040649
1619091212.82829,-23.8525,4.239850044250488
1619091212.84392,-29.62851,4.255480051040649
1619091212.85954,-35.80539,4.271100044250488
1619091212.87517,-41.97846,4.286730051040649
1619091212.89079,-47.57883,4.302350044250488
1619091212.90642,-52.11634,4.317980051040649
1619091212.92205,-55.44864,4.3336100578308105
1619091212.93767,-57.87587,4.349230051040649
1619091212.9533,-60.12917,4.3648600578308105
1619091212.96892,-63.0677,4.380480051040649
1619091212.98455,-67.32585,4.3961100578308105
1619091213.00017,-73.05071,4.411730051040649
1619091213.0158,-79.68023,4.4273600578308105
1619091213.03143,-86.00629,4.442990064620972
1619091213.04705,-90.46249,4.4586100578308105
1619091213.06268,-91.50217,4.474240064620972
1619091213.0783,-88.05869,4.4898600578308105
1619091213.09393,-79.92102,4.505490064620972
1619091213.10955,-67.82445,4.5211100578308105
1619091213.12518,-53.30461,4.536740064620972
1619091213.14081,-38.25867,4.552370071411133
1619091213.15643,-24.38877,4.567990064620972
1619091213.17206,-12.80257,4.583620071411133
1619091213.18768,-3.781784,4.599240064620972
1619091213.20331,3.076138,4.614870071411133
1619091213.21893,8.617985,4.630490064620972
1619091213.23456,13.73928,4.646120071411133
1619091213.25019,19.09898,4.661750078201294
1619091213.26581,24.96745,4.677370071411133
1619091213.28144,31.23777,4.693000078201294
1619091213.29706,37.51822,4.708620071411133
1619091213.31269,43.30161,4.724250078201294
1619091213.32831,48.13689,4.739870071411133
1619091213.34394,51.71743,4.755500078201294
1619091213.35957,54.04335,4.771130084991455
1619091213.37519,55.34497,4.786750078201294
1619091213.39082,56.036,4.802380084991455
1619091213.40644,56.53726,4.818000078201294
1619091213.42207,57.12031,4.833630084991455
1619091213.43769,57.86109,4.849250078201294
1619091213.45332,58.65176,4.864880084991455
1619091213.46895,59.24259,4.880510091781616
1619091213.48457,59.34821,4.896130084991455
1619091213.5002,58.76342,4.911760091781616
1619091213.51582,57.34916,4.927380084991455
1619091213.53145,55.04397,4.943010091781616
1619091213.54707,51.83867,4.958630084991455
1619091213.5627,47.75267,4.974260091781616
1619091213.57833,42.83905,4.989890098571777
1619091213.59395,37.20639,5.005510091781616
1619091213.60958,31.04986,5.021140098571777
1619091213.6252,24.60014,5.036760091781616
1619091213.64083,18.12458,5.052390098571777
1619091213.65645,11.90296,5.068010091781616
1619091213.67208,6.202754,5.083640098571777
1619091213.68771,1.295285,5.0992701053619385
1619091213.70333,-2.64048,5.114890098571777
1619091213.71896,-5.463842,5.1305201053619385
1619091213.73458,-7.211313,5.146140098571777
1619091213.75021,-8.000635,5.1617701053619385
1619091213.76583,-8.060242,5.177390098571777
1619091213.78146,-7.604399,5.1930201053619385
1619091213.79709,-6.810677,5.2086501121521
1619091213.81271,-5.773016,5.2242701053619385
1619091213.82834,-4.533091,5.2399001121521
1619091213.84396,-3.168644,5.2555201053619385
1619091213.85959,-1.884407,5.2711501121521
1619091213.87521,-1.047985,5.2867701053619385
1619091213.89084,-1.128159,5.3024001121521
1619091213.90647,-2.527927,5.318030118942261
1619091213.92209,-5.453438,5.3336501121521
1619091213.93772,-9.818886,5.349280118942261
1619091213.95334,-15.24625,5.3649001121521
1619091213.96897,-21.20546,5.380530118942261
1619091213.98459,-27.27356,5.3961501121521
1619091214.00022,-33.22995,5.411780118942261
1619091214.01585,-39.1841,5.427410125732422
1619091214.03147,-45.49656,5.443030118942261
1619091214.0471,-52.55868,5.458660125732422
1619091214.06272,-60.48567,5.474280118942261
1619091214.07835,-68.93655,5.489910125732422
1619091214.09398,-77.01769,5.505540132522583
1619091214.1096,-83.45488,5.521160125732422
1619091214.12523,-86.9755,5.536790132522583
1619091214.14085,-86.69827,5.552410125732422
1619091214.15648,-82.44859,5.568040132522583
1619091214.1721,-74.81522,5.583660125732422
1619091214.18773,-64.95453,5.599290132522583
1619091214.20336,-54.27818,5.614920139312744
1619091214.21898,-44.0002,5.630540132522583
1619091214.23461,-34.92222,5.646170139312744
1619091214.25023,-27.30605,5.661790132522583
1619091214.26586,-20.98269,5.677420139312744
1619091214.28148,-15.55315,5.693040132522583
1619091214.29711,-10.60717,5.708670139312744
1619091214.31274,-5.821083,5.724300146102905
1619091214.32836,-1.07531,5.739920139312744
1619091214.34399,3.603287,5.755550146102905
1619091214.35961,8.074379,5.771170139312744
1619091214.37524,12.11065,5.786800146102905
1619091214.39086,15.47436,5.802420139312744
1619091214.40649,18.01165,5.818050146102905
1619091214.42212,19.72197,5.833680152893066
1619091214.43774,20.78577,5.849300146102905
1619091214.45337,21.56528,5.864930152893066
1619091214.46899,22.50254,5.880550146102905
1619091214.48462,23.94666,5.896180152893066
1619091214.50024,26.04251,5.911800146102905
1619091214.51587,28.66495,5.927430152893066
1619091214.5315,31.4809,5.9430601596832275
1619091214.54712,34.04751,5.958680152893066
1619091214.56275,35.98741,5.9743101596832275
1619091214.57837,37.03597,5.989930152893066
1619091214.594,37.09321,6.0055601596832275
1619091214.60962,36.19466,6.021180152893066
1619091214.62525,34.43076,6.0368101596832275
1619091214.64088,31.97833,6.052440166473389
1619091214.6565,29.00577,6.0680601596832275
1619091214.67213,25.68697,6.083690166473389
1619091214.68775,22.18193,6.0993101596832275
1619091214.70338,18.58593,6.114940166473389
1619091214.719,14.95079,6.1305601596832275
1619091214.73463,11.28719,6.146190166473389
1619091214.75026,7.572891,6.16182017326355
1619091214.76588,3.804253,6.177440166473389
1619091214.78151,-0.03861618,6.19307017326355
1619091214.79713,-3.969128,6.208690166473389
1619091214.81276,-8.040787,6.22432017326355
1619091214.82838,-12.26582,6.239940166473389
1619091214.84401,-16.59686,6.25557017326355
1619091214.85964,-20.87725,6.271199941635132
1619091214.87526,-24.89098,6.28682017326355
1619091214.89089,-28.43458,6.302449941635132
1619091214.90651,-31.42686,6.31807017326355
1619091214.92214,-33.93918,6.333699941635132
1619091214.93776,-36.25275,6.34932017326355
1619091214.95339,-38.77623,6.364949941635132
1619091214.96902,-41.99426,6.380579948425293
1619091214.98464,-46.3712,6.396199941635132
1619091215.00027,-52.16224,6.411829948425293
1619091215.01589,-59.19431,6.427449941635132
1619091215.03152,-66.64356,6.443079948425293
1619091215.04714,-73.1153,6.458699941635132
1619091215.06277,-76.88988,6.474329948425293
1619091215.0784,-76.48135,6.489959955215454
1619091215.09402,-71.19688,6.505579948425293
1619091215.10965,-61.40903,6.521209955215454
1619091215.12527,-48.51975,6.536829948425293
1619091215.1409,-34.40795,6.552459955215454
1619091215.15652,-20.81322,6.568079948425293
1619091215.17215,-8.889561,6.583709955215454
1619091215.18778,1.014214,6.599339962005615
1619091215.2034,9.131037,6.614959955215454
1619091215.21903,15.96638,6.630589962005615
1619091215.23465,22.03614,6.646209955215454
1619091215.25028,27.68091,6.661839962005615
1619091215.2659,33.06149,6.677459955215454
1619091215.28153,38.2283,6.693089962005615
1619091215.29716,43.10541,6.708719968795776
1619091215.31278,47.55696,6.724339962005615
1619091215.32841,51.43933,6.739969968795776
1619091215.34403,54.60728,6.755589962005615
1619091215.35966,56.96484,6.771219968795776
1619091215.37528,58.53669,6.786839962005615
1619091215.39091,59.47836,6.802469968795776
1619091215.40654,60.04501,6.8180999755859375
1619091215.42216,60.56218,6.833719968795776
1619091215.43779,61.31425,6.8493499755859375
1619091215.45341,62.44483,6.864969968795776
1619091215.46904,63.92741,6.8805999755859375
1619091215.48466,65.50445,6.896219968795776
1619091215.50029,66.76247,6.9118499755859375
1619091215.51592,67.25539,6.927479982376099
1619091215.53154,66.67251,6.9430999755859375
1619091215.54717,64.93251,6.958729982376099
1619091215.56279,62.25697,6.9743499755859375
1619091215.57842,59.09482,6.989979982376099
1619091215.59404,55.94752,7.0055999755859375
1619091215.60967,53.24743,7.021229982376099
1619091215.6253,51.17321,7.03685998916626
1619091215.64092,49.62754,7.052479982376099
1619091215.65655,48.43382,7.06810998916626
1619091215.67217,47.42507,7.083729982376099
1619091215.6878,46.60954,7.09935998916626
1619091215.70342,46.20665,7.114979982376099
1619091215.71905,46.49641,7.13060998916626
1619091215.73468,47.78322,7.146239995956421
1619091215.7503,50.25413,7.16185998916626
1619091215.76593,54.01808,7.177489995956421
1619091215.78155,59.16957,7.19310998916626
1619091215.79718,65.75553,7.208739995956421
1619091215.8128,73.74247,7.22435998916626
1619091215.82843,82.97518,7.239989995956421
1619091215.84406,93.15347,7.255620002746582
1619091215.85968,103.9039,7.271239995956421
1619091215.87531,114.9616,7.286870002746582
1619091215.89093,126.3483,7.302489995956421
1619091215.90656,138.307,7.318120002746582
1619091215.92218,151.2007,7.333739995956421
1619091215.93781,165.1679,7.349370002746582
1619091215.95344,179.8352,7.365000009536743
1619091215.96906,194.2204,7.380620002746582
1619091215.98469,206.7824,7.396250009536743
1619091216.00031,215.6602,7.411870002746582
1619091216.01594,219.0786,7.427500009536743
1619091216.03156,215.7531,7.443120002746582
1619091216.04719,205.2499,7.458750009536743
1619091216.06282,188.0511,7.474380016326904
1619091216.07844,165.4507,7.490000009536743
1619091216.09407,139.177,7.505630016326904
1619091216.10969,111.0639,7.521250009536743
1619091216.12532,82.76697,7.536880016326904
1619091216.14094,55.64359,7.552500009536743
1619091216.15657,30.8634,7.568130016326904
1619091216.1722,9.333069,7.583760023117065
1619091216.18782,-8.38739,7.599380016326904
1619091216.20345,-22.2916,7.615010023117065
1619091216.21907,-33.12103,7.630630016326904
1619091216.2347,-42.25549,7.646260023117065
1619091216.25032,-51.45117,7.661880016326904
1619091216.26595,-62.27594,7.677510023117065
1619091216.28158,-75.6727,7.693140029907227
1619091216.2972,-91.83673,7.708760023117065
1619091216.31283,-110.4218,7.724390029907227
1619091216.32845,-130.8284,7.740010023117065
1619091216.34408,-152.4583,7.755640029907227
1619091216.3597,-174.6114,7.771260023117065
1619091216.37533,-196.253,7.786890029907227
1619091216.39096,-215.7952,7.802520036697388
1619091216.40658,-231.2164,7.818140029907227
1619091216.42221,-240.5106,7.833770036697388
1619091216.43783,-242.2986,7.849390029907227
1619091216.45346,-236.4297,7.865020036697388
1619091216.46908,-224.0218,7.880640029907227
1619091216.48471,-207.0886,7.896270036697388
1619091216.50034,-187.88,7.911900043487549
1619091216.51596,-168.2535,7.927520036697388
1619091216.53159,-149.3801,7.943150043487549
1619091216.54721,-131.7064,7.958770036697388
1619091216.56284,-115.2307,7.974400043487549
1619091216.57846,-99.65057,7.990020036697388
1619091216.59409,-84.50836,8.005650043487549
1619091216.60972,-69.27051,8.02128005027771
1619091216.62534,-53.44531,8.036900043487549
1619091216.64097,-36.93433,8.05253005027771
1619091216.65659,-20.28516,8.068150043487549
1619091216.67222,-4.853271,8.08378005027771
1619091216.68785,7.404053,8.099410057067871
1619091216.70347,14.53094,8.11503005027771
1619091216.7191,15.2793,8.130660057067871
1619091216.73472,9.736511,8.14628005027771
1619091216.75035,-0.6171875,8.161910057067871
1619091216.76597,-13.5011,8.17753005027771
1619091216.7816,-26.76221,8.193160057067871
1619091216.79723,-39.15808,8.208790063858032
1619091216.81285,-50.61017,8.224410057067871
1619091216.82848,-61.79095,8.240040063858032
1619091216.8441,-73.31543,8.255660057067871
1619091216.85973,-85.06274,8.271290063858032
1619091216.87535,-96.1438,8.286910057067871
1619091216.89098,-105.3408,8.302540063858032
1619091216.90661,-111.8608,8.318170070648193
1619091216.92223,-115.7469,8.333790063858032
1619091216.93786,-117.701,8.349420070648193
1619091216.95348,-118.5749,8.365040063858032
1619091216.96911,-118.9102,8.380670070648193
1619091216.98473,-118.8185,8.396290063858032
1619091217.00036,-118.4091,8.411920070648193
1619091217.01599,-118.0901,8.427550077438354
1619091217.03161,-118.5016,8.443170070648193
1619091217.04724,-119.8853,8.458800077438354
1619091217.06286,-121.4373,8.474420070648193
1619091217.07849,-121.0851,8.490050077438354
1619091217.09411,-116.1376,8.505670070648193
1619091217.10974,-104.5548,8.521300077438354
1619091217.12537,-86.05676,8.536930084228516
1619091217.14099,-62.48926,8.552550077438354
1619091217.15662,-37.1759,8.568180084228516
1619091217.17224,-13.6322,8.583800077438354
1619091217.18787,5.681213,8.599430084228516
1619091217.20349,19.95416,8.615050077438354
1619091217.21912,29.84827,8.630680084228516
1619091217.23475,36.78888,8.646310091018677
1619091217.25037,42.21063,8.661930084228516
1619091217.266,47.1167,8.677560091018677
1619091217.28162,52.01953,8.693180084228516
1619091217.29725,57.0564,8.708810091018677
1619091217.31287,62.18408,8.724430084228516
1619091217.3285,67.19897,8.740060091018677
1619091217.34413,71.73126,8.755690097808838
1619091217.35975,75.23444,8.771310091018677
1619091217.37538,77.06189,8.786940097808838
1619091217.391,76.6601,8.802560091018677
1619091217.40663,73.80444,8.818190097808838
1619091217.42225,68.73297,8.833810091018677
1619091217.43788,62.22681,8.849440097808838
1619091217.45351,55.39343,8.865070104598999
1619091217.46913,49.32367,8.880690097808838
1619091217.48476,44.67139,8.896320104598999
1619091217.50038,41.47021,8.911940097808838
1619091217.51601,39.22675,8.927570104598999
1619091217.53163,37.22308,8.943190097808838
1619091217.54726,34.9726,8.958820104598999
1619091217.56289,32.36438,8.97445011138916
1619091217.57851,29.7608,8.990070104598999
1619091217.59414,27.67041,9.00570011138916
1619091217.60976,26.50153,9.021320104598999
1619091217.62539,26.30499,9.03695011138916
1619091217.64101,26.76599,9.052570104598999
1619091217.65664,27.32397,9.06820011138916
1619091217.67227,27.40094,9.083830118179321
1619091217.68789,26.67218,9.09945011138916
1619091217.70352,25.11469,9.115080118179321
1619091217.71914,23.02802,9.13070011138916
1619091217.73477,20.86377,9.146330118179321
1619091217.75039,19.02216,9.16195011138916
1619091217.76602,17.59546,9.177580118179321
1619091217.78165,16.32861,9.193210124969482
1619091217.79727,14.68024,9.208830118179321
1619091217.8129,12.06049,9.224460124969482
1619091217.82852,8.085388,9.240080118179321
1619091217.84415,2.714661,9.255710124969482
1619091217.85977,-3.750061,9.271330118179321
1619091217.8754,-10.81628,9.286960124969482
1619091217.89103,-18.03748,9.302590131759644
1619091217.90665,-25.13818,9.318210124969482
1619091217.92228,-32.09546,9.333840131759644
1619091217.9379,-39.04779,9.349460124969482
1619091217.95353,-46.17065,9.365090131759644
1619091217.96915,-53.46051,9.380710124969482
1619091217.98478,-60.55536,9.396340131759644
1619091218.00041,-66.62109,9.411970138549805
1619091218.01603,-70.3974,9.427590131759644
1619091218.03166,-70.44751,9.443220138549805
1619091218.04728,-65.60339,9.458840131759644
1619091218.06291,-55.49445,9.474470138549805
1619091218.07853,-40.81348,9.490090131759644
1619091218.09416,-23.27203,9.505720138549805
1619091218.10979,-5.080505,9.521350145339966
1619091218.12541,11.73199,9.536970138549805
1619091218.14104,25.87738,9.552600145339966
1619091218.15666,37.03693,9.568220138549805
1619091218.17229,45.63177,9.583850145339966
1619091218.18791,52.37598,9.599470138549805
1619091218.20354,57.84552,9.615100145339966
1619091218.21917,62.28644,9.630730152130127
1619091218.23479,65.60181,9.646350145339966
1619091218.25042,67.6217,9.661980152130127
1619091218.26604,68.31317,9.677600145339966
1619091218.28167,67.82678,9.693230152130127
1619091218.29729,66.5033,9.708850145339966
1619091218.31292,64.70349,9.724480152130127
1619091218.32855,62.72589,9.740110158920288
1619091218.34417,60.80237,9.755730152130127
1619091218.3598,59.04773,9.771360158920288
1619091218.37542,57.65271,9.786980152130127
1619091218.39105,56.83215,9.802610158920288
1619091218.40667,56.90436,9.818230152130127
1619091218.4223,58.16168,9.833860158920288
1619091218.43793,60.76617,9.84949016571045
1619091218.45355,64.53619,9.865110158920288
1619091218.46918,68.83105,9.88074016571045
1619091218.4848,72.66052,9.896360158920288
1619091218.50043,74.90527,9.91199016571045
1619091218.51605,74.66772,9.927610158920288
1619091218.53168,71.63043,9.94324016571045
1619091218.54731,66.10797,9.95887017250061
1619091218.56293,58.91144,9.97449016571045
1619091218.57856,51.06262,9.99012017250061
1619091218.59418,43.43427,10.00574016571045
1619091218.60981,36.59888,10.02137017250061
1619091218.62543,30.71655,10.03699016571045
1619091218.64106,25.6452,10.05262017250061
1619091218.65669,21.02173,10.068249940872192
1619091218.67231,16.39752,10.08387017250061
1619091218.68794,11.28601,10.099499940872192
1619091218.70356,5.311157,10.11512017250061
1619091218.71919,-1.684692,10.130749940872192
1619091218.73481,-9.596985,10.14637017250061
1619091218.75044,-18.12579,10.161999940872192
1619091218.76607,-26.85419,10.177629947662354
1619091218.78169,-35.43768,10.193249940872192
1619091218.79732,-43.70349,10.208879947662354
1619091218.81294,-51.64795,10.224499940872192
1619091218.82857,-59.48798,10.240129947662354
1619091218.84419,-67.56573,10.255749940872192
1619091218.85982,-76.35461,10.271379947662354
1619091218.87545,-86.27148,10.287009954452515
1619091218.89107,-97.35132,10.302629947662354
1619091218.9067,-108.8834,10.318259954452515
1619091218.92232,-119.2743,10.333879947662354
1619091218.93795,-126.3279,10.349509954452515
1619091218.95358,-127.9071,10.365139961242676
1619091218.9692,-122.7911,10.380759954452515
1619091218.98483,-111.2842,10.396389961242676
1619091219.00045,-95.13983,10.412009954452515
1619091219.01608,-77.005,10.427639961242676
1619091219.0317,-59.40845,10.443259954452515
1619091219.04733,-43.99994,10.458889961242676
1619091219.06296,-31.26495,10.474519968032837
1619091219.07858,-20.75909,10.490139961242676
1619091219.09421,-11.68372,10.505769968032837
1619091219.10983,-3.325317,10.521389961242676
1619091219.12546,4.605164,10.537019968032837
1619091219.14108,12.04523,10.552639961242676
1619091219.15671,18.73975,10.568269968032837
1619091219.17234,24.45093,10.583899974822998
1619091219.18796,29.04742,10.599519968032837
1619091219.20359,32.53198,10.615149974822998
1619091219.21921,35.00775,10.630769968032837
1619091219.23484,36.61023,10.646399974822998
1619091219.25046,37.48724,10.662019968032837
1619091219.26609,37.78955,10.677649974822998
1619091219.28172,37.72375,10.69327998161316
1619091219.29734,37.57324,10.708899974822998
1619091219.31297,37.73779,10.72452998161316
1619091219.32859,38.55164,10.740149974822998
1619091219.34422,40.11786,10.75577998161316
1619091219.35984,42.21704,10.771399974822998
1619091219.37547,44.31445,10.78702998161316
1619091219.3911,45.7597,10.80265998840332
1619091219.40672,46.07233,10.81827998161316
1619091219.42235,45.13239,10.83390998840332
1619091219.43797,43.17645,10.84952998161316
1619091219.4536,40.61694,10.86515998840332
1619091219.46922,37.84918,10.88077998161316
1619091219.48485,35.02972,10.89640998840332
1619091219.50048,32.16412,10.912039995193481
1619091219.5161,29.18823,10.92765998840332
1619091219.53173,26.0788,10.943289995193481
1619091219.54735,22.90887,10.95890998840332
1619091219.56298,19.72034,10.974539995193481
1619091219.5786,16.4809,10.99015998840332
1619091219.59423,13.00085,11.005789995193481
1619091219.60986,9.052612,11.021420001983643
1619091219.62548,4.453064,11.037039995193481
1619091219.64111,-0.7496948,11.052670001983643
1619091219.65673,-6.300964,11.068289995193481
1619091219.67236,-11.81274,11.083920001983643
1619091219.68798,-16.91565,11.099539995193481
1619091219.70361,-21.46967,11.115170001983643
1619091219.71924,-25.6062,11.130800008773804
1619091219.73486,-29.6911,11.146420001983643
1619091219.75049,-34.16223,11.162050008773804
1619091219.76611,-39.30286,11.177670001983643
1619091219.78174,-45.10266,11.193300008773804
1619091219.79736,-51.24689,11.208920001983643
1619091219.81299,-57.23431,11.224550008773804
1619091219.82862,-62.59149,11.240180015563965
1619091219.84424,-67.11328,11.255800008773804
1619091219.85987,-70.9715,11.271430015563965
1619091219.87549,-74.6485,11.287050008773804
1619091219.89112,-78.79388,11.302680015563965
1619091219.90674,-84.03448,11.318300008773804
1619091219.92237,-90.75098,11.333930015563965
1619091219.938,-98.89917,11.349560022354126
1619091219.95362,-107.8961,11.365180015563965
1619091219.96925,-116.4544,11.380810022354126
1619091219.98487,-122.7668,11.396430015563965
1619091220.0005,-124.8361,11.412060022354126
1619091220.01612,-121.051,11.427680015563965
1619091220.03175,-110.7961,11.443310022354126
1619091220.04738,-94.83655,11.458940029144287
1619091220.063,-75.19446,11.474560022354126
1619091220.07863,-54.5163,11.490190029144287
1619091220.09425,-35.24615,11.505810022354126
1619091220.10988,-18.85767,11.521440029144287
1619091220.1255,-5.663025,11.537060022354126
1619091220.14113,4.932861,11.552690029144287
1619091220.15676,13.84436,11.568320035934448
1619091220.17238,21.78021,11.583940029144287
1619091220.18801,29.00403,11.599570035934448
1619091220.20363,35.41461,11.615190029144287
1619091220.21926,40.80005,11.630820035934448
1619091220.23488,45.04828,11.646440029144287
1619091220.25051,48.21802,11.662070035934448
1619091220.26614,50.44305,11.67770004272461
1619091220.28176,51.85822,11.693320035934448
1619091220.29739,52.5415,11.70895004272461
1619091220.31301,52.57831,11.724570035934448
1619091220.32864,52.11823,11.74020004272461
1619091220.34426,51.44525,11.755820035934448
1619091220.35989,50.93372,11.77145004272461
1619091220.37552,50.9209,11.78708004951477
1619091220.39114,51.57928,11.80270004272461
1619091220.40677,52.79822,11.81833004951477
1619091220.42239,54.15369,11.83395004272461
1619091220.43802,55.09332,11.84958004951477
1619091220.45364,55.04663,11.86520004272461
1619091220.46927,53.67523,11.88083004951477
1619091220.4849,50.96539,11.896460056304932
1619091220.50052,47.19574,11.91208004951477
1619091220.51615,42.78296,11.927710056304932
1619091220.53177,38.13617,11.94333004951477
1619091220.5474,33.57556,11.958960056304932
1619091220.56302,29.30145,11.97458004951477
1619091220.57865,25.44824,11.990210056304932
1619091220.59428,22.08105,12.005840063095093
1619091220.6099,19.24829,12.021460056304932
1619091220.62553,16.91339,12.037090063095093
1619091220.64115,14.97052,12.052710056304932
1619091220.65678,13.17859,12.068340063095093
1619091220.6724,11.26746,12.083960056304932
1619091220.68803,8.958984,12.099590063095093
1619091220.70366,6.056702,12.115220069885254
1619091220.71928,2.511658,12.130840063095093
1619091220.73491,-1.620605,12.146470069885254
1619091220.75053,-6.167419,12.162090063095093
1619091220.76616,-10.96887,12.177720069885254
1619091220.78178,-15.93707,12.193340063095093
1619091220.79741,-21.15924,12.208970069885254
1619091220.81304,-26.79608,12.224600076675415
1619091220.82866,-33.02698,12.240220069885254
1619091220.84429,-39.86481,12.255850076675415
1619091220.85991,-47.06036,12.271470069885254
1619091220.87554,-54.19843,12.287100076675415
1619091220.89116,-60.77319,12.302720069885254
1619091220.90679,-66.39673,12.318350076675415
1619091220.92242,-70.96295,12.333980083465576
1619091220.93804,-74.67328,12.349600076675415
1619091220.95367,-77.98541,12.365230083465576
1619091220.96929,-81.58588,12.380850076675415
1619091220.98492,-86.22461,12.396480083465576
1619091221.00054,-92.53223,12.412100076675415
1619091221.01617,-100.6809,12.427730083465576
1619091221.0318,-110.0779,12.443360090255737
1619091221.04742,-119.165,12.458980083465576
1619091221.06305,-125.6308,12.474610090255737
1619091221.07867,-127.0182,12.490230083465576
1619091221.0943,-121.5399,12.505860090255737
1619091221.10993,-108.9022,12.521490097045898
1619091221.12555,-90.48016,12.537110090255737
1619091221.14118,-68.91968,12.552740097045898
1619091221.1568,-47.29169,12.568360090255737
1619091221.17243,-28.02014,12.583990097045898
1619091221.18805,-12.25549,12.599610090255737
1619091221.20368,0.1068115,12.615240097045898
1619091221.21931,10.0423,12.63087010383606
1619091221.23493,18.68372,12.646490097045898
1619091221.25056,26.84894,12.66212010383606
1619091221.26618,34.85699,12.677740097045898
1619091221.28181,42.69653,12.69337010383606
1619091221.29743,50.19727,12.708990097045898
1619091221.31306,57.17261,12.72462010383606
1619091221.32869,63.41492,12.74025011062622
1619091221.34431,68.63495,12.75587010383606
1619091221.35994,72.48584,12.77150011062622
1619091221.37556,74.67957,12.78712010383606
1619091221.39119,75.1319,12.80275011062622
1619091221.40681,74.10614,12.81837010383606
1619091221.42244,72.2149,12.83400011062622
1619091221.43807,70.23169,12.849630117416382
1619091221.45369,68.8822,12.86525011062622
1619091221.46932,68.57263,12.880880117416382
1619091221.48494,69.33661,12.89650011062622
1619091221.50057,70.86102,12.912130117416382
1619091221.51619,72.60492,12.92775011062622
1619091221.53182,73.93561,12.943380117416382
1619091221.54745,74.32031,12.959010124206543
1619091221.56307,73.42627,12.974630117416382
1619091221.5787,71.13977,12.990260124206543
1619091221.59432,67.63293,13.005880117416382
1619091221.60995,63.25806,13.021510124206543
1619091221.62557,58.49127,13.037130117416382
1619091221.6412,53.76392,13.052760124206543
1619091221.65683,49.37018,13.068390130996704
1619091221.67245,45.36395,13.084010124206543
1619091221.68808,41.62622,13.099640130996704
1619091221.7037,37.92145,13.115260124206543
1619091221.71933,34.01959,13.130890130996704
1619091221.73495,29.7699,13.146510124206543
1619091221.75058,25.15222,13.162140130996704
1619091221.76621,20.27118,13.177770137786865
1619091221.78183,15.28662,13.193390130996704
1619091221.79746,10.34247,13.209020137786865
1619091221.81308,5.512146,13.224640130996704
1619091221.82871,0.779541,13.240270137786865
1619091221.84433,-3.972961,13.255890130996704
1619091221.85996,-8.941833,13.271520137786865
1619091221.87559,-14.40424,13.287150144577026
1619091221.89121,-20.68195,13.302770137786865
1619091221.90684,-28.0484,13.318400144577026
1619091221.92246,-36.56622,13.334020137786865
1619091221.93809,-45.94055,13.349650144577026
1619091221.95371,-55.43396,13.365270137786865
1619091221.96934,-64.02612,13.380900144577026
1619091221.98497,-70.68488,13.396530151367188
1619091222.00059,-74.73163,13.412150144577026
1619091222.01622,-76.1109,13.427780151367188
1619091222.03184,-75.54169,13.443400144577026
1619091222.04747,-74.30847,13.459030151367188
1619091222.06309,-73.88354,13.474650144577026
1619091222.07872,-75.55109,13.490280151367188
1619091222.09435,-80.15173,13.505910158157349
1619091222.10997,-87.93524,13.521530151367188
1619091222.1256,-98.5816,13.537160158157349
1619091222.14122,-111.1479,13.552780151367188
1619091222.15685,-124.0926,13.568410158157349
1619091222.17247,-135.3101,13.584030151367188
1619091222.1881,-142.4885,13.599660158157349
1619091222.20373,-143.5902,13.61529016494751
1619091222.21935,-137.4919,13.630910158157349
1619091222.23498,-124.5181,13.64654016494751
1619091222.2506,-106.4491,13.662160158157349
1619091222.26623,-86.05255,13.67779016494751
1619091222.28185,-66.16071,13.693410158157349
1619091222.29748,-48.76367,13.70904016494751
1619091222.31311,-34.50671,13.724670171737671
1619091222.32873,-22.76514,13.74029016494751
1619091222.34436,-12.211,13.755920171737671
1619091222.35998,-1.574036,13.77154016494751
1619091222.37561,9.887817,13.787170171737671
1619091222.39123,22.17877,13.80279016494751
1619091222.40686,34.74969,13.818420171737671
1619091222.42249,46.81366,13.834049940109253
1619091222.43811,57.57721,13.849670171737671
1619091222.45374,66.46729,13.865299940109253
1619091222.46936,73.14453,13.880920171737671
1619091222.48499,77.56476,13.896549940109253
1619091222.50061,79.98486,13.912170171737671
1619091222.51624,81.08124,13.927799940109253
1619091222.53187,81.7793,13.943429946899414
1619091222.54749,83.08023,13.959049940109253
1619091222.56312,85.68567,13.974679946899414
1619091222.57874,89.66306,13.990299940109253
1619091222.59437,94.35419,14.005929946899414
1619091222.60999,98.56961,14.021549940109253
1619091222.62562,101.0394,14.037179946899414
1619091222.64125,100.9309,14.052809953689575
1619091222.65687,98.14386,14.068429946899414
1619091222.6725,93.20889,14.084059953689575
1619091222.68812,86.991,14.099679946899414
1619091222.70375,80.28506,14.115309953689575
1619091222.71937,73.60309,14.130929946899414
1619091222.735,67.27466,14.146559953689575
1619091222.75063,61.62573,14.162189960479736
1619091222.76625,57.15701,14.177809953689575
1619091222.78188,54.43329,14.193439960479736
1619091222.7975,53.80536,14.209059953689575
1619091222.81313,55.14453,14.224689960479736
1619091222.82875,57.73358,14.240309953689575
1619091222.84438,60.52768,14.255939960479736
1619091222.86001,62.41739,14.271569967269897
1619091222.87563,62.67645,14.287189960479736
1619091222.89126,61.00903,14.302819967269897
1619091222.90688,57.54688,14.318439960479736
1619091222.92251,52.65555,14.334069967269897
1619091222.93813,46.74429,14.349689960479736
1619091222.95376,40.16687,14.365319967269897
1619091222.96939,33.1431,14.380949974060059
1619091222.98501,25.78802,14.396569967269897
1619091223.00064,18.06244,14.412199974060059
1619091223.01626,9.907227,14.427819967269897
1619091223.03189,1.2388,14.443449974060059
1619091223.04751,-7.930725,14.459069967269897
1619091223.06314,-17.43619,14.474699974060059
1619091223.07877,-27.021,14.49032998085022
1619091223.09439,-36.35876,14.505949974060059
1619091223.11002,-45.19135,14.52157998085022
1619091223.12564,-53.41705,14.537199974060059
1619091223.14127,-61.19061,14.55282998085022
1619091223.15689,-68.82416,14.568449974060059
1619091223.17252,-76.83411,14.58407998085022
1619091223.18815,-85.66193,14.59970998764038
1619091223.20377,-95.44977,14.61532998085022
1619091223.2194,-105.7377,14.63095998764038
1619091223.23502,-115.3054,14.64657998085022
1619091223.25065,-122.2617,14.66220998764038
1619091223.26627,-124.4818,14.67782998085022
1619091223.2819,-120.26,14.69345998764038
1619091223.29753,-108.9728,14.709089994430542
1619091223.31315,-91.46906,14.72470998764038
1619091223.32878,-69.91473,14.740339994430542
1619091223.3444,-47.22754,14.75595998764038
1619091223.36003,-26.242,14.771589994430542
1619091223.37565,-8.995514,14.78720998764038
1619091223.39128,3.682678,14.802839994430542
1619091223.40691,12.07736,14.818470001220703
1619091223.42253,17.16708,14.834089994430542
1619091223.43816,20.164,14.849720001220703
1619091223.45378,22.07709,14.865339994430542
1619091223.46941,23.62296,14.880970001220703
1619091223.48503,25.17087,14.896589994430542
1619091223.50066,26.88135,14.912220001220703
1619091223.51629,28.79617,14.927850008010864
1619091223.53191,30.94159,14.943470001220703
1619091223.54754,33.27548,14.959100008010864
1619091223.56316,35.7164,14.974720001220703
1619091223.57879,38.08023,14.990350008010864
1619091223.59441,40.14429,15.005970001220703
1619091223.61004,41.70956,15.021600008010864
1619091223.62567,42.68204,15.037230014801025
1619091223.64129,43.09729,15.052850008010864
1619091223.65692,43.14362,15.068480014801025
1619091223.67254,43.04669,15.084100008010864
1619091223.68817,42.95343,15.099730014801025
1619091223.70379,42.88449,15.115350008010864
1619091223.71942,42.6554,15.130980014801025
1619091223.73505,41.94708,15.146610021591187
1619091223.75067,40.44315,15.162230014801025
1619091223.7663,37.94882,15.177860021591187
1619091223.78192,34.46042,15.193480014801025
1619091223.79755,30.17105,15.209110021591187
1619091223.81318,25.39169,15.224740028381348
1619091223.8288,20.3681,15.240360021591187
1619091223.84443,15.27591,15.255990028381348
1619091223.86005,10.14008,15.271610021591187
1619091223.87568,4.796204,15.287240028381348
1619091223.8913,-1.027313,15.302860021591187
1619091223.90693,-7.652496,15.318490028381348
1619091223.92256,-15.3046,15.334120035171509
1619091223.93818,-23.93689,15.349740028381348
1619091223.95381,-33.23904,15.365370035171509
1619091223.96943,-42.69659,15.380990028381348
1619091223.98506,-51.72803,15.396620035171509
1619091224.00068,-59.89586,15.412240028381348
1619091224.01631,-67.12578,15.427870035171509
1619091224.03194,-73.63651,15.44350004196167
1619091224.04756,-80.01242,15.459120035171509
1619091224.06319,-87.04372,15.47475004196167
1619091224.07881,-95.53334,15.490370035171509
1619091224.09444,-106.0204,15.50600004196167
1619091224.11006,-118.3852,15.521620035171509
1619091224.12569,-131.4913,15.53725004196167
1619091224.14132,-143.1154,15.552880048751831
1619091224.15694,-150.4051,15.56850004196167
1619091224.17257,-150.6272,15.584130048751831
1619091224.18819,-142.2609,15.59975004196167
1619091224.20382,-125.5935,15.615380048751831
1619091224.21944,-102.7896,15.63100004196167
1619091224.23507,-77.17264,15.646630048751831
1619091224.2507,-52.14383,15.662260055541992
1619091224.26632,-30.15477,15.677880048751831
1619091224.28195,-12.20688,15.693510055541992
1619091224.29757,2.01387,15.709130048751831
1619091224.3132,13.66322,15.724760055541992
1619091224.32882,24.03972,15.740380048751831
1619091224.34445,34.15253,15.756010055541992
1619091224.36008,44.51321,15.771640062332153
1619091224.3757,55.12885,15.787260055541992
1619091224.39133,65.64687,15.802890062332153
1619091224.40695,75.53275,15.818510055541992
1619091224.42258,84.21536,15.834140062332153
1619091224.4382,91.19683,15.849760055541992
1619091224.45383,96.26307,15.865390062332153
1619091224.46946,99.52472,15.881020069122314
1619091224.48508,101.3788,15.896640062332153
1619091224.50071,102.4351,15.912270069122314
1619091224.51633,103.2882,15.927890062332153
1619091224.53196,104.354,15.943520069122314
1619091224.54758,105.7735,15.959140062332153
1619091224.56321,107.3588,15.974770069122314
1619091224.57884,108.6704,15.990400075912476
1619091224.59446,109.1862,16.006020069122314
1619091224.61009,108.4272,16.021650075912476
1619091224.62571,106.0329,16.037270069122314
1619091224.64134,101.8143,16.052900075912476
1619091224.65696,95.75394,16.068520069122314
1619091224.67259,88.04066,16.084150075912476
1619091224.68822,79.03117,16.099780082702637
1619091224.70384,69.26544,16.115400075912476
1619091224.71947,59.34729,16.131030082702637
1619091224.73509,49.86179,16.146650075912476
1619091224.75072,41.29457,16.162280082702637
1619091224.76634,33.89513,16.177900075912476
1619091224.78197,27.59437,16.193530082702637
1619091224.7976,22.03069,16.209160089492798
1619091224.81322,16.63123,16.224780082702637
1619091224.82885,10.80854,16.240410089492798
1619091224.84447,4.249068,16.256030082702637
1619091224.8601,-2.856948,16.271660089492798
1619091224.87572,-9.838381,16.287280082702637
1619091224.89135,-15.73872,16.302910089492798
1619091224.90698,-19.76486,16.31854009628296
1619091224.9226,-21.65284,16.334160089492798
1619091224.93823,-21.89444,16.34979009628296
1619091224.95385,-21.52335,16.365410089492798
1619091224.96948,-21.66399,16.38104009628296
1619091224.9851,-23.02926,16.396660089492798
1619091225.00073,-25.69629,16.41229009628296
1619091225.01636,-29.16075,16.42792010307312
1619091225.03198,-32.60698,16.44354009628296
1619091225.04761,-35.09073,16.45917010307312
1619091225.06323,-35.44741,16.47479009628296
1619091225.07886,-32.21983,16.49042010307312
1619091225.09448,-23.65334,16.50604009628296
1619091225.11011,-8.004604,16.52167010307312
1619091225.12574,15.85317,16.53730010986328
1619091225.14136,47.89746,16.55292010307312
1619091225.15699,86.78586,16.56855010986328
1619091225.17261,130.3788,16.58417010307312
1619091225.18824,176.4177,16.59980010986328
1619091225.20386,223.2168,16.61542010307312
1619091225.21949,269.6591,16.63105010986328
1619091225.23512,314.5253,16.646680116653442
1619091225.25074,355.7136,16.66230010986328
1619091225.26637,389.982,16.677930116653442
1619091225.28199,413.5525,16.69355010986328
1619091225.29762,423.519,16.709180116653442
1619091225.31324,419.2619,16.72480010986328
1619091225.32887,403.0476,16.740430116653442
1619091225.3445,379.4839,16.756060123443604
1619091225.36012,354.0005,16.771680116653442
1619091225.37575,331.1455,16.787310123443604
1619091225.39137,313.4605,16.802930116653442
1619091225.407,301.3912,16.818560123443604
1619091225.42262,294.01,16.834180116653442
1619091225.43825,289.9671,16.849810123443604
1619091225.45388,288.2122,16.865440130233765
1619091225.4695,288.0597,16.881060123443604
1619091225.48513,288.904,16.896690130233765
1619091225.50075,289.8432,16.912310123443604
1619091225.51638,289.642,16.927940130233765
1619091225.532,286.8954,16.943560123443604
1619091225.54763,280.4565,16.959190130233765
1619091225.56326,269.7341,16.974820137023926
1619091225.57888,254.8051,16.990440130233765
1619091225.59451,236.2606,17.006070137023926
1619091225.61013,214.9353,17.021690130233765
1619091225.62576,191.5807,17.037320137023926
1619091225.64138,166.6682,17.052940130233765
1619091225.65701,140.2525,17.068570137023926
1619091225.67264,112.0205,17.084200143814087
1619091225.68826,81.43396,17.099820137023926
1619091225.70389,47.92706,17.115450143814087
1619091225.71951,11.15033,17.131070137023926
1619091225.73514,-28.87976,17.146700143814087
1619091225.75076,-71.68146,17.162320137023926
1619091225.76639,-116.4095,17.177950143814087
1619091225.78202,-162.062,17.193580150604248
1619091225.79764,-207.6295,17.209200143814087
1619091225.81327,-252.3188,17.224830150604248
1619091225.82889,-295.6156,17.240450143814087
1619091225.84452,-337.264,17.256080150604248
1619091225.86014,-377.3154,17.271700143814087
1619091225.87577,-416.2407,17.287330150604248
1619091225.8914,-455.0062,17.30296015739441
1619091225.90702,-494.7567,17.318580150604248
1619091225.92265,-536.0109,17.33421015739441
1619091225.93827,-577.7318,17.349830150604248
1619091225.9539,-616.7512,17.36546015739441
1619091225.96953,-648.2065,17.38109016418457
1619091225.98515,-666.996,17.39671015739441
1619091226.00078,-669.7478,17.41234016418457
1619091226.0164,-656.3198,17.42796015739441
1619091226.03203,-629.9982,17.44359016418457
1619091226.04765,-596.3033,17.45921015739441
1619091226.06328,-561.0773,17.47484016418457
1619091226.07891,-528.6747,17.49047017097473
1619091226.09453,-501.203,17.50609016418457
1619091226.11016,-478.7075,17.52172017097473
1619091226.12578,-459.974,17.53734016418457
1619091226.14141,-443.2258,17.55297017097473
1619091226.15703,-426.5023,17.56859016418457
1619091226.17266,-407.7399,17.58422017097473
1619091226.18829,-384.9321,17.599850177764893
1619091226.20391,-356.5548,17.61547017097473
1619091226.21954,-322.1487,17.631100177764893
1619091226.23516,-282.7023,17.64672017097473
1619091226.25079,-240.4712,17.662350177764893
1619091226.26641,-198.3459,17.67797017097473
1619091226.28204,-159.0164,17.693600177764893
1619091226.29767,-124.1316,17.709229946136475
1619091226.31329,-93.95056,17.724850177764893
1619091226.32892,-67.57971,17.740479946136475
1619091226.34454,-43.56775,17.756100177764893
1619091226.36017,-20.67883,17.771729946136475
1619091226.37579,1.517944,17.787350177764893
1619091226.39142,22.59424,17.802979946136475
1619091226.40705,41.51819,17.818609952926636
1619091226.42267,57.3053,17.834229946136475
1619091226.4383,69.49426,17.849859952926636
1619091226.45392,78.4115,17.865479946136475
1619091226.46955,85.01331,17.881109952926636
1619091226.48517,90.47278,17.896729946136475
1619091226.5008,95.80225,17.912359952926636
1619091226.51643,101.5442,17.927989959716797
1619091226.53205,107.7598,17.943609952926636
1619091226.54768,114.097,17.959239959716797
1619091226.5633,119.9569,17.974859952926636
1619091226.57893,124.6913,17.990489959716797
1619091226.59455,127.6826,18.006109952926636
1619091226.61018,128.5342,18.021739959716797
1619091226.62581,127.1415,18.037369966506958
1619091226.64143,123.7917,18.052989959716797
1619091226.65706,119.0796,18.068619966506958
1619091226.67268,113.6987,18.084239959716797
1619091226.68831,108.2199,18.099869966506958
1619091226.70393,102.9606,18.115489959716797
1619091226.71956,98.00317,18.131119966506958
1619091226.73519,93.23254,18.14674997329712
1619091226.75081,88.54108,18.162369966506958
1619091226.76644,83.86334,18.17799997329712
1619091226.78206,79.17615,18.193619966506958
1619091226.79769,74.4422,18.20924997329712
1619091226.81331,69.62225,18.224869966506958
1619091226.82894,64.6424,18.24049997329712
1619091226.84457,59.38269,18.25612998008728
1619091226.86019,53.79218,18.27174997329712
1619091226.87582,47.81128,18.28737998008728
1619091226.89144,41.47748,18.30299997329712
1619091226.90707,34.93188,18.31862998008728
1619091226.92269,28.40302,18.33424997329712
1619091226.93832,22.13745,18.34987998008728
1619091226.95395,16.25153,18.36550998687744
1619091226.96957,10.60101,18.38112998008728
1619091226.9852,4.749573,18.39675998687744
1619091227.00082,-1.853516,18.41237998008728
1619091227.01645,-9.70813,18.42800998687744
1619091227.03207,-18.9104,18.44362998008728
1619091227.0477,-29.17645,18.45925998687744
1619091227.06333,-39.91644,18.474889993667603
1619091227.07895,-50.49854,18.49050998687744
1619091227.09458,-60.52789,18.506139993667603
1619091227.1102,-69.9657,18.52175998687744
1619091227.12583,-79.16949,18.537389993667603
1619091227.14145,-88.72736,18.55300998687744
1619091227.15708,-99.34375,18.568639993667603
1619091227.17271,-111.5096,18.584270000457764
1619091227.18833,-125.2333,18.599889993667603
1619091227.20396,-139.6498,18.615520000457764
1619091227.21958,-152.8547,18.631139993667603
1619091227.23521,-162.1615,18.646770000457764
1619091227.25083,-164.7755,18.662389993667603
1619091227.26646,-158.7135,18.678020000457764
1619091227.28209,-143.6841,18.693650007247925
1619091227.29771,-121.352,18.709270000457764
1619091227.31334,-94.92642,18.724900007247925
1619091227.32896,-68.08173,18.740520000457764
1619091227.34459,-43.91183,18.756150007247925
1619091227.36021,-24.03775,18.771770000457764
1619091227.37584,-8.498596,18.787400007247925
1619091227.39147,3.769897,18.803030014038086
1619091227.40709,14.22824,18.818650007247925
1619091227.42272,23.99448,18.834280014038086
1619091227.43834,33.47745,18.849900007247925
1619091227.45397,42.48111,18.865530014038086
1619091227.46959,50.53946,18.881150007247925
1619091227.48522,57.24963,18.896780014038086
1619091227.50085,62.58762,18.912410020828247
1619091227.51647,66.87009,18.928030014038086
1619091227.5321,70.60876,18.943660020828247
1619091227.54772,74.25223,18.959280014038086
1619091227.56335,78.03046,18.974910020828247
1619091227.57897,81.99213,18.990530014038086
1619091227.5946,86.15762,19.006160020828247
1619091227.61023,90.65025,19.021790027618408
1619091227.62585,95.6282,19.037410020828247
1619091227.64148,101.1826,19.053040027618408
1619091227.6571,107.0639,19.068660020828247
1619091227.67273,112.6195,19.084290027618408
1619091227.68835,116.9182,19.099910020828247
1619091227.70398,119.0445,19.115540027618408
1619091227.71961,118.539,19.13117003440857
1619091227.73523,115.5379,19.146790027618408
1619091227.75086,110.8044,19.16242003440857
1619091227.76648,105.4258,19.178040027618408
1619091227.78211,100.3792,19.19367003440857
1619091227.79773,96.24805,19.209290027618408
1619091227.81336,92.97671,19.22492003440857
1619091227.82899,90.05474,19.24055004119873
1619091227.84461,86.70329,19.25617003440857
1619091227.86024,82.24679,19.27180004119873
1619091227.87586,76.36577,19.28742003440857
1619091227.89149,69.20641,19.30305004119873
1619091227.90711,61.26828,19.31867003440857
1619091227.92274,53.19434,19.33430004119873
1619091227.93837,45.5045,19.34993004798889
1619091227.95399,38.36893,19.36555004119873
1619091227.96962,31.64525,19.38118004798889
1619091227.98524,24.94168,19.39680004119873
1619091228.00087,17.89566,19.41243004798889
1619091228.01649,10.3248,19.42805004119873
1619091228.03212,2.363327,19.44368004798889
1619091228.04775,-5.555038,19.459310054779053
1619091228.06337,-12.89906,19.47493004798889
1619091228.079,-19.21951,19.490560054779053
1619091228.09462,-24.40057,19.50618004798889
1619091228.11025,-28.70428,19.521810054779053
1619091228.12587,-32.78568,19.53743004798889
1619091228.1415,-37.54034,19.553060054779053
1619091228.15713,-43.93048,19.568690061569214
1619091228.17275,-52.72452,19.584310054779053
1619091228.18838,-64.10922,19.599940061569214
1619091228.204,-77.36752,19.615560054779053
1619091228.21963,-90.64441,19.631190061569214
1619091228.23526,-101.162,19.646820068359375
1619091228.25088,-105.8396,19.662440061569214
1619091228.26651,-102.2351,19.678070068359375
1619091228.28213,-89.46259,19.693690061569214
1619091228.29776,-68.56473,19.709320068359375
1619091228.31338,-42.31778,19.724940061569214
1619091228.32901,-14.31683,19.740570068359375
1619091228.34464,12.0831,19.756200075149536
1619091228.36026,34.65784,19.771820068359375
1619091228.37589,52.60126,19.787450075149536
1619091228.39151,66.2739,19.803070068359375
1619091228.40714,76.582,19.818700075149536
1619091228.42276,84.38409,19.834320068359375
1619091228.43839,90.16949,19.849950075149536
1619091228.45402,94.0925,19.865580081939697
1619091228.46964,96.18356,19.881200075149536
1619091228.48527,96.61258,19.896830081939697
1619091228.50089,95.83423,19.912450075149536
1619091228.51652,94.51459,19.928080081939697
1619091228.53214,93.35065,19.943700075149536
1619091228.54777,92.86493,19.959330081939697
1619091228.5634,93.21368,19.97496008872986
1619091228.57902,94.21912,19.990580081939697
1619091228.59465,95.47974,20.00621008872986
1619091228.61027,96.55591,20.021830081939697
1619091228.6259,97.12848,20.03746008872986
1619091228.64152,97.06018,20.053080081939697
1619091228.65715,96.341,20.06871008872986
1619091228.67278,95.0036,20.08434009552002
1619091228.6884,93.03125,20.09996008872986
1619091228.70403,90.30994,20.11559009552002
1619091228.71965,86.68329,20.13121008872986
1619091228.73528,81.99115,20.14684009552002
1619091228.7509,76.20673,20.16246008872986
1619091228.76653,69.47931,20.17809009552002
1619091228.78216,62.15198,20.19372010231018
1619091228.79778,54.70752,20.20934009552002
1619091228.81341,47.63544,20.22497010231018
1619091228.82903,41.22461,20.24059009552002
1619091228.84466,35.47064,20.25622010231018
1619091228.86028,30.00604,20.27184009552002
1619091228.87591,24.23962,20.28747010231018
1619091228.89154,17.59369,20.303100109100342
1619091228.90716,9.730042,20.31872010231018
1619091228.92279,0.71875,20.334350109100342
1619091228.93841,-9.007263,20.34997010231018
1619091228.95404,-18.78503,20.365600109100342
1619091228.96966,-28.00214,20.38122010231018
1619091228.98529,-36.27734,20.396850109100342
1619091229.00092,-43.57721,20.412480115890503
1619091229.01654,-50.19257,20.428100109100342
1619091229.03217,-56.71228,20.443730115890503
1619091229.04779,-63.90607,20.459350109100342
1619091229.06342,-72.57819,20.474980115890503
1619091229.07904,-83.2807,20.490600109100342
1619091229.09467,-95.90021,20.506230115890503
1619091229.1103,-109.3557,20.521860122680664
1619091229.12592,-121.4558,20.537480115890503
1619091229.14155,-129.3018,20.553110122680664
1619091229.15717,-130.0946,20.568730115890503
1619091229.1728,-122.0376,20.584360122680664
1619091229.18842,-105.121,20.599980115890503
1619091229.20405,-81.25391,20.615610122680664
1619091229.21968,-53.7309,20.631240129470825
1619091229.2353,-26.24408,20.646860122680664
1619091229.25093,-1.83075,20.662490129470825
1619091229.26655,17.83386,20.678110122680664
1619091229.28218,32.5639,20.693740129470825
1619091229.2978,43.23193,20.709360122680664
1619091229.31343,51.21283,20.724990129470825
1619091229.32906,57.729,20.740620136260986
1619091229.34468,63.56665,20.756240129470825
1619091229.36031,69.01105,20.771870136260986
1619091229.37593,73.97284,20.787490129470825
1619091229.39156,78.16254,20.803120136260986
1619091229.40718,81.30981,20.818740129470825
1619091229.42281,83.2691,20.834370136260986
1619091229.43844,84.04846,20.850000143051147
1619091229.45406,83.8338,20.865620136260986
1619091229.46969,82.94757,20.881250143051147
1619091229.48531,81.76685,20.896870136260986
1619091229.50094,80.69769,20.912500143051147
1619091229.51656,80.08582,20.928120136260986
1619091229.53219,80.10938,20.943750143051147
1619091229.54782,80.74487,20.95938014984131
1619091229.56344,81.6673,20.975000143051147
1619091229.57907,82.3609,20.99063014984131
1619091229.59469,82.22394,21.006250143051147
1619091229.61032,80.76312,21.02188014984131
1619091229.62594,77.77087,21.037500143051147
1619091229.64157,73.38568,21.05313014984131
1619091229.6572,67.97284,21.06876015663147
1619091229.67282,61.99286,21.08438014984131
1619091229.68845,55.80005,21.10001015663147
1619091229.70407,49.53546,21.11563014984131
1619091229.7197,43.16888,21.13126015663147
1619091229.73532,36.63446,21.14688014984131
1619091229.75095,29.91907,21.16251015663147
1619091229.76658,23.12177,21.17814016342163
1619091229.7822,16.41656,21.19376015663147
1619091229.79783,9.912659,21.20939016342163
1619091229.81345,3.501221,21.22501015663147
1619091229.82908,-3.05603,21.24064016342163
1619091229.8447,-10.104,21.25626015663147
1619091229.86033,-17.82599,21.27189016342163
1619091229.87596,-26.15021,21.287520170211792
1619091229.89158,-34.71576,21.30314016342163
1619091229.90721,-43.00104,21.318770170211792
1619091229.92283,-50.59088,21.33439016342163
1619091229.93846,-57.39197,21.350020170211792
1619091229.95408,-63.70905,21.36564016342163
1619091229.96971,-70.17407,21.381270170211792
1619091229.98534,-77.66003,21.396900177001953
1619091230.00096,-86.92041,21.412520170211792
1619091230.01659,-98.34552,21.428150177001953
1619091230.03221,-111.6127,21.443770170211792
1619091230.04784,-125.3659,21.459400177001953
1619091230.06346,-137.226,21.475020170211792
1619091230.07909,-144.1814,21.490650177001953
1619091230.09472,-143.4253,21.506279945373535
1619091230.11034,-133.3382,21.521900177001953
1619091230.12597,-114.2794,21.537529945373535
1619091230.14159,-88.58954,21.553150177001953
1619091230.15722,-59.94647,21.568779945373535
1619091230.17284,-32.20428,21.584400177001953
1619091230.18847,-8.231384,21.600029945373535
1619091230.2041,10.73199,21.615659952163696
1619091230.21972,25.0343,21.631279945373535
1619091230.23535,36.00073,21.646909952163696
1619091230.25097,45.16833,21.662529945373535
1619091230.2666,53.62274,21.678159952163696
1619091230.28222,61.80994,21.693779945373535
1619091230.29785,69.59869,21.709409952163696
1619091230.31348,76.52393,21.725039958953857
1619091230.3291,82.11719,21.740659952163696
1619091230.34473,86.08521,21.756289958953857
1619091230.36035,88.35541,21.771909952163696
1619091230.37598,89.0636,21.787539958953857
1619091230.3916,88.48499,21.803159952163696
1619091230.40723,87.01196,21.818789958953857
1619091230.42286,85.11511,21.83441996574402
1619091230.43848,83.30072,21.850039958953857
1619091230.45411,82.04248,21.86566996574402
1619091230.46973,81.66125,21.881289958953857
1619091230.48536,82.19135,21.89691996574402
1619091230.50098,83.34711,21.912539958953857
1619091230.51661,84.53778,21.92816996574402
1619091230.53224,85.08032,21.94379997253418
1619091230.54786,84.39435,21.95941996574402
1619091230.56349,82.18018,21.97504997253418
1619091230.57911,78.45917,21.99066996574402
1619091230.59474,73.52289,22.00629997253418
1619091230.61036,67.8288,22.02191996574402
1619091230.62599,61.84772,22.03754997253418
1619091230.64162,55.96881,22.05317997932434
1619091230.65724,50.48615,22.06879997253418
1619091230.67287,45.57349,22.08442997932434
1619091230.68849,41.28058,22.10004997253418
1619091230.70412,37.50281,22.11567997932434
1619091230.71974,34.00665,22.13129997253418
1619091230.73537,30.44922,22.14692997932434
1619091230.751,26.47406,22.162559986114502
1619091230.76662,21.81659,22.17817997932434
1619091230.78225,16.44507,22.193809986114502
1619091230.79787,10.58173,22.20942997932434
1619091230.8135,4.640015,22.225059986114502
1619091230.82912,-0.9389648,22.24067997932434
1619091230.84475,-5.853455,22.256309986114502
1619091230.86038,-10.11877,22.271939992904663
1619091230.876,-14.04535,22.287559986114502
1619091230.89163,-18.17529,22.303189992904663
1619091230.90725,-23.04242,22.318809986114502
1619091230.92288,-28.96472,22.334439992904663
1619091230.93851,-35.91272,22.350069999694824
1619091230.95413,-43.51477,22.365689992904663
1619091230.96976,-51.23663,22.381319999694824
1619091230.98538,-58.52179,22.396939992904663
1619091231.00101,-65.03839,22.412569999694824
1619091231.01663,-70.75684,22.428189992904663
1619091231.03226,-76.00909,22.443819999694824
1619091231.04789,-81.41547,22.459450006484985
1619091231.06351,-87.76062,22.475069999694824
1619091231.07914,-95.76306,22.490700006484985
1619091231.09476,-105.7333,22.506319999694824
1619091231.11039,-117.1304,22.521950006484985
1619091231.12601,-128.2863,22.537569999694824
1619091231.14164,-136.4746,22.553200006484985
1619091231.15727,-138.5731,22.568830013275146
1619091231.17289,-132.0642,22.584450006484985
1619091231.18852,-115.9941,22.600080013275146
1619091231.20414,-91.53967,22.615700006484985
1619091231.21977,-61.7019,22.631330013275146
1619091231.23539,-30.3288,22.646950006484985
1619091231.25102,-0.8664551,22.662580013275146
1619091231.26665,24.57025,22.678210020065308
1619091231.28227,45.50793,22.693830013275146
1619091231.2979,62.70721,22.709460020065308
1619091231.31352,77.45282,22.725080013275146
1619091231.32915,90.92224,22.740710020065308
1619091231.34477,103.8393,22.756330013275146
1619091231.3604,116.5268,22.771960020065308
1619091231.37603,129.0588,22.78759002685547
1619091231.39165,141.3626,22.803210020065308
1619091231.40728,153.2659,22.81884002685547
1619091231.4229,164.4499,22.834460020065308
1619091231.43853,174.5125,22.85009002685547
1619091231.45415,183.0793,22.865710020065308
1619091231.46978,190.001,22.88134002685547
1619091231.48541,195.53,22.89697003364563
1619091231.50103,200.3674,22.91259002685547
1619091231.51666,205.5421,22.92822003364563
1619091231.53228,212.0974,22.94384002685547
1619091231.54791,220.8377,22.95947003364563
1619091231.56353,232.0095,22.97509002685547
1619091231.57916,245.1755,22.99072003364563
1619091231.59479,259.1097,23.00635004043579
1619091231.61041,271.9838,23.02197003364563
1619091231.62604,281.6227,23.03760004043579
1619091231.64166,286.0692,23.05322003364563
1619091231.65729,284.1482,23.06885004043579
1619091231.67291,275.8264,23.08447003364563
1619091231.68854,262.3689,23.10010004043579
1619091231.70417,245.9444,23.115730047225952
1619091231.71979,229.0626,23.13135004043579
1619091231.73542,213.8273,23.146980047225952
1619091231.75104,201.5078,23.16260004043579
1619091231.76667,192.3258,23.178230047225952
1619091231.78229,185.7868,23.19385004043579
1619091231.79792,181.079,23.209480047225952
1619091231.81355,177.4359,23.225110054016113
1619091231.82917,174.3903,23.240730047225952
1619091231.8448,171.7244,23.256360054016113
1619091231.86042,169.4204,23.271980047225952
1619091231.87605,167.5346,23.287610054016113
1619091231.89167,166.053,23.303230047225952
1619091231.9073,164.7781,23.318860054016113
1619091231.92293,163.2429,23.334490060806274
1619091231.93855,160.7005,23.350110054016113
1619091231.95418,156.2984,23.365740060806274
1619091231.9698,149.3294,23.381360054016113
1619091231.98543,139.4987,23.396990060806274
1619091232.00105,127.0385,23.412610054016113
1619091232.01668,112.603,23.428240060806274
1619091232.03231,96.88312,23.443870067596436
1619091232.04793,80.08527,23.459490060806274
1619091232.06356,61.64587,23.475120067596436
1619091232.07918,40.24361,23.490740060806274
1619091232.09481,14.23108,23.506370067596436
1619091232.11043,-17.65729,23.521990060806274
1619091232.12606,-55.73013,23.537620067596436
1619091232.14169,-99.06393,23.553250074386597
1619091232.15731,-145.9235,23.568870067596436
1619091232.17294,-194.2956,23.584500074386597
1619091232.18856,-242.6714,23.600120067596436
1619091232.20419,-290.4602,23.615750074386597
1619091232.21981,-337.8835,23.631370067596436
1619091232.23544,-385.7194,23.647000074386597
1619091232.25107,-435.0444,23.662630081176758
1619091232.26669,-487.1277,23.678250074386597
1619091232.28232,-543.0572,23.693880081176758
1619091232.29794,-602.8048,23.709500074386597
1619091232.31357,-663.9382,23.725130081176758
1619091232.32919,-720.8256,23.740750074386597
1619091232.34482,-765.1991,23.756380081176758
1619091232.36045,-788.4755,23.77201008796692
1619091232.37607,-784.9154,23.787630081176758
1619091232.3917,-754.1922,23.80326008796692
1619091232.40732,-701.7016,23.818880081176758
1619091232.42295,-636.5074,23.83451008796692
1619091232.43857,-567.7449,23.850130081176758
1619091232.4542,-501.6632,23.86576008796692
1619091232.46983,-440.5686,23.88139009475708
1619091232.48545,-383.9788,23.89701008796692
1619091232.50108,-330.9407,23.91264009475708
1619091232.5167,-281.6746,23.92826008796692
1619091232.53233,-237.6969,23.94389009475708
1619091232.54795,-200.6257,23.95951008796692
1619091232.56358,-170.7218,23.97514009475708
1619091232.57921,-146.3372,23.99077010154724
1619091232.59483,-124.5676,24.00639009475708
1619091232.61046,-102.7233,24.02202010154724
1619091232.62608,-79.49054,24.03764009475708
1619091232.64171,-55.24097,24.05327010154724
1619091232.65733,-31.61652,24.06889009475708
1619091232.67296,-10.36859,24.08452010154724
1619091232.68859,7.579285,24.100150108337402
1619091232.70421,22.46783,24.11577010154724
1619091232.71984,35.38928,24.131400108337402
1619091232.73546,47.55621,24.14702010154724
1619091232.75109,59.62018,24.162650108337402
1619091232.76671,71.40009,24.17827010154724
1619091232.78234,82.01141,24.193900108337402
1619091232.79797,90.46356,24.209530115127563
1619091232.81359,96.11475,24.225150108337402
1619091232.82922,99.02393,24.240780115127563
1619091232.84484,99.85303,24.256400108337402
1619091232.86047,99.58276,24.272030115127563
1619091232.87609,99.15717,24.287650108337402
1619091232.89172,99.11374,24.303280115127563
1619091232.90735,99.57404,24.318910121917725
1619091232.92297,100.2688,24.334530115127563
1619091232.9386,100.7837,24.350160121917725
1619091232.95422,100.753,24.365780115127563
1619091232.96985,99.94,24.381410121917725
1619091232.98547,98.3038,24.397030115127563
1619091233.0011,95.91315,24.412660121917725
1619091233.01673,92.88348,24.428290128707886
1619091233.03235,89.31955,24.443910121917725
1619091233.04798,85.32007,24.459540128707886
1619091233.0636,80.98666,24.475160121917725
1619091233.07923,76.44147,24.490790128707886
1619091233.09486,71.75394,24.506420135498047
1619091233.11048,66.88876,24.522040128707886
1619091233.12611,61.60864,24.537670135498047
1619091233.14173,55.56302,24.553290128707886
1619091233.15736,48.41818,24.568920135498047
1619091233.17298,40.03119,24.584540128707886
1619091233.18861,30.62152,24.600170135498047
1619091233.20424,20.69427,24.615800142288208
1619091233.21986,10.93468,24.631420135498047
1619091233.23549,1.901428,24.647050142288208
1619091233.25111,-6.192001,24.662670135498047
1619091233.26674,-13.55565,24.678300142288208
1619091233.28236,-20.82062,24.693920135498047
1619091233.29799,-28.83031,24.709550142288208
1619091233.31362,-38.47644,24.72518014907837
1619091233.32924,-50.29131,24.740800142288208
1619091233.34487,-64.08685,24.75643014907837
1619091233.36049,-78.65939,24.772050142288208
1619091233.37612,-91.70139,24.78768014907837
1619091233.39174,-100.1885,24.803300142288208
1619091233.40737,-101.2102,24.81893014907837
1619091233.423,-92.91698,24.83456015586853
1619091233.43862,-75.33716,24.85018014907837
1619091233.45425,-50.56642,24.86581015586853
1619091233.46987,-22.22811,24.88143014907837
1619091233.4855,5.664815,24.89706015586853
1619091233.50112,29.86935,24.91268014907837
1619091233.51675,48.7151,24.92831015586853
1619091233.53238,62.2376,24.94394016265869
1619091233.548,71.65828,24.95956015586853
1619091233.56363,78.61487,24.97519016265869
1619091233.57925,84.46815,24.99081015586853
1619091233.59488,89.93285,25.00644016265869
1619091233.6105,95.10952,25.02206015586853
1619091233.62613,99.72668,25.03769016265869
1619091233.64176,103.4589,25.053320169448853
1619091233.65738,106.0996,25.06894016265869
1619091233.67301,107.6965,25.084570169448853
1619091233.68863,108.4218,25.10019016265869
1619091233.70426,108.4485,25.115820169448853
1619091233.71988,107.943,25.13144016265869
1619091233.73551,107.0354,25.147070169448853
1619091233.75114,105.929,25.162700176239014
1619091233.76676,104.9492,25.178320169448853
1619091233.78239,104.4471,25.193950176239014
1619091233.79801,104.6701,25.209570169448853
1619091233.81364,105.5527,25.225200176239014
1619091233.82926,106.6168,25.240820169448853
1619091233.84489,107.107,25.256450176239014
1619091233.86052,106.2664,25.272079944610596
1619091233.87614,103.6654,25.287700176239014
1619091233.89177,99.40379,25.303329944610596
1619091233.90739,94.07388,25.318950176239014
1619091233.92302,88.47755,25.334579944610596
1619091233.93864,83.31709,25.350200176239014
1619091233.95427,78.95201,25.365829944610596
1619091233.9699,75.29564,25.381459951400757
1619091233.98552,71.95313,25.397079944610596
1619091234.00115,68.48262,25.412709951400757
1619091234.01677,64.57985,25.428329944610596
1619091234.0324,60.18872,25.443959951400757
1619091234.04802,55.46986,25.459579944610596
1619091234.06365,50.6492,25.475209951400757
1619091234.07928,45.85698,25.490839958190918
1619091234.0949,41.07002,25.506459951400757
1619091234.11053,36.09918,25.522089958190918
1619091234.12615,30.73134,25.537709951400757
1619091234.14178,24.9205,25.553339958190918
1619091234.1574,18.79668,25.568959951400757
1619091234.17303,12.68544,25.584589958190918
1619091234.18866,6.949295,25.60021996498108
1619091234.20428,1.77002,25.615839958190918
1619091234.21991,-3.003815,25.63146996498108
1619091234.23553,-7.796051,25.647089958190918
1619091234.25116,-13.16974,25.66271996498108
1619091234.26678,-19.5387,25.678339958190918
1619091234.28241,-26.92981,25.69396996498108
1619091234.29804,-34.97162,25.70959997177124
1619091234.31366,-43.01514,25.72521996498108
1619091234.32929,-50.38869,25.74084997177124
1619091234.34491,-56.72289,25.75646996498108
1619091234.36054,-62.11073,25.77209997177124
1619091234.37616,-67.14384,25.78771996498108
1619091234.39179,-72.83394,25.80334997177124
1619091234.40742,-80.28705,25.8189799785614
1619091234.42304,-90.29474,25.83459997177124
1619091234.43867,-102.8698,25.8502299785614
1619091234.45429,-116.82,25.86584997177124
1619091234.46992,-129.7154,25.8814799785614
1619091234.48554,-138.3344,25.89709997177124
1619091234.50117,-139.6047,25.9127299785614
1619091234.5168,-131.684,25.928359985351562
1619091234.53242,-114.7937,25.9439799785614
1619091234.54805,-91.23886,25.959609985351562
1619091234.56367,-64.63873,25.9752299785614
1619091234.5793,-38.76746,25.990859985351562
1619091234.59492,-16.38232,26.0064799785614
1619091234.61055,1.329193,26.022109985351562
1619091234.62618,14.61377,26.037739992141724
1619091234.6418,24.55096,26.053359985351562
1619091234.65743,32.39542,26.068989992141724
1619091234.67305,39.09912,26.084609985351562
1619091234.68868,45.15457,26.100239992141724
1619091234.7043,50.75833,26.115859985351562
1619091234.71993,55.84442,26.131489992141724
1619091234.73556,60.25427,26.147119998931885
1619091234.75118,63.737,26.162739992141724
1619091234.76681,66.0889,26.178369998931885
1619091234.78243,67.1994,26.193989992141724
1619091234.79806,67.18579,26.209619998931885
1619091234.81368,66.42297,26.225239992141724
1619091234.82931,65.44565,26.240869998931885
1619091234.84494,64.84491,26.256500005722046
1619091234.86056,65.08813,26.272119998931885
1619091234.87619,66.42355,26.287750005722046
1619091234.89181,68.7832,26.303369998931885
1619091234.90744,71.76212,26.319000005722046
1619091234.92306,74.69339,26.334619998931885
1619091234.93869,76.77405,26.350250005722046
1619091234.95432,77.31897,26.365880012512207
1619091234.96994,75.88199,26.381500005722046
1619091234.98557,72.49976,26.397130012512207
1619091235.00119,67.65726,26.412750005722046
1619091235.01682,62.1712,26.428380012512207
1619091235.03244,56.90036,26.444000005722046
1619091235.04807,52.42569,26.459630012512207
1619091235.0637,48.84009,26.475260019302368
1619091235.07932,45.71301,26.490880012512207
1619091235.09495,42.34482,26.506510019302368
1619091235.11057,38.11655,26.522130012512207
1619091235.1262,32.83847,26.537760019302368
1619091235.14182,26.84412,26.553380012512207
1619091235.15745,20.82916,26.569010019302368
1619091235.17308,15.49133,26.58464002609253
1619091235.1887,11.1376,26.600260019302368
1619091235.20433,7.496613,26.61589002609253
1619091235.21995,3.836212,26.631510019302368
1619091235.23558,-0.6557007,26.64714002609253
1619091235.2512,-6.52533,26.662760019302368
1619091235.26683,-13.77332,26.67839002609253
1619091235.28246,-21.86789,26.69402003288269
1619091235.29808,-30.02814,26.70964002609253
1619091235.31371,-37.46878,26.72527003288269
1619091235.32933,-43.71512,26.74089002609253
1619091235.34496,-48.73663,26.75652003288269
1619091235.36058,-53.00604,26.77214002609253
1619091235.37621,-57.47342,26.78777003288269
1619091235.39184,-63.38623,26.80340003967285
1619091235.40746,-72.00168,26.81902003288269
1619091235.42309,-84.05865,26.83465003967285
1619091235.43871,-99.24365,26.85027003288269
1619091235.45434,-115.852,26.86590003967285
1619091235.46996,-130.8934,26.88152003288269
1619091235.48559,-140.8832,26.89715003967285
1619091235.50122,-142.8743,26.912780046463013
1619091235.51684,-135.539,26.92840003967285
1619091235.53247,-119.6248,26.944030046463013
1619091235.54809,-97.66769,26.95965003967285
1619091235.56372,-73.08237,26.975280046463013
1619091235.57934,-49.06439,26.99090003967285
1619091235.59497,-27.73511,27.006530046463013
1619091235.6106,-9.882599,27.022160053253174
1619091235.62622,4.762329,27.037780046463013
1619091235.64185,16.99561,27.053410053253174
1619091235.65747,27.55615,27.069030046463013
1619091235.6731,36.84448,27.084660053253174
1619091235.68872,44.88882,27.100280046463013
1619091235.70435,51.52881,27.115910053253174
1619091235.71998,56.62482,27.131540060043335
1619091235.7356,60.23782,27.147160053253174
1619091235.75123,62.68823,27.162790060043335
1619091235.76685,64.48242,27.178410053253174
1619091235.78248,66.18201,27.194040060043335
1619091235.79811,68.14117,27.209670066833496
1619091235.81373,70.46625,27.225290060043335
1619091235.82936,73.03375,27.240920066833496
1619091235.84498,75.56555,27.256540060043335
1619091235.86061,77.83301,27.272170066833496
1619091235.87623,79.63586,27.287790060043335
1619091235.89186,80.84256,27.303420066833496
1619091235.90749,81.23154,27.319050073623657
1619091235.92311,80.51672,27.334670066833496
1619091235.93874,78.38416,27.350300073623657
1619091235.95436,74.67502,27.365920066833496
1619091235.96999,69.58704,27.381550073623657
1619091235.98561,63.65128,27.397170066833496
1619091236.00124,57.5928,27.412800073623657
1619091236.01687,52.04562,27.42843008041382
1619091236.03249,47.23306,27.444050073623657
1619091236.04812,42.87186,27.45968008041382
1619091236.06374,38.31845,27.475300073623657
1619091236.07937,32.92081,27.49093008041382
1619091236.09499,26.37817,27.506550073623657
1619091236.11062,18.91653,27.52218008041382
1619091236.12625,11.17282,27.53781008720398
1619091236.14187,3.839417,27.55343008041382
1619091236.1575,-2.714752,27.56906008720398
1619091236.17312,-8.645782,27.58468008041382
1619091236.18875,-14.57278,27.60031008720398
1619091236.20437,-21.20364,27.61593008041382
1619091236.22,-28.95755,27.63156008720398
1619091236.23563,-37.7514,27.64719009399414
1619091236.25125,-47.03854,27.66281008720398
1619091236.26688,-56.09747,27.67844009399414
1619091236.2825,-64.36221,27.69406008720398
1619091236.29813,-71.68054,27.70969009399414
1619091236.31375,-78.38425,27.72531008720398
1619091236.32938,-85.2149,27.74094009399414
1619091236.34501,-93.06403,27.7565701007843
1619091236.36063,-102.7509,27.77219009399414
1619091236.37626,-114.6602,27.7878201007843
1619091236.39188,-128.3406,27.80344009399414
1619091236.40751,-142.2517,27.8190701007843
1619091236.42313,-153.7656,27.83469009399414
1619091236.43876,-159.7314,27.8503201007843
1619091236.45439,-157.3797,27.865950107574463
1619091236.47001,-145.3642,27.8815701007843
1619091236.48564,-124.4163,27.897200107574463
1619091236.50126,-97.27884,27.9128201007843
1619091236.51689,-67.84067,27.928450107574463
1619091236.53251,-39.91202,27.9440701007843
1619091236.54814,-16.09784,27.959700107574463
1619091236.56377,2.703949,27.975330114364624
1619091236.57939,17.08453,27.990950107574463
1619091236.59502,28.43411,28.006580114364624
1619091236.61064,38.15308,28.022200107574463
1619091236.62627,47.21475,28.037830114364624
1619091236.64189,55.99994,28.053450107574463
1619091236.65752,64.45682,28.069080114364624
1619091236.67315,72.33267,28.084710121154785
1619091236.68877,79.27795,28.100330114364624
1619091236.7044,84.95816,28.115960121154785
1619091236.72002,89.09909,28.131580114364624
1619091236.73565,91.57446,28.147210121154785
1619091236.75127,92.42355,28.162830114364624
1619091236.7669,91.961,28.178460121154785
1619091236.78253,90.66101,28.194090127944946
1619091236.79815,89.13315,28.209710121154785
1619091236.81378,87.94266,28.225340127944946
1619091236.8294,87.45648,28.240960121154785
1619091236.84503,87.7341,28.256590127944946
1619091236.86065,88.53577,28.272210121154785
1619091236.87628,89.32074,28.287840127944946
1619091236.89191,89.39697,28.303470134735107
1619091236.90753,88.1951,28.319090127944946
1619091236.92316,85.42917,28.334720134735107
1619091236.93878,81.21094,28.350340127944946
1619091236.95441,76.06232,28.365970134735107
1619091236.97003,70.63391,28.381590127944946
1619091236.98566,65.45596,28.397220134735107
1619091237.00129,60.75064,28.41285014152527
1619091237.01691,56.40094,28.428470134735107
1619091237.03254,52.08746,28.44410014152527
1619091237.04816,47.52176,28.459720134735107
1619091237.06379,42.54837,28.47535014152527
1619091237.07941,37.22662,28.490970134735107
1619091237.09504,31.73724,28.50660014152527
1619091237.11067,26.20941,28.52223014831543
1619091237.12629,20.64117,28.53785014152527
1619091237.14192,14.92911,28.55348014831543
1619091237.15754,8.893219,28.56910014152527
1619091237.17317,2.469391,28.58473014831543
1619091237.18879,-4.225983,28.60035014152527
1619091237.20442,-10.93967,28.61598014831543
1619091237.22005,-17.42551,28.63161015510559
1619091237.23567,-23.56689,28.64723014831543
1619091237.2513,-29.5397,28.66286015510559
1619091237.26692,-35.71513,28.67848014831543
1619091237.28255,-42.51163,28.69411015510559
1619091237.29817,-50.1631,28.70973014831543
1619091237.3138,-58.54793,28.72536015510559
1619091237.32943,-67.15636,28.740990161895752
1619091237.34505,-75.3562,28.75661015510559
1619091237.36068,-82.62932,28.772240161895752
1619091237.3763,-88.79242,28.78786015510559
1619091237.39193,-94.20541,28.803490161895752
1619091237.40755,-99.63025,28.81911015510559
1619091237.42318,-106.0601,28.834740161895752
1619091237.43881,-114.4993,28.850370168685913
1619091237.45443,-125.434,28.865990161895752
1619091237.47006,-138.4324,28.881620168685913
1619091237.48568,-151.8205,28.897240161895752
1619091237.50131,-162.8108,28.912870168685913
1619091237.51693,-168.0902,28.928490161895752
1619091237.53256,-164.8706,28.944120168685913
1619091237.54819,-151.9513,28.959750175476074
1619091237.56381,-130.2566,28.975370168685913
1619091237.57944,-102.6673,28.991000175476074
1619091237.59506,-73.00935,29.006620168685913
1619091237.61069,-44.82608,29.022250175476074
1619091237.62631,-20.39526,29.037870168685913
1619091237.64194,-0.3881531,29.053500175476074
1619091237.65757,15.77632,29.069129943847656
1619091237.67319,29.24748,29.084750175476074
1619091237.68882,41.03293,29.100379943847656
1619091237.70444,51.73718,29.116000175476074
1619091237.72007,61.50873,29.131629943847656
1619091237.73569,70.27495,29.147250175476074
1619091237.75132,77.86554,29.162879943847656
1619091237.76695,84.11371,29.178509950637817
1619091237.78257,88.84367,29.194129943847656
1619091237.7982,91.93741,29.209759950637817
1619091237.81382,93.2935,29.225379943847656
1619091237.82945,93.00876,29.241009950637817
1619091237.84507,91.37833,29.256629943847656
1619091237.8607,88.89339,29.272259950637817
1619091237.87633,86.20216,29.28788995742798
1619091237.89195,83.93423,29.303509950637817
1619091237.90758,82.50368,29.31913995742798
1619091237.9232,82.05434,29.334759950637817
1619091237.93883,82.35918,29.35038995742798
1619091237.95446,82.85789,29.36601996421814
1619091237.97008,82.87025,29.38163995742798
1619091237.98571,81.78815,29.39726996421814
1619091238.00133,79.26585,29.41288995742798
1619091238.01696,75.33369,29.42851996421814
1619091238.03258,70.41293,29.44413995742798
1619091238.04821,65.07953,29.45976996421814
1619091238.06384,59.94713,29.4753999710083
1619091238.07946,55.4158,29.49101996421814
1619091238.09509,51.60786,29.5066499710083
1619091238.11071,48.40498,29.52226996421814
1619091238.12634,45.51936,29.5378999710083
1619091238.14196,42.61397,29.55351996421814
1619091238.15759,39.4225,29.5691499710083
1619091238.17322,35.83188,29.584779977798462
1619091238.18884,31.87962,29.6003999710083
1619091238.20447,27.7618,29.616029977798462
1619091238.22009,23.69687,29.6316499710083
1619091238.23572,19.87221,29.647279977798462
1619091238.25134,16.31082,29.6628999710083
1619091238.26697,12.83928,29.678529977798462
1619091238.2826,9.098557,29.694159984588623
1619091238.29822,4.757935,29.709779977798462
1619091238.31385,-0.3098145,29.725409984588623
1619091238.32947,-5.940521,29.741029977798462
1619091238.3451,-11.68205,29.756659984588623
1619091238.36072,-17.05663,29.772279977798462
1619091238.37635,-21.78096,29.787909984588623
1619091238.39198,-25.93692,29.803539991378784
1619091238.4076,-29.98676,29.819159984588623
1619091238.42323,-34.55933,29.834789991378784
1619091238.43885,-40.14934,29.850409984588623
1619091238.45448,-46.91696,29.866039991378784
1619091238.4701,-54.59193,29.881659984588623
1619091238.48573,-62.60709,29.897289991378784
1619091238.50136,-70.31534,29.912919998168945
1619091238.51698,-77.24496,29.928539991378784
1619091238.53261,-83.26035,29.944169998168945
1619091238.54823,-88.65041,29.959789991378784
1619091238.56386,-94.01245,29.975419998168945
1619091238.57948,-100.1032,29.991039991378784
1619091238.59511,-107.7579,30.006669998168945
1619091238.61074,-117.5357,30.022300004959106
1619091238.62636,-129.4311,30.037919998168945
1619091238.64199,-142.4725,30.053550004959106
1619091238.65761,-154.5274,30.069169998168945
1619091238.67324,-162.6064,30.084800004959106
1619091238.68886,-163.6342,30.100419998168945
1619091238.70449,-155.4955,30.116050004959106
1619091238.72012,-137.9864,30.131680011749268
1619091238.73574,-113.0612,30.147300004959106
1619091238.75137,-84.28171,30.162930011749268
1619091238.76699,-55.63623,30.178550004959106
1619091238.78262,-30.31957,30.194180011749268
1619091238.79824,-9.929764,30.209800004959106
1619091238.81387,5.561584,30.225430011749268
1619091238.8295,17.27853,30.24106001853943
1619091238.84512,26.67408,30.256680011749268
1619091238.86075,34.94279,30.27231001853943
1619091238.87637,42.75126,30.287930011749268
1619091238.892,50.29691,30.30356001853943
1619091238.90762,57.44257,30.319180011749268
1619091238.92325,63.88606,30.33481001853943
1619091238.93888,69.26439,30.35044002532959
1619091238.9545,73.24384,30.36606001853943
1619091238.97013,75.66432,30.38169002532959
1619091238.98575,76.59109,30.39731001853943
1619091239.00138,76.31889,30.41294002532959
1619091239.017,75.33028,30.42856001853943
1619091239.03263,74.18759,30.44419002532959
1619091239.04826,73.34615,30.45982003211975
1619091239.06388,73.07733,30.47544002532959
1619091239.07951,73.39084,30.49107003211975
1619091239.09513,74.05011,30.50669002532959
1619091239.11076,74.65031,30.52232003211975
1619091239.12638,74.72667,30.53794002532959
1619091239.14201,73.89911,30.55357003211975
1619091239.15764,71.92685,30.569200038909912
1619091239.17326,68.84351,30.58482003211975
1619091239.18889,64.86638,30.600450038909912
1619091239.20451,60.37308,30.61607003211975
1619091239.22014,55.7332,30.631700038909912
1619091239.23576,51.26663,30.64732003211975
1619091239.25139,47.1523,30.662950038909912
1619091239.26702,43.42027,30.678580045700073
1619091239.28264,39.95903,30.694200038909912
1619091239.29827,36.6302,30.709830045700073
1619091239.31389,33.24565,30.725450038909912
1619091239.32952,29.61926,30.741080045700073
1619091239.34514,25.60938,30.756700038909912
1619091239.36077,21.12906,30.772330045700073
1619091239.3764,16.20782,30.787960052490234
1619091239.39202,11.01817,30.803580045700073
1619091239.40765,5.843513,30.819210052490234
1619091239.42327,1.01577,30.834830045700073
1619091239.4389,-3.246483,30.850460052490234
1619091239.45452,-6.954277,30.866080045700073
1619091239.47015,-10.41116,30.881710052490234
1619091239.48578,-14.15742,30.897340059280396
1619091239.5014,-18.76457,30.912960052490234
1619091239.51703,-24.56633,30.928590059280396
1619091239.53265,-31.46461,30.944210052490234
1619091239.54828,-38.96301,30.959840059280396
1619091239.5639,-46.30282,30.975460052490234
1619091239.57953,-52.84695,30.991090059280396
1619091239.59516,-58.34068,31.006720066070557
1619091239.61078,-63.02281,31.022340059280396
1619091239.62641,-67.53497,31.037970066070557
1619091239.64203,-72.70343,31.053590059280396
1619091239.65766,-79.27244,31.069220066070557
1619091239.67328,-87.74224,31.084840059280396
1619091239.68891,-98.1407,31.100470066070557
1619091239.70454,-109.7564,31.116100072860718
1619091239.72016,-121.0349,31.131720066070557
1619091239.73579,-129.6165,31.147350072860718
1619091239.75141,-132.799,31.162970066070557
1619091239.76704,-128.362,31.178600072860718
1619091239.78266,-115.4512,31.194220066070557
1619091239.79829,-95.08694,31.209850072860718
1619091239.81392,-70.00203,31.22548007965088
1619091239.82954,-43.83033,31.241100072860718
1619091239.84517,-19.91046,31.25673007965088
1619091239.86079,-0.3759918,31.272350072860718
1619091239.87642,14.1598,31.28798007965088
1619091239.89204,24.36797,31.303600072860718
1619091239.90767,31.50594,31.31923007965088
1619091239.9233,36.80464,31.33486008644104
1619091239.93892,41.04957,31.35048007965088
1619091239.95455,44.56459,31.36611008644104
1619091239.97017,47.31317,31.38173007965088
1619091239.9858,49.14977,31.39736008644104
1619091240.00142,49.96952,31.41298007965088
1619091240.01705,49.79156,31.42861008644104
1619091240.03268,48.81324,31.4442400932312
1619091240.0483,47.28429,31.45986008644104
1619091240.06393,45.51234,31.4754900932312
1619091240.07955,43.73387,31.49111008644104
1619091240.09518,42.14832,31.5067400932312
1619091240.1108,40.91681,31.52236008644104
1619091240.12643,40.20276,31.5379900932312
1619091240.14206,40.05786,31.553620100021362
1619091240.15768,40.40863,31.5692400932312
1619091240.17331,40.93934,31.584870100021362
1619091240.18893,41.096,31.6004900932312
1619091240.20456,40.26518,31.616120100021362
1619091240.22019,37.94932,31.631750106811523
1619091240.23581,33.99936,31.647370100021362
1619091240.25144,28.61315,31.663000106811523
1619091240.26706,22.3125,31.678620100021362
1619091240.28269,15.68502,31.694250106811523
1619091240.29831,9.237007,31.709870100021362
1619091240.31394,3.292168,31.725500106811523
1619091240.32957,-2.083206,31.741130113601685
1619091240.34519,-6.986504,31.756750106811523
1619091240.36082,-11.54768,31.772380113601685
1619091240.37644,-15.78031,31.788000106811523
1619091240.39207,-19.46955,31.803630113601685
1619091240.40769,-22.2071,31.819250106811523
1619091240.42332,-23.50777,31.834880113601685
1619091240.43895,-23.07119,31.850510120391846
1619091240.45457,-20.99734,31.866130113601685
1619091240.4702,-17.93858,31.881760120391846
1619091240.48582,-14.98012,31.897380113601685
1619091240.50145,-13.36212,31.913010120391846
1619091240.51707,-14.08105,31.928630113601685
1619091240.5327,-17.60926,31.944260120391846
1619091240.54833,-23.79496,31.959890127182007
1619091240.56395,-31.93581,31.975510120391846
1619091240.57958,-41.03589,31.991140127182007
1619091240.5952,-50.05589,32.006760120391846
1619091240.61083,-58.13425,32.02239012718201
1619091240.62645,-64.74097,32.038010120391846
1619091240.64208,-69.78629,32.05364012718201
1619091240.65771,-73.7196,32.06927013397217
1619091240.67333,-77.54376,32.08489012718201
1619091240.68896,-82.65033,32.10052013397217
1619091240.70458,-90.40863,32.11614012718201
1619091240.72021,-101.4765,32.13177013397217
1619091240.73583,-115.1367,32.14739012718201
1619091240.75146,-129.038,32.16302013397217
1619091240.76709,-139.5707,32.17865014076233
1619091240.78271,-143.0231,32.19427013397217
1619091240.79834,-136.9885,32.20990014076233
1619091240.81396,-121.3572,32.22552013397217
1619091240.82959,-98.44345,32.24115014076233
1619091240.84521,-72.0834,32.25677013397217
1619091240.86084,-46.2455,32.27240014076233
1619091240.87647,-23.75624,32.28803014755249
1619091240.89209,-5.662186,32.30365014076233
1619091240.90772,8.46669,32.31928014755249
1619091240.92334,19.81589,32.33490014076233
1619091240.93897,29.52243,32.35053014755249
1619091240.95459,38.33023,32.36615014076233
1619091240.97022,46.64499,32.38178014755249
1619091240.98585,54.76404,32.39741015434265
1619091241.00147,62.9917,32.41303014755249
1619091241.0171,71.57756,32.42866015434265
1619091241.03272,80.52388,32.44428014755249
1619091241.04835,89.48776,32.45991015434265
1619091241.06397,97.87282,32.47553014755249
1619091241.0796,105.0557,32.49116015434265
1619091241.09523,110.6808,32.50679016113281
1619091241.11085,114.8175,32.52241015434265
1619091241.12648,117.8853,32.53804016113281
1619091241.1421,120.5566,32.55366015434265
1619091241.15773,123.4926,32.56929016113281
1619091241.17335,127.0722,32.58491015434265
1619091241.18898,131.2269,32.60054016113281
1619091241.20461,135.342,32.616170167922974
1619091241.22023,138.4055,32.63179016113281
1619091241.23586,139.2951,32.647420167922974
1619091241.25148,137.1662,32.66304016113281
1619091241.26711,131.7616,32.678670167922974
1619091241.28273,123.5676,32.69429016113281
1619091241.29836,113.5995,32.709920167922974
1619091241.31399,103.0561,32.725550174713135
1619091241.32961,92.85797,32.741170167922974
1619091241.34524,83.41211,32.756800174713135
1619091241.36086,74.5842,32.772420167922974
1619091241.37649,65.94724,32.788050174713135
1619091241.39211,57.12555,32.803670167922974
1619091241.40774,48.00775,32.819300174713135
1619091241.42337,38.74951,32.83492994308472
1619091241.43899,29.68915,32.850550174713135
1619091241.45462,21.06674,32.86617994308472
1619091241.47024,12.89108,32.881800174713135
1619091241.48587,4.88327,32.89742994308472
1619091241.50149,-3.302673,32.913050174713135
1619091241.51712,-11.85405,32.92867994308472
1619091241.53275,-20.59872,32.94430994987488
1619091241.54837,-28.97441,32.95992994308472
1619091241.564,-36.28882,32.97555994987488
1619091241.57962,-42.02261,32.99117994308472
1619091241.59525,-46.19044,33.00680994987488
1619091241.61087,-49.36884,33.02242994308472
1619091241.6265,-52.50975,33.03805994987488
1619091241.64213,-56.58073,33.05368995666504
1619091241.65775,-62.08316,33.06930994987488
1619091241.67338,-68.90437,33.08493995666504
1619091241.689,-76.34447,33.10055994987488
1619091241.70463,-83.43266,33.11618995666504
1619091241.72025,-89.30072,33.13180994987488
1619091241.73588,-93.56726,33.14743995666504
1619091241.75151,-96.42546,33.1630699634552
1619091241.76713,-98.60001,33.17868995666504
1619091241.78276,-101.1286,33.1943199634552
1619091241.79838,-105.0588,33.20993995666504
1619091241.81401,-111.1333,33.2255699634552
1619091241.82963,-119.4493,33.24118995666504
1619091241.84526,-129.1609,33.2568199634552
1619091241.86089,-138.3868,33.27244997024536
1619091241.87651,-144.5007,33.2880699634552
1619091241.89214,-144.7337,33.30369997024536
1619091241.90776,-137.0868,33.3193199634552
1619091241.92339,-121.1374,33.33494997024536
1619091241.93901,-98.34354,33.3505699634552
1619091241.95464,-71.73109,33.36619997024536
1619091241.97027,-44.97562,33.38182997703552
1619091241.98589,-21.29967,33.39744997024536
1619091242.00152,-2.587372,33.41307997703552
1619091242.01714,10.8703,33.42869997024536
1619091242.03277,20.06136,33.44432997703552
1619091242.04839,26.63712,33.45994997024536
1619091242.06402,32.15909,33.47557997703552
1619091242.07965,37.69016,33.491209983825684
1619091242.09527,43.6595,33.50682997703552
1619091242.1109,49.96663,33.522459983825684
1619091242.12652,56.22617,33.53807997703552
1619091242.14215,61.93613,33.553709983825684
1619091242.15777,66.68442,33.56932997703552
1619091242.1734,70.23593,33.584959983825684
1619091242.18903,72.57544,33.600589990615845
1619091242.20465,73.89122,33.616209983825684
1619091242.22028,74.5668,33.631839990615845
1619091242.2359,75.03329,33.647459983825684
1619091242.25153,75.66258,33.663089990615845
1619091242.26715,76.72234,33.678709983825684
1619091242.28278,78.23291,33.694339990615845
1619091242.29841,80.01828,33.709969997406006
1619091242.31403,81.71857,33.725589990615845
1619091242.32966,82.91943,33.741219997406006
1619091242.34528,83.33034,33.756839990615845
1619091242.36091,82.9295,33.772469997406006
1619091242.37653,82.02147,33.788089990615845
1619091242.39216,81.20099,33.803719997406006
1619091242.40779,81.14128,33.81935000419617
1619091242.42341,82.35741,33.834969997406006
1619091242.43904,85.02863,33.85060000419617
1619091242.45466,88.95654,33.866219997406006
1619091242.47029,93.63589,33.88185000419617
1619091242.48591,98.44656,33.897469997406006
1619091242.50154,102.862,33.91310000419617
1619091242.51717,106.5769,33.92873001098633
1619091242.53279,109.5678,33.94435000419617
1619091242.54842,112.0804,33.95998001098633
1619091242.56404,114.5735,33.97560000419617
1619091242.57967,117.6348,33.99123001098633
1619091242.59529,121.8054,34.00685000419617
1619091242.61092,127.4515,34.02248001098633
1619091242.62655,134.6802,34.03811001777649
1619091242.64217,143.3174,34.05373001098633
1619091242.6578,153.0232,34.06936001777649
1619091242.67342,163.4735,34.08498001098633
1619091242.68905,174.4194,34.10061001777649
1619091242.70467,185.6247,34.11623001098633
1619091242.7203,196.7516,34.13186001777649
1619091242.73593,207.2556,34.14749002456665
1619091242.75155,216.403,34.16311001777649
1619091242.76718,223.4576,34.17874002456665
1619091242.7828,227.8088,34.19436001777649
1619091242.79843,229.0551,34.20999002456665
1619091242.81406,226.9943,34.22562003135681
1619091242.82968,221.5806,34.24124002456665
1619091242.84531,212.965,34.25687003135681
1619091242.86093,201.6221,34.27249002456665
1619091242.87656,188.4635,34.28812003135681
1619091242.89218,174.823,34.30374002456665
1619091242.90781,162.2005,34.31937003135681
1619091242.92344,151.9112,34.33500003814697
1619091242.93906,144.6649,34.35062003135681
1619091242.95469,140.4476,34.36625003814697
1619091242.97031,138.6465,34.38187003135681
1619091242.98594,138.3727,34.39750003814697
1619091243.00156,138.8435,34.41312003135681
1619091243.01719,139.6216,34.42875003814697
1619091243.03282,140.5815,34.444380044937134
1619091243.04844,141.7604,34.46000003814697
1619091243.06407,143.1639,34.475630044937134
1619091243.07969,144.5401,34.49125003814697
1619091243.09532,145.3896,34.506880044937134
1619091243.11094,145.0506,34.52250003814697
1619091243.12657,142.926,34.538130044937134
1619091243.1422,138.7418,34.553760051727295
1619091243.15782,132.6547,34.569380044937134
1619091243.17345,125.2147,34.585010051727295
1619091243.18907,117.1523,34.600630044937134
1619091243.2047,109.0027,34.616260051727295
1619091243.22032,100.7791,34.631880044937134
1619091243.23595,91.81622,34.647510051727295
1619091243.25158,80.87,34.663140058517456
1619091243.2672,66.52588,34.678760051727295
1619091243.28283,47.62555,34.694390058517456
1619091243.29845,23.67029,34.710010051727295
1619091243.31408,-5.192383,34.725640058517456
1619091243.3297,-38.37305,34.741260051727295
1619091243.34533,-75.21729,34.756890058517456
1619091243.36096,-115.3368,34.77252006530762
1619091243.37658,-158.6725,34.788140058517456
1619091243.39221,-205.3267,34.80377006530762
1619091243.40783,-255.3549,34.819390058517456
1619091243.42346,-308.7386,34.83502006530762
1619091243.43908,-365.2974,34.850640058517456
1619091243.45471,-424.5784,34.86627006530762
1619091243.47034,-485.2795,34.88190007209778
1619091243.48596,-544.6445,34.89752006530762
1619091243.50159,-598.2941,34.91315007209778
1619091243.51721,-640.7859,34.92877006530762
1619091243.53284,-667.082,34.94440007209778
1619091243.54846,-674.308,34.96002006530762
1619091243.56409,-662.85,34.97565007209778
1619091243.57972,-636.2041,34.99128007888794
1619091243.59534,-599.6836,35.00690007209778
1619091243.61097,-558.5889,35.02253007888794
1619091243.62659,-516.8632,35.03815007209778
1619091243.64222,-476.7843,35.05378007888794
1619091243.65784,-439.4592,35.06940007209778
1619091243.67347,-405.6621,35.08503007888794
1619091243.6891,-376.1841,35.1006600856781
1619091243.70472,-351.6144,35.11628007888794
1619091243.72035,-331.7784,35.1319100856781
1619091243.73597,-315.571,35.14753007888794
1619091243.7516,-301.2576,35.1631600856781
1619091243.76722,-287.2549,35.17878007888794
1619091243.78285,-272.9639,35.1944100856781
1619091243.79848,-259.0336,35.21004009246826
1619091243.8141,-247.1899,35.2256600856781
1619091243.82973,-239.4653,35.24129009246826
1619091243.84535,-237.1404,35.2569100856781
1619091243.86098,-239.8618,35.27254009246826
1619091243.8766,-245.2742,35.2881600856781
1619091243.89223,-249.3562,35.30379009246826
1619091243.90786,-247.459,35.31942009925842
1619091243.92348,-235.8433,35.33504009246826
1619091243.93911,-212.9459,35.35067009925842
1619091243.95473,-180.0099,35.36629009246826
1619091243.97036,-140.673,35.38192009925842
1619091243.98598,-99.63965,35.39754009246826
1619091244.00161,-61.15967,35.41317009925842
1619091244.01724,-27.88647,35.428800106048584
1619091244.03286,-0.4140625,35.44442009925842
1619091244.04849,22.24512,35.460050106048584
1619091244.06411,41.74121,35.47567009925842
1619091244.07974,59.54675,35.491300106048584
1619091244.09536,76.38428,35.50692009925842
1619091244.11099,92.26569,35.522550106048584
1619091244.12662,106.7141,35.538180112838745
1619091244.14224,119.1903,35.553800106048584
1619091244.15787,129.3586,35.569430112838745
1619091244.17349,137.22,35.585050106048584
1619091244.18912,143.0446,35.600680112838745
1619091244.20474,147.2013,35.616300106048584
1619091244.22037,150.0781,35.631930112838745
1619091244.236,151.963,35.647560119628906
1619091244.25162,153.1082,35.663180112838745
1619091244.26725,153.7588,35.678810119628906
1619091244.28287,154.2371,35.694430112838745
1619091244.2985,154.8826,35.710060119628906
1619091244.31412,155.942,35.725680112838745
1619091244.32975,157.3689,35.741310119628906
1619091244.34538,158.7383,35.75694012641907
1619091244.361,159.2979,35.772560119628906
1619091244.37663,158.2195,35.78819012641907
1619091244.39225,154.9248,35.803810119628906
1619091244.40788,149.3882,35.81944012641907
1619091244.4235,142.2529,35.835060119628906
1619091244.43913,134.6007,35.85069012641907
1619091244.45476,127.5361,35.86632013320923
1619091244.47038,121.7695,35.88194012641907
1619091244.48601,117.2878,35.89757013320923
1619091244.50163,113.4366,35.91319012641907
1619091244.51726,109.2,35.92882013320923
1619091244.53288,103.7186,35.94444012641907
1619091244.54851,96.65936,35.96007013320923
1619091244.56414,88.31781,35.97570013999939
1619091244.57976,79.4624,35.99132013320923
1619091244.59539,70.88324,36.00695013999939
1619091244.61101,63.05746,36.02257013320923
1619091244.62664,55.90265,36.03820013999939
1619091244.64226,48.80838,36.05382013320923
1619091244.65789,40.92719,36.06945013999939
1619091244.67352,31.58926,36.08508014678955
1619091244.68914,20.60117,36.10070013999939
1619091244.70477,8.375702,36.11633014678955
1619091244.72039,-4.185669,36.13195013999939
1619091244.73602,-16.05893,36.14758014678955
1619091244.75164,-26.4653,36.16320013999939
1619091244.76727,-35.21454,36.17883014678955
1619091244.7829,-42.80399,36.19446015357971
1619091244.79852,-50.37064,36.21008014678955
1619091244.81415,-59.3696,36.22571015357971
1619091244.82977,-71.14877,36.24133014678955
1619091244.8454,-86.38419,36.25696015357971
1619091244.86102,-104.4866,36.27258014678955
1619091244.87665,-123.2942,36.28821015357971
1619091244.89228,-139.2124,36.30384016036987
1619091244.9079,-148.0605,36.31946015357971
1619091244.92353,-146.403,36.33509016036987
1619091244.93915,-132.9087,36.35071015357971
1619091244.95478,-109.1228,36.36634016036987
1619091244.9704,-79.14594,36.38196015357971
1619091244.98603,-48.31979,36.39759016036987
1619091245.00166,-21.40353,36.413220167160034
1619091245.01728,-1.17926,36.42884016036987
1619091245.03291,12.12939,36.444470167160034
1619091245.04853,20.33368,36.46009016036987
1619091245.06416,26.08505,36.475720167160034
1619091245.07979,31.76622,36.491350173950195
1619091245.09541,38.73032,36.506970167160034
1619091245.11104,47.27425,36.522600173950195
1619091245.12666,56.97548,36.538220167160034
1619091245.14229,67.12732,36.553850173950195
1619091245.15791,76.98572,36.569470167160034
1619091245.17354,85.92267,36.585100173950195
1619091245.18917,93.42476,36.60072994232178
1619091245.20479,99.0832,36.616350173950195
1619091245.22042,102.7372,36.63197994232178
1619091245.23604,104.5271,36.647600173950195
1619091245.25167,104.9534,36.66322994232178
1619091245.26729,104.7924,36.678850173950195
1619091245.28292,104.9306,36.69447994232178
1619091245.29855,106.0451,36.71010994911194
1619091245.31417,108.3824,36.72572994232178
1619091245.3298,111.6574,36.74135994911194
1619091245.34542,115.0924,36.75697994232178
1619091245.36105,117.7502,36.77260994911194
1619091245.37667,118.8038,36.78822994232178
1619091245.3923,117.8381,36.80385994911194
1619091245.40793,114.9604,36.8194899559021
1619091245.42355,110.7189,36.83510994911194
1619091245.43918,105.8726,36.8507399559021
1619091245.4548,101.1587,36.86635994911194
1619091245.47043,97.05765,36.8819899559021
1619091245.48605,93.67548,36.89760994911194
1619091245.50168,90.82573,36.9132399559021
1619091245.51731,88.06467,36.92886996269226
1619091245.53293,84.92641,36.9444899559021
1619091245.54856,81.07483,36.96011996269226
1619091245.56418,76.45285,36.9757399559021
1619091245.57981,71.30974,36.99136996269226
1619091245.59543,66.09956,37.0069899559021
1619091245.61106,61.31979,37.02261996269226
1619091245.62669,57.24834,37.03824996948242
1619091245.64231,53.77621,37.05386996269226
1619091245.65794,50.43219,37.06949996948242
1619091245.67356,46.51704,37.08511996269226
1619091245.68919,41.43358,37.10074996948242
1619091245.70481,34.95056,37.11636996269226
1619091245.72044,27.33847,37.13199996948242
1619091245.73607,19.27829,37.14762997627258
1619091245.75169,11.56143,37.16324996948242
1619091245.76732,4.707932,37.17887997627258
1619091245.78294,-1.241745,37.19449996948242
1619091245.79857,-6.769028,37.21012997627258
1619091245.81419,-12.65578,37.22574996948242
1619091245.82982,-19.57964,37.24137997627258
1619091245.84545,-27.83972,37.257009983062744
1619091245.86107,-37.20743,37.27262997627258
1619091245.8767,-47.05608,37.288259983062744
1619091245.89232,-56.64194,37.30387997627258
1619091245.90795,-65.44711,37.319509983062744
1619091245.92357,-73.34511,37.33512997627258
1619091245.9392,-80.71382,37.350759983062744
1619091245.95483,-88.25894,37.366389989852905
1619091245.97045,-96.83542,37.382009983062744
1619091245.98608,-107.2696,37.397639989852905
1619091246.0017,-120.0096,37.413259983062744
1619091246.01733,-134.7378,37.428889989852905
1619091246.03295,-149.9656,37.444509983062744
1619091246.04858,-163.0104,37.460139989852905
1619091246.06421,-170.4624,37.475769996643066
1619091246.07983,-169.1518,37.491389989852905
1619091246.09546,-157.3799,37.507019996643066
1619091246.11108,-135.7226,37.522639989852905
1619091246.12671,-107.015,37.538269996643066
1619091246.14233,-75.49033,37.553889989852905
1619091246.15796,-45.39461,37.569519996643066
1619091246.17359,-19.64417,37.58515000343323
1619091246.18921,0.6800842,37.600769996643066
1619091246.20484,16.16342,37.61640000343323
1619091246.22046,28.32745,37.632019996643066
1619091246.23609,38.75864,37.64765000343323
1619091246.25171,48.57236,37.663269996643066
1619091246.26734,58.24323,37.67890000343323
1619091246.28297,67.74673,37.69453001022339
1619091246.29859,76.70337,37.71015000343323
1619091246.31422,84.60477,37.72578001022339
1619091246.32984,90.91321,37.74140000343323
1619091246.34547,95.21707,37.75703001022339
1619091246.36109,97.40341,37.77265000343323
1619091246.37672,97.68253,37.78828001022339
1619091246.39235,96.59723,37.80391001701355
1619091246.40797,94.832,37.81953001022339
1619091246.4236,93.1051,37.83516001701355
1619091246.43922,91.95288,37.85078001022339
1619091246.45485,91.69315,37.86641001701355
1619091246.47047,92.29755,37.88203001022339
1619091246.4861,93.46524,37.89766001701355
1619091246.50173,94.65079,37.91329002380371
1619091246.51735,95.14886,37.92891001701355
1619091246.53298,94.31967,37.94454002380371
1619091246.5486,91.77808,37.96016001701355
1619091246.56423,87.521,37.97579002380371
1619091246.57985,82.00217,37.99141001701355
1619091246.59548,75.96991,38.00704002380371
1619091246.61111,70.19803,38.02267003059387
1619091246.62673,65.29559,38.03829002380371
1619091246.64236,61.45883,38.05392003059387
1619091246.65798,58.41379,38.06954002380371
1619091246.67361,55.60538,38.08517003059387
1619091246.68923,52.36172,38.10079002380371
1619091246.70486,48.15857,38.11642003059387
1619091246.72049,42.77518,38.13205003738403
1619091246.73611,36.39932,38.14767003059387
1619091246.75174,29.51801,38.16330003738403
1619091246.76736,22.76331,38.17892003059387
1619091246.78299,16.69193,38.19455003738403
1619091246.79861,11.54419,38.21017003059387
1619091246.81424,7.152069,38.22580003738403
1619091246.82987,2.940338,38.241430044174194
1619091246.84549,-1.832611,38.25705003738403
1619091246.86112,-7.777649,38.272680044174194
1619091246.87674,-15.06528,38.28830003738403
1619091246.89237,-23.3508,38.303930044174194
1619091246.90799,-31.92075,38.31955003738403
1619091246.92362,-39.97549,38.335180044174194
1619091246.93925,-47.01904,38.350810050964355
1619091246.95487,-53.0144,38.366430044174194
1619091246.9705,-58.46527,38.382060050964355
1619091246.98612,-64.19693,38.397680044174194
1619091247.00175,-71.16589,38.413310050964355
1619091247.01737,-80.1355,38.428930044174194
1619091247.033,-91.35925,38.444560050964355
1619091247.04863,-104.2166,38.46019005775452
1619091247.06425,-117.0234,38.475810050964355
1619091247.07988,-127.1077,38.49144005775452
1619091247.0955,-131.3891,38.507060050964355
1619091247.11113,-127.3713,38.52269005775452
1619091247.12675,-114.059,38.538310050964355
1619091247.14238,-92.5708,38.55394005775452
1619091247.15801,-65.8916,38.56957006454468
1619091247.17363,-37.88736,38.58519005775452
1619091247.18926,-12.13647,38.60082006454468
1619091247.20488,9.131897,38.61644005775452
1619091247.22051,25.35297,38.63207006454468
1619091247.23614,37.31259,38.64770007133484
1619091247.25176,46.44785,38.66332006454468
1619091247.26739,54.14432,38.67895007133484
1619091247.28301,61.25476,38.69457006454468
1619091247.29864,67.99359,38.71020007133484
1619091247.31426,74.14539,38.72582006454468
1619091247.32989,79.26913,38.74145007133484
1619091247.34552,83.05011,38.757080078125
1619091247.36114,85.46408,38.77270007133484
1619091247.37677,86.77374,38.788330078125
1619091247.39239,87.43619,38.80395007133484
1619091247.40802,87.89389,38.819580078125
1619091247.42364,88.36389,38.83520007133484
1619091247.43927,88.89539,38.850830078125
1619091247.4549,89.44794,38.86646008491516
1619091247.47052,90.02542,38.882080078125
1619091247.48615,90.70944,38.89771008491516
1619091247.50177,91.54953,38.913330078125
1619091247.5174,92.38126,38.92896008491516
1619091247.53302,92.79718,38.944580078125
1619091247.54865,92.20996,38.96021008491516
1619091247.56428,90.07901,38.97584009170532
1619091247.5799,86.23071,38.99146008491516
1619091247.59553,80.93567,39.00709009170532
1619091247.61115,74.80222,39.02271008491516
1619091247.62678,68.58038,39.03834009170532
1619091247.6424,62.88852,39.05396008491516
1619091247.65803,57.95938,39.06959009170532
1619091247.67366,53.60153,39.08522009849548
1619091247.68928,49.27124,39.10084009170532
1619091247.70491,44.29074,39.11647009849548
1619091247.72053,38.17841,39.13209009170532
1619091247.73616,30.8688,39.14772009849548
1619091247.75178,22.79211,39.16334009170532
1619091247.76741,14.71695,39.17897009849548
1619091247.78304,7.463928,39.194600105285645
1619091247.79866,1.457947,39.21022009849548
1619091247.81429,-3.429794,39.225850105285645
1619091247.82991,-7.866104,39.24147009849548
1619091247.84554,-12.80592,39.257100105285645
1619091247.86116,-19.01289,39.27272009849548
1619091247.87679,-26.77568,39.288350105285645
1619091247.89242,-35.81306,39.303980112075806
1619091247.90804,-45.37129,39.319600105285645
1619091247.92367,-54.57362,39.335230112075806
1619091247.93929,-62.75066,39.350850105285645
1619091247.95492,-69.64597,39.366480112075806
1619091247.97054,-75.48428,39.382100105285645
1619091247.98617,-80.86555,39.397730112075806
1619091248.0018,-86.68423,39.41336011886597
1619091248.01742,-93.92363,39.428980112075806
1619091248.03305,-103.3986,39.44461011886597
1619091248.04867,-115.3171,39.460230112075806
1619091248.0643,-128.8534,39.47586011886597
1619091248.07992,-141.8598,39.491480112075806
1619091248.09555,-151.1312,39.50711011886597
1619091248.11118,-153.2271,39.52274012565613
1619091248.1268,-145.6495,39.53836011886597
1619091248.14243,-127.9032,39.55399012565613
1619091248.15805,-101.8673,39.56961011886597
1619091248.17368,-71.23482,39.58524012565613
1619091248.1893,-40.22795,39.60086011886597
1619091248.20493,-12.21405,39.61649012565613
1619091248.22056,11.14505,39.63212013244629
1619091248.23618,29.97887,39.64774012565613
1619091248.25181,45.52563,39.66337013244629
1619091248.26743,59.27706,39.67899012565613
1619091248.28306,72.38697,39.69462013244629
1619091248.29868,85.39733,39.71024012565613
1619091248.31431,98.40182,39.72587013244629
1619091248.32994,111.2523,39.74150013923645
1619091248.34556,123.6841,39.75712013244629
1619091248.36119,135.3905,39.77275013923645
1619091248.37681,146.0504,39.78837013244629
1619091248.39244,155.4176,39.80400013923645
1619091248.40806,163.4307,39.81962013244629
1619091248.42369,170.3134,39.83525013923645
1619091248.43932,176.4703,39.85088014602661
1619091248.45494,182.4742,39.86650013923645
1619091248.47057,188.8923,39.88213014602661
1619091248.48619,196.222,39.89775013923645
1619091248.50182,204.7362,39.91338014602661
1619091248.51744,214.369,39.92900013923645
1619091248.53307,224.6399,39.94463014602661
1619091248.5487,234.6432,39.96026015281677
1619091248.56432,243.2496,39.97588014602661
1619091248.57995,249.3287,39.99151015281677
1619091248.59557,252.0167,40.00713014602661
1619091248.6112,250.8124,40.02276015281677
1619091248.62682,245.6237,40.03838014602661
1619091248.64245,236.6786,40.05401015281677
1619091248.65808,224.579,40.069640159606934
1619091248.6737,210.3164,40.08526015281677
1619091248.68933,195.2193,40.100890159606934
1619091248.70495,180.7845,40.11651015281677
1619091248.72058,168.3228,40.132140159606934
1619091248.7362,158.653,40.14776015281677
1619091248.75183,151.9152,40.163390159606934
1619091248.76746,147.7208,40.179020166397095
1619091248.78308,145.5076,40.194640159606934
1619091248.79871,144.8338,40.210270166397095
1619091248.81433,145.4955,40.225890159606934
1619091248.82996,147.3189,40.241520166397095
1619091248.84558,149.797,40.257140159606934
1619091248.86121,151.9525,40.272770166397095
1619091248.87684,152.4393,40.288400173187256
1619091248.89246,149.9365,40.304020166397095
1619091248.90809,143.684,40.319650173187256
1619091248.92371,133.8146,40.335270166397095
1619091248.93934,121.3419,40.350900173187256
1619091248.95496,107.7357,40.366520166397095
1619091248.97059,94.26532,40.382150173187256
1619091248.98622,81.34674,40.39777994155884
1619091249.00184,68.30835,40.413400173187256
1619091249.01747,53.53192,40.42902994155884
1619091249.03309,35.09113,40.444650173187256
1619091249.04872,11.51184,40.46027994155884
1619091249.06434,-17.64075,40.475900173187256
1619091249.07997,-51.70392,40.49152994155884
1619091249.0956,-89.38312,40.507159948349
1619091249.11122,-129.3738,40.52277994155884
1619091249.12685,-170.9783,40.538409948349
1619091249.14247,-214.3306,40.55402994155884
1619091249.1581,-260.1821,40.569659948349
1619091249.17372,-309.5319,40.58527994155884
1619091249.18935,-363.4591,40.600909948349
1619091249.20498,-422.8738,40.61653995513916
1619091249.2206,-488.0765,40.632159948349
1619091249.23623,-557.7596,40.64778995513916
1619091249.25185,-627.9812,40.663409948349
1619091249.26748,-691.7731,40.67903995513916
1619091249.2831,-740.2461,40.694659948349
1619091249.29873,-765.0625,40.71028995513916
1619091249.31436,-761.4357,40.72591996192932
1619091249.32998,-730.0734,40.74153995513916
1619091249.34561,-676.9647,40.75716996192932
1619091249.36123,-611.066,40.77278995513916
1619091249.37686,-541.1058,40.78841996192932
1619091249.39248,-473.1885,40.80403995513916
1619091249.40811,-410.1982,40.81966996192932
1619091249.42374,-352.908,40.83529996871948
1619091249.43936,-301.5988,40.85091996192932
1619091249.45499,-256.9958,40.86654996871948
1619091249.47061,-219.9299,40.88216996192932
1619091249.48624,-190.3584,40.89779996871948
1619091249.50186,-166.6233,40.91341996192932
1619091249.51749,-145.7007,40.92904996871948
1619091249.53312,-124.4159,40.944679975509644
1619091249.54874,-100.785,40.96029996871948
1619091249.56437,-74.7262,40.975929975509644
1619091249.57999,-47.84326,40.99154996871948
1619091249.59562,-22.52734,41.007179975509644
1619091249.61124,-0.7298584,41.02279996871948
1619091249.62687,16.79956,41.038429975509644
1619091249.6425,30.60901,41.054059982299805
1619091249.65812,42.0553,41.069679975509644
1619091249.67375,52.53931,41.085309982299805
1619091249.68937,62.87073,41.100929975509644
1619091249.705,72.97278,41.116559982299805
1619091249.72062,82.02747,41.132179975509644
1619091249.73625,88.94855,41.147809982299805
1619091249.75188,92.94836,41.163439989089966
1619091249.7675,93.94641,41.179059982299805
1619091249.78313,92.66168,41.194689989089966
1619091249.79875,90.32538,41.210309982299805
1619091249.81438,88.18335,41.225939989089966
1619091249.83,86.95074,41.241559982299805
1619091249.84563,86.50586,41.257189989089966
1619091249.86126,86.05231,41.27281999588013
1619091249.87688,84.4881,41.288439989089966
1619091249.89251,81.03748,41.30406999588013
1619091249.90813,75.58386,41.319689989089966
1619091249.92376,68.75269,41.33531999588013
1619091249.93939,61.57629,41.35095000267029
1619091249.95501,54.93127,41.36656999588013
1619091249.97064,49.14514,41.38220000267029
1619091249.98626,43.84247,41.39781999588013
1619091250.00189,38.17395,41.41345000267029
1619091250.01751,31.26178,41.42906999588013
1619091250.03314,22.6698,41.44470000267029
1619091250.04877,12.55328,41.46033000946045
1619091250.06439,1.589233,41.47595000267029
1619091250.08002,-9.357178,41.49158000946045
1619091250.09564,-19.54926,41.50720000267029
1619091250.11127,-28.72491,41.52283000946045
1619091250.12689,-37.06995,41.53845000267029
1619091250.14252,-45.20416,41.55408000946045
1619091250.15815,-54.04333,41.56971001625061
1619091250.17377,-64.5838,41.58533000946045
1619091250.1894,-77.55884,41.60096001625061
1619091250.20502,-92.96094,41.61658000946045
1619091250.22065,-109.607,41.63221001625061
1619091250.23627,-124.9676,41.64783000946045
1619091250.2519,-135.5877,41.66346001625061
1619091250.26753,-138.0599,41.67909002304077
1619091250.28315,-130.2158,41.69471001625061
1619091250.29878,-112.1304,41.71034002304077
1619091250.3144,-86.1825,41.72596001625061
1619091250.33003,-56.3642,41.74159002304077
1619091250.34565,-26.99878,41.75721001625061
1619091250.36128,-1.327454,41.77284002304077
1619091250.37691,19.22107,41.78847002983093
1619091250.39253,34.93762,41.80409002304077
1619091250.40816,47.17963,41.81972002983093
1619091250.42378,57.46286,41.83534002304077
1619091250.43941,66.85425,41.85097002983093
1619091250.45503,75.71606,41.86659002304077
1619091250.47066,83.91119,41.88222002983093
1619091250.48629,91.09473,41.897850036621094
1619091250.50191,96.96515,41.91347002983093
1619091250.51754,101.3818,41.929100036621094
1619091250.53316,104.3477,41.94472002983093
1619091250.54879,105.9606,41.960350036621094
1619091250.56441,106.3282,41.97597002983093
1619091250.58004,105.6574,41.991600036621094
1619091250.59567,104.3267,42.007230043411255
1619091250.61129,102.8729,42.022850036621094
1619091250.62692,101.9197,42.038480043411255
1619091250.64254,102.005,42.054100036621094
1619091250.65817,103.2834,42.069730043411255
1619091250.67379,105.4368,42.085350036621094
1619091250.68942,107.713,42.100980043411255
1619091250.70505,109.1611,42.116610050201416
1619091250.72067,108.9766,42.132230043411255
1619091250.7363,106.7883,42.147860050201416
1619091250.75192,102.7841,42.163480043411255
1619091250.76755,97.54358,42.179110050201416
1619091250.78317,91.79092,42.194730043411255
1619091250.7988,86.01607,42.210360050201416
1619091250.81443,80.3483,42.22599005699158
1619091250.83005,74.60765,42.241610050201416
1619091250.84568,68.47409,42.25724005699158
1619091250.8613,61.79842,42.272860050201416
1619091250.87693,54.75952,42.28849005699158
1619091250.89255,47.81868,42.304110050201416
1619091250.90818,41.49752,42.31974005699158
1619091250.92381,36.06136,42.33537006378174
1619091250.93943,31.32127,42.35099005699158
1619091250.95506,26.62827,42.36662006378174
1619091250.97068,21.15996,42.38224005699158
1619091250.98631,14.251,42.39787006378174
1619091251.00193,5.775185,42.41349005699158
1619091251.01756,-3.809235,42.42912006378174
1619091251.03319,-13.66598,42.4447500705719
1619091251.04881,-22.92062,42.46037006378174
1619091251.06444,-31.07389,42.4760000705719
1619091251.08006,-38.14771,42.49162006378174
1619091251.09569,-44.69819,42.5072500705719
1619091251.11131,-51.62666,42.52287006378174
1619091251.12694,-59.98299,42.5385000705719
1619091251.14257,-70.59207,42.55413007736206
1619091251.15819,-83.71106,42.5697500705719
1619091251.17382,-98.6244,42.58538007736206
1619091251.18944,-113.376,42.6010000705719
1619091251.20507,-124.997,42.61663007736206
1619091251.22069,-130.192,42.6322500705719
1619091251.23632,-126.4016,42.64788007736206
1619091251.25195,-112.8071,42.66351008415222
1619091251.26757,-90.80325,42.67913007736206
1619091251.2832,-63.60137,42.69476008415222
1619091251.29882,-35.18853,42.71038007736206
1619091251.31445,-9.07185,42.72601008415222
1619091251.33007,12.67195,42.74163007736206
1619091251.3457,29.64113,42.75726008415222
1619091251.36133,42.68549,42.77289009094238
1619091251.37695,53.19603,42.78851008415222
1619091251.39258,62.37422,42.80414009094238
1619091251.4082,70.85256,42.81976008415222
1619091251.42383,78.70934,42.83539009094238
1619091251.43945,85.61767,42.85101008415222
1619091251.45508,91.15159,42.86664009094238
1619091251.47071,95.04158,42.882270097732544
1619091251.48633,97.27911,42.89789009094238
1619091251.50196,98.10086,42.913520097732544
1619091251.51758,97.91367,42.92914009094238
1619091251.53321,97.16473,42.944770097732544
1619091251.54883,96.25047,42.96039009094238
1619091251.56446,95.50922,42.976020097732544
1619091251.58009,95.21968,42.991650104522705
1619091251.59571,95.55641,43.007270097732544
1619091251.61134,96.52965,43.022900104522705
1619091251.62696,97.90991,43.038520097732544
1619091251.64259,99.24066,43.054150104522705
1619091251.65821,99.88573,43.069770097732544
1619091251.67384,99.23134,43.085400104522705
1619091251.68947,96.87541,43.101030111312866
1619091251.70509,92.78992,43.116650104522705
