timestamp,value,norm_ts
1619090970.52019,-49.6467,5.3180201053619385
1619090970.53582,-57.87753,5.3336501121521
1619090970.55145,-66.60831,5.349280118942261
1619090970.56707,-75.68262,5.3649001121521
1619090970.5827,-84.71252,5.380530118942261
1619090970.59832,-93.06784,5.3961501121521
1619090970.61395,-99.8119,5.411780118942261
1619090970.62957,-103.6699,5.4274001121521
1619090970.6452,-103.1917,5.443030118942261
1619090970.66083,-97.15837,5.458660125732422
1619090970.67645,-85.07812,5.474280118942261
1619090970.69208,-67.66443,5.489910125732422
1619090970.7077,-46.85871,5.505530118942261
1619090970.72333,-25.32081,5.521160125732422
1619090970.73895,-5.578823,5.536780118942261
1619090970.75458,10.72878,5.552410125732422
1619090970.77021,23.21249,5.568040132522583
1619090970.78583,32.48143,5.583660125732422
1619090970.80146,39.54742,5.599290132522583
1619090970.81708,45.24315,5.614910125732422
1619090970.83271,49.85918,5.630540132522583
1619090970.84833,53.18943,5.646160125732422
1619090970.86396,54.80389,5.661790132522583
1619090970.87959,54.36454,5.677420139312744
1619090970.89521,51.73223,5.693040132522583
1619090970.91084,47.02715,5.708670139312744
1619090970.92646,40.58913,5.724290132522583
1619090970.94209,32.96265,5.739920139312744
1619090970.95771,24.89078,5.755540132522583
1619090970.97334,17.23818,5.771170139312744
1619090970.98897,10.8196,5.786800146102905
1619090971.00459,6.188332,5.802420139312744
1619090971.02022,3.508888,5.818050146102905
1619090971.03584,2.704956,5.833670139312744
1619090971.05147,3.632904,5.849300146102905
1619090971.06709,6.225998,5.864920139312744
1619090971.08272,10.40119,5.880550146102905
1619090971.09835,15.83426,5.896180152893066
1619090971.11397,21.74992,5.911800146102905
1619090971.1296,26.91904,5.927430152893066
1619090971.14522,30.014,5.943050146102905
1619090971.16085,30.07065,5.958680152893066
1619090971.17647,26.82529,5.974300146102905
1619090971.1921,20.79048,5.989930152893066
1619090971.20773,12.97306,6.0055601596832275
1619090971.22335,4.429787,6.021180152893066
1619090971.23898,-4.03981,6.0368101596832275
1619090971.2546,-12.08937,6.052430152893066
1619090971.27023,-19.65588,6.0680601596832275
1619090971.28585,-26.86469,6.083680152893066
1619090971.30148,-33.95043,6.0993101596832275
1619090971.31711,-41.2009,6.114940166473389
1619090971.33273,-48.9158,6.1305601596832275
1619090971.34836,-57.27545,6.146190166473389
1619090971.36398,-66.14182,6.1618101596832275
1619090971.37961,-74.9651,6.177440166473389
1619090971.39523,-82.93013,6.1930601596832275
1619090971.41086,-89.2263,6.208690166473389
1619090971.42649,-93.3785,6.22432017326355
1619090971.44211,-95.49261,6.239940166473389
1619090971.45774,-96.21853,6.25557017326355
1619090971.47336,-96.39741,6.271190166473389
1619090971.48899,-96.64233,6.28682017326355
1619090971.50462,-96.85555,6.302450180053711
1619090971.52024,-96.12262,6.31807017326355
1619090971.53587,-92.99992,6.333700180053711
1619090971.55149,-86.12987,6.34932017326355
1619090971.56712,-74.84477,6.364950180053711
1619090971.58274,-59.55928,6.38057017326355
1619090971.59837,-41.72593,6.396200180053711
1619090971.614,-23.31681,6.411830186843872
1619090971.62962,-6.265114,6.427450180053711
1619090971.64525,8.100296,6.443080186843872
1619090971.66087,19.33136,6.458700180053711
1619090971.6765,27.78485,6.474330186843872
1619090971.69212,34.38881,6.489950180053711
1619090971.70775,40.26868,6.505580186843872
1619090971.72338,46.32881,6.521210193634033
1619090971.739,53.10447,6.536830186843872
1619090971.75463,60.65508,6.552460193634033
1619090971.77025,68.58595,6.568080186843872
1619090971.78588,76.29362,6.583710193634033
1619090971.8015,83.19946,6.599330186843872
1619090971.81713,88.93894,6.614960193634033
1619090971.83276,93.46412,6.630590200424194
1619090971.84838,96.95021,6.646210193634033
1619090971.86401,99.6724,6.661840200424194
1619090971.87963,101.9105,6.677460193634033
1619090971.89526,103.8882,6.693090200424194
1619090971.91088,105.7348,6.708710193634033
1619090971.92651,107.5473,6.724340200424194
1619090971.94214,109.3684,6.7399702072143555
1619090971.95776,111.0938,6.755590200424194
1619090971.97339,112.4657,6.7712202072143555
1619090971.98901,112.9669,6.786840200424194
1619090972.00464,111.8598,6.8024702072143555
1619090972.02026,108.4173,6.818090200424194
1619090972.03589,102.2454,6.8337202072143555
1619090972.05152,93.55765,6.849350214004517
1619090972.06714,83.27147,6.8649702072143555
1619090972.08277,72.81883,6.880600214004517
1619090972.09839,63.58441,6.8962202072143555
1619090972.11402,56.48383,6.911850214004517
1619090972.12964,51.55798,6.9274702072143555
1619090972.14527,47.98434,6.943100214004517
1619090972.1609,44.51402,6.958730220794678
1619090972.17652,39.97966,6.974350214004517
1619090972.19215,33.74846,6.989980220794678
1619090972.20777,25.92789,7.005600214004517
1619090972.2234,17.21123,7.021230220794678
1619090972.23902,8.45993,7.036850214004517
1619090972.25465,0.3627014,7.052480220794678
1619090972.27028,-6.863358,7.06810998916626
1619090972.2859,-13.50049,7.083730220794678
1619090972.30153,-20.14964,7.09935998916626
1619090972.31715,-27.42314,7.114980220794678
1619090972.33278,-35.65378,7.13060998916626
1619090972.3484,-44.79935,7.146230220794678
1619090972.36403,-54.52383,7.16185998916626
1619090972.37966,-64.4751,7.177489995956421
1619090972.39528,-74.45474,7.19310998916626
1619090972.41091,-84.56105,7.208739995956421
1619090972.42653,-95.15227,7.22435998916626
1619090972.44216,-106.6786,7.239989995956421
1619090972.45778,-119.5729,7.25560998916626
1619090972.47341,-134.1544,7.271239995956421
1619090972.48904,-150.3366,7.286870002746582
1619090972.50466,-167.4177,7.302489995956421
1619090972.52029,-183.8327,7.318120002746582
1619090972.53591,-197.1558,7.333739995956421
1619090972.55154,-204.5393,7.349370002746582
1619090972.56716,-203.4903,7.364989995956421
1619090972.58279,-192.7678,7.380620002746582
1619090972.59842,-172.9467,7.396250009536743
1619090972.61404,-146.3643,7.411870002746582
1619090972.62967,-116.4072,7.427500009536743
1619090972.64529,-86.45126,7.443120002746582
1619090972.66092,-58.93155,7.458750009536743
1619090972.67654,-34.92883,7.474370002746582
1619090972.69217,-14.3306,7.490000009536743
1619090972.7078,3.627319,7.505630016326904
1619090972.72342,19.74243,7.521250009536743
1619090972.73905,34.46094,7.536880016326904
1619090972.75467,47.76205,7.552500009536743
1619090972.7703,59.29895,7.568130016326904
1619090972.78592,68.57455,7.583750009536743
1619090972.80155,75.13986,7.599380016326904
1619090972.81718,78.70251,7.615010023117065
1619090972.8328,79.23383,7.630630016326904
1619090972.84843,76.98682,7.646260023117065
1619090972.86405,72.58569,7.661880016326904
1619090972.87968,66.97638,7.677510023117065
1619090972.8953,61.31165,7.693130016326904
1619090972.91093,56.72955,7.708760023117065
1619090972.92656,53.99921,7.724390029907227
1619090972.94218,53.3284,7.740010023117065
1619090972.95781,54.33603,7.755640029907227
1619090972.97343,56.26193,7.771260023117065
1619090972.98906,58.30716,7.786890029907227
1619090973.00468,59.88666,7.802510023117065
1619090973.02031,60.77698,7.818140029907227
1619090973.03594,60.99313,7.833770036697388
1619090973.05156,60.7413,7.849390029907227
1619090973.06719,60.27826,7.865020036697388
1619090973.08281,59.94482,7.880640029907227
1619090973.09844,60.07135,7.896270036697388
1619090973.11406,60.89362,7.911890029907227
1619090973.12969,62.37994,7.927520036697388
1619090973.14532,64.12186,7.943150043487549
1619090973.16094,65.44138,7.958770036697388
1619090973.17657,65.57446,7.974400043487549
1619090973.19219,64.05023,7.990020036697388
1619090973.20782,60.82361,8.005650043487549
1619090973.22344,56.23697,8.021270036697388
1619090973.23907,50.80551,8.036900043487549
1619090973.2547,44.97354,8.05253005027771
1619090973.27032,39.06131,8.068150043487549
1619090973.28595,33.26907,8.08378005027771
1619090973.30157,27.78412,8.099400043487549
1619090973.3172,22.75989,8.11503005027771
1619090973.33282,18.21997,8.130650043487549
1619090973.34845,13.94223,8.14628005027771
1619090973.36408,9.479828,8.161910057067871
1619090973.3797,4.399078,8.17753005027771
1619090973.39533,-1.495728,8.193160057067871
1619090973.41095,-8.007843,8.20878005027771
1619090973.42658,-14.62732,8.224410057067871
1619090973.4422,-20.83167,8.24003005027771
1619090973.45783,-26.37317,8.255660057067871
1619090973.47346,-31.39871,8.271290063858032
1619090973.48908,-36.38937,8.286910057067871
1619090973.50471,-41.84726,8.302540063858032
1619090973.52033,-48.01486,8.318160057067871
1619090973.53596,-54.78131,8.333790063858032
1619090973.55158,-61.77057,8.349410057067871
1619090973.56721,-68.60101,8.365040063858032
1619090973.58284,-75.08005,8.380670070648193
1619090973.59846,-81.30295,8.396290063858032
1619090973.61409,-87.57266,8.411920070648193
1619090973.62971,-94.32581,8.427540063858032
1619090973.64534,-101.9853,8.443170070648193
1619090973.66096,-110.8609,8.458790063858032
1619090973.67659,-121.0501,8.474420070648193
1619090973.69222,-132.2225,8.490050077438354
1619090973.70784,-143.4381,8.505670070648193
1619090973.72347,-153.0929,8.521300077438354
1619090973.73909,-159.0991,8.536920070648193
1619090973.75472,-159.4393,8.552550077438354
1619090973.77034,-152.8217,8.568170070648193
1619090973.78597,-139.2248,8.583800077438354
1619090973.8016,-120.042,8.599430084228516
1619090973.81722,-97.76093,8.615050077438354
1619090973.83285,-75.22342,8.630680084228516
1619090973.84847,-54.75073,8.646300077438354
1619090973.8641,-37.6557,8.661930084228516
1619090973.87972,-24.08621,8.677550077438354
1619090973.89535,-13.31549,8.693180084228516
1619090973.91098,-4.28241,8.708810091018677
1619090973.9266,4.024872,8.724430084228516
1619090973.94223,12.19214,8.740060091018677
1619090973.95785,20.3223,8.755680084228516
1619090973.97348,28.14377,8.771310091018677
1619090973.9891,35.18423,8.786930084228516
1619090974.00473,40.97821,8.802560091018677
1619090974.02036,45.24554,8.818190097808838
1619090974.03598,48.0079,8.833810091018677
1619090974.05161,49.52838,8.849440097808838
1619090974.06723,50.23029,8.865060091018677
1619090974.08286,50.48779,8.880690097808838
1619090974.09849,50.53995,8.896320104598999
1619090974.11411,50.42902,8.911940097808838
1619090974.12974,50.11511,8.927570104598999
1619090974.14536,49.5495,8.943190097808838
1619090974.16099,48.77994,8.958820104598999
1619090974.17661,47.85605,8.974440097808838
1619090974.19224,46.7467,8.990070104598999
1619090974.20787,45.2915,9.00570011138916
1619090974.22349,43.23328,9.021320104598999
1619090974.23912,40.40128,9.03695011138916
1619090974.25474,36.85754,9.052570104598999
1619090974.27037,32.93906,9.06820011138916
1619090974.28599,29.08014,9.083820104598999
1619090974.30162,25.55197,9.09945011138916
1619090974.31725,22.36346,9.115080118179321
1619090974.33287,19.30426,9.13070011138916
1619090974.3485,16.25021,9.146330118179321
1619090974.36412,13.38672,9.16195011138916
1619090974.37975,11.293,9.177580118179321
1619090974.39537,10.70761,9.19320011138916
1619090974.411,12.09375,9.208830118179321
1619090974.42663,15.30643,9.224460124969482
1619090974.44225,19.51575,9.240080118179321
1619090974.45788,23.46927,9.255710124969482
1619090974.4735,25.98697,9.271330118179321
1619090974.48913,26.43115,9.286960124969482
1619090974.50475,24.98865,9.302580118179321
1619090974.52038,22.55344,9.318210124969482
1619090974.53601,20.30252,9.333840131759644
1619090974.55163,19.24902,9.349460124969482
1619090974.56726,19.74496,9.365090131759644
1619090974.58288,21.39935,9.380710124969482
1619090974.59851,23.24908,9.396340131759644
1619090974.61413,24.16812,9.411960124969482
1619090974.62976,23.28802,9.427590131759644
1619090974.64539,20.31995,9.443220138549805
1619090974.66101,15.57272,9.458840131759644
1619090974.67664,9.684784,9.474470138549805
1619090974.69226,3.322845,9.490090131759644
1619090974.70789,-3.08371,9.505720138549805
1619090974.72351,-9.377289,9.521340131759644
1619090974.73914,-15.58224,9.536970138549805
1619090974.75477,-21.78229,9.552600145339966
1619090974.77039,-28.0885,9.568220138549805
1619090974.78602,-34.7923,9.583850145339966
1619090974.80164,-42.45667,9.599470138549805
1619090974.81727,-51.83929,9.615100145339966
1619090974.83289,-63.45758,9.630720138549805
1619090974.84852,-77.02005,9.646350145339966
1619090974.86415,-91.12317,9.661980152130127
1619090974.87977,-103.3719,9.677600145339966
1619090974.8954,-111.1703,9.693230152130127
1619090974.91102,-112.6818,9.708850145339966
1619090974.92665,-107.6096,9.724480152130127
1619090974.94227,-97.26968,9.740100145339966
1619090974.9579,-84.08994,9.755730152130127
1619090974.97353,-70.58856,9.771360158920288
1619090974.98915,-58.60104,9.786980152130127
1619090975.00478,-48.90024,9.802610158920288
1619090975.0204,-41.3237,9.818230152130127
1619090975.03603,-35.21072,9.833860158920288
1619090975.05165,-29.78909,9.849480152130127
1619090975.06728,-24.45334,9.865110158920288
1619090975.08291,-18.75739,9.88074016571045
1619090975.09853,-12.45409,9.896360158920288
1619090975.11416,-5.450256,9.91199016571045
1619090975.12978,2.113632,9.927610158920288
1619090975.14541,9.860962,9.94324016571045
1619090975.16103,17.34581,9.958860158920288
1619090975.17666,24.14998,9.97449016571045
1619090975.19229,30.07394,9.99012017250061
1619090975.20791,35.13751,10.00574016571045
1619090975.22354,39.56297,10.02137017250061
1619090975.23916,43.60928,10.03699016571045
1619090975.25479,47.42625,10.05262017250061
1619090975.27041,50.94684,10.06824016571045
1619090975.28604,53.87851,10.08387017250061
1619090975.30167,55.74426,10.099500179290771
1619090975.31729,56.0363,10.11512017250061
1619090975.33292,54.43579,10.130750179290771
1619090975.34854,50.91313,10.14637017250061
1619090975.36417,45.85909,10.162000179290771
1619090975.37979,40.01587,10.17762017250061
1619090975.39542,34.2562,10.193250179290771
1619090975.41105,29.35442,10.208880186080933
1619090975.42667,25.73703,10.224500179290771
1619090975.4423,23.39206,10.240130186080933
1619090975.45792,21.92476,10.255750179290771
1619090975.47355,20.76924,10.271380186080933
1619090975.48917,19.37367,10.287000179290771
1619090975.5048,17.43216,10.302630186080933
1619090975.52043,14.90404,10.318260192871094
1619090975.53605,11.97531,10.333880186080933
1619090975.55168,8.949738,10.349510192871094
1619090975.5673,6.097183,10.365130186080933
1619090975.58293,3.51442,10.380760192871094
1619090975.59855,1.031937,10.396380186080933
1619090975.61418,-1.752502,10.412010192871094
1619090975.62981,-5.404129,10.427640199661255
1619090975.64543,-10.39325,10.443260192871094
1619090975.66106,-16.90118,10.458890199661255
1619090975.67668,-24.61767,10.474510192871094
1619090975.69231,-32.82586,10.490140199661255
1619090975.70793,-40.5732,10.505760192871094
1619090975.72356,-47.11467,10.521390199661255
1619090975.73919,-52.25502,10.537020206451416
1619090975.75481,-56.5289,10.552640199661255
1619090975.77044,-61.12704,10.568270206451416
1619090975.78606,-67.4212,10.583890199661255
1619090975.80169,-76.28908,10.599520206451416
1619090975.81731,-87.50098,10.615140199661255
1619090975.83294,-99.37918,10.630770206451416
1619090975.84857,-109.0675,10.646400213241577
1619090975.86419,-113.4106,10.662020206451416
1619090975.87982,-110.0407,10.677650213241577
1619090975.89544,-98.28654,10.693270206451416
1619090975.91107,-79.59972,10.708900213241577
1619090975.92669,-57.13895,10.724520206451416
1619090975.94232,-34.83522,10.740150213241577
1619090975.95795,-16.19812,10.755780220031738
1619090975.97357,-3.294487,10.771400213241577
1619090975.9892,3.812643,10.787030220031738
1619090976.00482,7.007452,10.802650213241577
1619090976.02045,9.672878,10.818280220031738
1619090976.03607,15.61279,10.833900213241577
1619090976.0517,27.98945,10.849530220031738
1619090976.06733,48.27815,10.86515998840332
1619090976.08295,75.65818,10.880780220031738
1619090976.09858,107.1959,10.89640998840332
1619090976.1142,138.6472,10.912030220031738
1619090976.12983,165.7672,10.92765998840332
1619090976.14545,185.4238,10.943280220031738
1619090976.16108,196.2664,10.95890998840332
1619090976.17671,198.6137,10.974539995193481
1619090976.19233,193.8396,10.99015998840332
1619090976.20796,183.6689,11.005789995193481
1619090976.22358,169.7008,11.02140998840332
1619090976.23921,153.3418,11.037039995193481
1619090976.25483,135.9412,11.05265998840332
1619090976.27046,118.8848,11.068289995193481
1619090976.28609,103.3875,11.083920001983643
1619090976.30171,90.18787,11.099539995193481
1619090976.31734,79.28236,11.115170001983643
1619090976.33296,69.93865,11.130789995193481
1619090976.34859,61.09239,11.146420001983643
1619090976.36422,51.92379,11.162050008773804
1619090976.37984,42.24023,11.177670001983643
1619090976.39547,32.5292,11.193300008773804
1619090976.41109,23.57442,11.208920001983643
1619090976.42672,15.98021,11.224550008773804
1619090976.44234,9.763115,11.240170001983643
1619090976.45797,4.310426,11.255800008773804
1619090976.4736,-1.326601,11.271430015563965
1619090976.48922,-7.977366,11.287050008773804
1619090976.50485,-15.95093,11.302680015563965
1619090976.52047,-24.91731,11.318300008773804
1619090976.5361,-34.12537,11.333930015563965
1619090976.55172,-42.78739,11.349550008773804
1619090976.56735,-50.38296,11.365180015563965
1619090976.58298,-56.91041,11.380810022354126
1619090976.5986,-62.76308,11.396430015563965
1619090976.61423,-68.567,11.412060022354126
1619090976.62985,-74.81264,11.427680015563965
1619090976.64548,-81.72061,11.443310022354126
1619090976.6611,-89.16783,11.458930015563965
1619090976.67673,-96.8291,11.474560022354126
1619090976.69236,-104.3125,11.490190029144287
1619090976.70798,-111.325,11.505810022354126
1619090976.72361,-117.8577,11.521440029144287
1619090976.73923,-124.1572,11.537060022354126
1619090976.75486,-130.7752,11.552690029144287
1619090976.77048,-138.4157,11.568310022354126
1619090976.78611,-147.6305,11.583940029144287
1619090976.80174,-158.479,11.599570035934448
1619090976.81736,-170.114,11.615190029144287
1619090976.83299,-180.7503,11.630820035934448
1619090976.84861,-187.925,11.646440029144287
1619090976.86424,-189.2303,11.662070035934448
1619090976.87986,-183.1037,11.677690029144287
1619090976.89549,-169.3841,11.693320035934448
1619090976.91112,-149.4377,11.70895004272461
1619090976.92674,-125.6465,11.724570035934448
1619090976.94237,-100.7018,11.74020004272461
1619090976.95799,-76.7923,11.755820035934448
1619090976.97362,-55.18812,11.77145004272461
1619090976.98924,-36.1766,11.787070035934448
1619090977.00487,-19.39127,11.80270004272461
1619090977.0205,-4.235657,11.81833004951477
1619090977.03612,9.711845,11.83395004272461
1619090977.05175,22.41322,11.84958004951477
1619090977.06737,33.52444,11.86520004272461
1619090977.083,42.60307,11.88083004951477
1619090977.09862,49.49524,11.89645004272461
1619090977.11425,54.61884,11.91208004951477
1619090977.12988,58.90054,11.927710056304932
1619090977.1455,63.44131,11.94333004951477
1619090977.16113,68.95732,11.958960056304932
1619090977.17675,75.39857,11.97458004951477
1619090977.19238,81.94325,11.990210056304932
1619090977.208,87.46588,12.00583004951477
1619090977.22363,91.08533,12.021460056304932
1619090977.23926,92.65501,12.037090063095093
1619090977.25488,92.7403,12.052710056304932
1619090977.27051,92.20958,12.068340063095093
1619090977.28613,91.71613,12.083960056304932
1619090977.30176,91.37823,12.099590063095093
1619090977.31738,90.7838,12.115210056304932
1619090977.33301,89.27771,12.130840063095093
1619090977.34864,86.39932,12.146470069885254
1619090977.36426,82.00981,12.162090063095093
1619090977.37989,76.40137,12.177720069885254
1619090977.39551,70.10194,12.193340063095093
1619090977.41114,63.75082,12.208970069885254
1619090977.42676,57.99673,12.224590063095093
1619090977.44239,53.36279,12.240220069885254
1619090977.45802,50.24548,12.255850076675415
1619090977.47364,48.71585,12.271470069885254
1619090977.48927,48.53653,12.287100076675415
1619090977.50489,49.10913,12.302720069885254
1619090977.52052,49.66315,12.318350076675415
1619090977.53614,49.47552,12.333970069885254
1619090977.55177,48.0994,12.349600076675415
1619090977.5674,45.45721,12.365230083465576
1619090977.58302,41.82098,12.380850076675415
1619090977.59865,37.57059,12.396480083465576
1619090977.61427,32.93384,12.412100076675415
1619090977.6299,27.83603,12.427730083465576
1619090977.64552,21.96426,12.443350076675415
1619090977.66115,15.02585,12.458980083465576
1619090977.67678,7.014862,12.474610090255737
1619090977.6924,-1.622192,12.490230083465576
1619090977.70803,-10.1055,12.505860090255737
1619090977.72365,-17.66675,12.521480083465576
1619090977.73928,-23.87057,12.537110090255737
1619090977.7549,-28.88071,12.552730083465576
1619090977.77053,-33.38211,12.568360090255737
1619090977.78616,-38.33182,12.583990097045898
1619090977.80178,-44.63513,12.599610090255737
1619090977.81741,-52.92371,12.615240097045898
1619090977.83303,-63.42349,12.630860090255737
1619090977.84866,-75.89737,12.646490097045898
1619090977.86428,-89.47427,12.662110090255737
1619090977.87991,-102.5752,12.677740097045898
1619090977.89554,-112.9893,12.69337010383606
1619090977.91116,-118.2797,12.708990097045898
1619090977.92679,-116.5336,12.72462010383606
1619090977.94241,-107.0664,12.740240097045898
1619090977.95804,-90.89212,12.75587010383606
1619090977.97366,-70.46118,12.771490097045898
1619090977.98929,-48.90067,12.78712010383606
1619090978.00492,-28.98331,12.80275011062622
1619090978.02054,-12.39792,12.81837010383606
1619090978.03617,0.4780884,12.83400011062622
1619090978.05179,10.25931,12.84962010383606
1619090978.06742,17.85117,12.86525011062622
1619090978.08304,23.95233,12.88087010383606
1619090978.09867,28.84982,12.89650011062622
1619090978.1143,32.62976,12.912130117416382
1619090978.12992,35.54807,12.92775011062622
1619090978.14555,38.20264,12.943380117416382
1619090978.16117,41.40601,12.95900011062622
1619090978.1768,45.83972,12.974630117416382
1619090978.19242,51.66406,12.99025011062622
1619090978.20805,58.36566,13.005880117416382
1619090978.22368,64.9996,13.021510124206543
1619090978.2393,70.61325,13.037130117416382
1619090978.25493,74.71381,13.052760124206543
1619090978.27055,77.39081,13.068380117416382
1619090978.28618,79.10083,13.084010124206543
1619090978.3018,80.29962,13.099630117416382
1619090978.31743,81.15118,13.115260124206543
1619090978.33306,81.47116,13.130890130996704
1619090978.34868,80.85495,13.146510124206543
1619090978.36431,78.98035,13.162140130996704
1619090978.37993,75.73663,13.177760124206543
1619090978.39556,71.27084,13.193390130996704
1619090978.41118,65.80621,13.209010124206543
1619090978.42681,59.53806,13.224640130996704
1619090978.44244,52.6481,13.240270137786865
1619090978.45806,45.36035,13.255890130996704
1619090978.47369,37.98727,13.271520137786865
1619090978.48931,30.89233,13.287140130996704
1619090978.50494,24.41962,13.302770137786865
1619090978.52057,18.82642,13.318400144577026
1619090978.53619,14.27966,13.334020137786865
1619090978.55182,10.82736,13.349650144577026
1619090978.56744,8.484802,13.365270137786865
1619090978.58307,7.174805,13.380900144577026
1619090978.59869,6.659149,13.396520137786865
1619090978.61432,6.510376,13.412150144577026
1619090978.62995,6.187347,13.427780151367188
1619090978.64557,5.191345,13.443400144577026
1619090978.6612,3.294556,13.459030151367188
1619090978.67682,0.5860291,13.474650144577026
1619090978.69245,-2.531677,13.490280151367188
1619090978.70807,-5.614716,13.505900144577026
1619090978.7237,-8.329956,13.521530151367188
1619090978.73933,-10.66336,13.537160158157349
1619090978.75495,-12.87524,13.552780151367188
1619090978.77058,-15.33798,13.568410158157349
1619090978.7862,-18.30655,13.584030151367188
1619090978.80183,-21.8089,13.599660158157349
1619090978.81745,-25.67993,13.615280151367188
1619090978.83308,-29.64151,13.630910158157349
1619090978.84871,-33.48853,13.64654016494751
1619090978.86433,-37.19034,13.662160158157349
1619090978.87996,-40.93979,13.67779016494751
1619090978.89558,-45.02991,13.693410158157349
1619090978.91121,-49.81757,13.70904016494751
1619090978.92683,-55.66699,13.724660158157349
1619090978.94246,-62.80823,13.74029016494751
1619090978.95809,-71.18277,13.755920171737671
1619090978.97371,-80.16141,13.77154016494751
1619090978.98934,-88.34155,13.787170171737671
1619090979.00496,-93.59674,13.80279016494751
1619090979.02059,-93.49838,13.818420171737671
1619090979.03621,-86.05542,13.83404016494751
1619090979.05184,-70.55325,13.849670171737671
1619090979.06747,-47.97122,13.865300178527832
1619090979.08309,-20.83633,13.880920171737671
1619090979.09872,7.581604,13.896550178527832
1619090979.11434,34.33868,13.912170171737671
1619090979.12997,57.65851,13.927800178527832
1619090979.14559,77.02927,13.943420171737671
1619090979.16122,92.93091,13.959050178527832
1619090979.17685,106.1953,13.974680185317993
1619090979.19247,117.6849,13.990300178527832
1619090979.2081,128.1854,14.005930185317993
1619090979.22372,138.5218,14.021550178527832
1619090979.23935,149.4061,14.037180185317993
1619090979.25497,160.9892,14.052800178527832
1619090979.2706,172.3817,14.068430185317993
1619090979.28623,181.4522,14.084060192108154
1619090979.30185,185.3884,14.099680185317993
1619090979.31748,181.6714,14.115310192108154
1619090979.3331,169.1959,14.130930185317993
1619090979.34873,148.8304,14.146560192108154
1619090979.36435,123.2707,14.162180185317993
1619090979.37998,96.14288,14.177810192108154
1619090979.39561,70.98297,14.193440198898315
1619090979.41123,50.34943,14.209060192108154
1619090979.42686,35.44714,14.224690198898315
1619090979.44248,26.24094,14.240310192108154
1619090979.45811,21.83969,14.255940198898315
1619090979.47373,21.0,14.271560192108154
1619090979.48936,22.4577,14.287190198898315
1619090979.50499,25.10214,14.302820205688477
1619090979.52061,27.96231,14.318440198898315
1619090979.53624,30.13007,14.334070205688477
1619090979.55186,30.67352,14.349690198898315
1619090979.56749,28.82373,14.365320205688477
1619090979.58311,24.15872,14.380940198898315
1619090979.59874,16.84445,14.396570205688477
1619090979.61437,7.602356,14.412200212478638
1619090979.62999,-2.508881,14.427820205688477
1619090979.64562,-12.4505,14.443450212478638
1619090979.66124,-21.51691,14.459070205688477
1619090979.67687,-29.46234,14.474700212478638
1619090979.69249,-36.45639,14.490320205688477
1619090979.70812,-42.89096,14.505950212478638
1619090979.72375,-49.25775,14.521580219268799
1619090979.73937,-55.96136,14.537200212478638
1619090979.755,-63.24466,14.552830219268799
1619090979.77062,-71.04987,14.568450212478638
1619090979.78625,-79.0108,14.584080219268799
1619090979.80187,-86.50702,14.599700212478638
1619090979.8175,-92.94482,14.615330219268799
1619090979.83313,-97.99957,14.63095998764038
1619090979.84875,-101.825,14.646580219268799
1619090979.86438,-105.0528,14.66220998764038
1619090979.88,-108.6487,14.677830219268799
1619090979.89563,-113.5897,14.69345998764038
1619090979.91125,-120.5423,14.709080219268799
1619090979.92688,-129.5264,14.72470998764038
1619090979.94251,-139.6785,14.740339994430542
1619090979.95813,-149.3051,14.75595998764038
1619090979.97376,-156.1253,14.771589994430542
1619090979.98938,-157.813,14.78720998764038
1619090980.00501,-152.7589,14.802839994430542
1619090980.02063,-140.5924,14.81845998764038
1619090980.03626,-122.3622,14.834089994430542
1619090980.05189,-100.2755,14.849720001220703
1619090980.06751,-76.9912,14.865339994430542
1619090980.08314,-54.86086,14.880970001220703
1619090980.09876,-35.39171,14.896589994430542
1619090980.11439,-19.05173,14.912220001220703
1619090980.13001,-5.522064,14.927839994430542
1619090980.14564,6.019867,14.943470001220703
1619090980.16127,16.53349,14.959100008010864
1619090980.17689,26.84351,14.974720001220703
1619090980.19252,37.46213,14.990350008010864
1619090980.20814,48.48297,15.005970001220703
1619090980.22377,59.58139,15.021600008010864
1619090980.23939,70.12512,15.037220001220703
1619090980.25502,79.43655,15.052850008010864
1619090980.27065,87.06618,15.068480014801025
1619090980.28627,92.97406,15.084100008010864
1619090980.3019,97.50093,15.099730014801025
1619090980.31752,101.1138,15.115350008010864
1619090980.33315,104.1853,15.130980014801025
1619090980.34877,106.7864,15.146600008010864
1619090980.3644,108.8048,15.162230014801025
1619090980.38003,110.0694,15.177860021591187
1619090980.39565,110.4661,15.193480014801025
1619090980.41128,109.9949,15.209110021591187
1619090980.4269,108.6844,15.224730014801025
1619090980.44253,106.6256,15.240360021591187
1619090980.45815,103.9402,15.255980014801025
1619090980.47378,100.8122,15.271610021591187
1619090980.48941,97.44228,15.287240028381348
1619090980.50503,93.94003,15.302860021591187
1619090980.52066,90.21825,15.318490028381348
1619090980.53628,86.06012,15.334110021591187
1619090980.55191,81.24062,15.349740028381348
1619090980.56753,75.76526,15.365360021591187
1619090980.58316,69.96649,15.380990028381348
1619090980.59879,64.29334,15.396620035171509
1619090980.61441,59.02679,15.412240028381348
1619090980.63004,53.95809,15.427870035171509
1619090980.64566,48.34804,15.443490028381348
1619090980.66129,41.22648,15.459120035171509
1619090980.67691,31.77708,15.474740028381348
1619090980.69254,19.75438,15.490370035171509
1619090980.70817,5.554092,15.50600004196167
1619090980.72379,-9.950676,15.521620035171509
1619090980.73942,-25.69108,15.53725004196167
1619090980.75504,-40.72505,15.552870035171509
1619090980.77067,-54.3675,15.56850004196167
1619090980.78629,-66.23862,15.584120035171509
1619090980.80192,-76.32867,15.59975004196167
1619090980.81755,-85.02787,15.615380048751831
1619090980.83317,-93.09519,15.63100004196167
1619090980.8488,-101.6046,15.646630048751831
1619090980.86442,-111.6091,15.66225004196167
1619090980.88005,-123.6677,15.677880048751831
1619090980.89567,-137.3635,15.69350004196167
1619090980.9113,-151.0054,15.709130048751831
1619090980.92693,-161.9267,15.724760055541992
1619090980.94255,-167.2289,15.740380048751831
1619090980.95818,-164.8246,15.756010055541992
1619090980.9738,-154.2137,15.771630048751831
1619090980.98943,-136.7942,15.787260055541992
1619090981.00505,-115.3192,15.802880048751831
1619090981.02068,-92.81425,15.818510055541992
1619090981.03631,-71.50114,15.834140062332153
1619090981.05193,-52.1164,15.849760055541992
1619090981.06756,-34.12037,15.865390062332153
1619090981.08318,-16.40996,15.881010055541992
1619090981.09881,1.798672,15.896640062332153
1619090981.11443,20.35566,15.912260055541992
1619090981.13006,38.23684,15.927890062332153
1619090981.14569,54.00957,15.943520069122314
1619090981.16131,66.6132,15.959140062332153
1619090981.17694,75.59241,15.974770069122314
1619090981.19256,81.20148,15.990390062332153
1619090981.20819,83.98517,16.006020069122314
1619090981.22382,84.37724,16.021650075912476
1619090981.23944,82.57736,16.037270069122314
1619090981.25507,78.71777,16.052900075912476
1619090981.27069,73.23776,16.068520069122314
1619090981.28632,67.11877,16.084150075912476
1619090981.30194,61.82977,16.099770069122314
1619090981.31757,58.79745,16.115400075912476
1619090981.3332,58.8205,16.131030082702637
1619090981.34882,61.64958,16.146650075912476
1619090981.36445,66.07201,16.162280082702637
1619090981.38007,70.41945,16.177900075912476
1619090981.3957,73.28939,16.193530082702637
1619090981.41132,74.09735,16.209150075912476
1619090981.42695,73.11397,16.224780082702637
1619090981.44258,71.08125,16.240410089492798
1619090981.4582,68.62305,16.256030082702637
1619090981.47383,65.92566,16.271660089492798
1619090981.48945,62.71117,16.287280082702637
1619090981.50508,58.58397,16.302910089492798
1619090981.5207,53.35866,16.318530082702637
1619090981.53633,47.10873,16.334160089492798
1619090981.55196,40.0901,16.34979009628296
1619090981.56758,32.38278,16.365410089492798
1619090981.58321,23.78474,16.38104009628296
1619090981.59883,13.97322,16.396660089492798
1619090981.61446,2.837692,16.41229009628296
1619090981.63008,-9.201797,16.427910089492798
1619090981.64571,-21.13062,16.44354009628296
1619090981.66134,-31.63638,16.45917010307312
1619090981.67696,-39.65038,16.47479009628296
1619090981.69259,-44.77251,16.49042010307312
1619090981.70821,-47.42142,16.50604009628296
1619090981.72384,-48.60887,16.52167010307312
1619090981.73946,-49.50711,16.53729009628296
1619090981.75509,-51.00381,16.55292010307312
1619090981.77072,-53.38544,16.56855010986328
1619090981.78634,-56.41846,16.58417010307312
1619090981.80197,-59.59555,16.59980010986328
1619090981.81759,-62.51071,16.61542010307312
1619090981.83322,-65.08017,16.63105010986328
1619090981.84884,-67.69391,16.64667010307312
1619090981.86447,-70.9599,16.66230010986328
1619090981.8801,-75.58759,16.677930116653442
1619090981.89572,-82.11945,16.69355010986328
1619090981.91135,-90.75186,16.709180116653442
1619090981.92697,-101.1309,16.72480010986328
1619090981.9426,-112.1812,16.740430116653442
1619090981.95822,-122.0675,16.75605010986328
1619090981.97385,-128.4531,16.771680116653442
1619090981.98948,-129.1045,16.787310123443604
1619090982.0051,-122.6176,16.802930116653442
1619090982.02073,-109.0068,16.818560123443604
1619090982.03635,-89.85834,16.834180116653442
1619090982.05198,-67.88367,16.849810123443604
1619090982.0676,-46.05331,16.865430116653442
1619090982.08323,-26.67117,16.881060123443604
1619090982.09886,-10.81204,16.896690130233765
1619090982.11448,1.697449,16.912310123443604
1619090982.13011,11.77509,16.927940130233765
1619090982.14573,20.50452,16.943560123443604
1619090982.16136,28.59814,16.959190130233765
1619090982.17698,36.20303,16.974810123443604
1619090982.19261,43.00677,16.990440130233765
1619090982.20824,48.46613,17.006070137023926
1619090982.22386,52.13596,17.021690130233765
1619090982.23949,53.88904,17.037320137023926
1619090982.25511,53.95535,17.052940130233765
1619090982.27074,52.86575,17.068570137023926
1619090982.28636,51.26395,17.084190130233765
1619090982.30199,49.70337,17.099820137023926
1619090982.31762,48.53235,17.115450143814087
1619090982.33324,47.91571,17.131070137023926
1619090982.34887,47.87848,17.146700143814087
1619090982.36449,48.41232,17.162320137023926
1619090982.38012,49.45172,17.177950143814087
1619090982.39574,50.84296,17.193570137023926
1619090982.41137,52.26855,17.209200143814087
1619090982.427,53.27524,17.224830150604248
1619090982.44262,53.36478,17.240450143814087
1619090982.45825,52.21619,17.256080150604248
1619090982.47387,49.76187,17.271700143814087
1619090982.4895,46.23694,17.287330150604248
1619090982.50512,42.03189,17.302950143814087
1619090982.52075,37.57938,17.318580150604248
1619090982.53638,33.284,17.33421015739441
1619090982.552,29.43436,17.349830150604248
1619090982.56763,26.23874,17.36546015739441
1619090982.58325,23.75845,17.381080150604248
1619090982.59888,21.8869,17.39671015739441
1619090982.6145,20.34601,17.412330150604248
1619090982.63013,18.69186,17.42796015739441
1619090982.64576,16.48163,17.44359016418457
1619090982.66138,13.45218,17.45921015739441
1619090982.67701,9.646332,17.47484016418457
1619090982.69263,5.372498,17.49046015739441
1619090982.70826,1.075714,17.50609016418457
1619090982.72388,-2.900421,17.52171015739441
1619090982.73951,-6.501648,17.53734016418457
1619090982.75514,-9.994171,17.55297017097473
1619090982.77076,-13.82593,17.56859016418457
1619090982.78639,-18.39474,17.58422017097473
1619090982.80201,-23.85306,17.59984016418457
1619090982.81764,-29.98627,17.61547017097473
1619090982.83326,-36.33203,17.63109016418457
1619090982.84889,-42.39117,17.64672017097473
1619090982.86452,-47.82306,17.662350177764893
1619090982.88014,-52.62732,17.67797017097473
1619090982.89577,-57.11481,17.693600177764893
1619090982.91139,-61.83398,17.70922017097473
1619090982.92702,-67.34998,17.724850177764893
1619090982.94264,-74.18982,17.74047017097473
1619090982.95827,-82.56,17.756100177764893
1619090982.9739,-92.20392,17.771730184555054
1619090982.98952,-102.186,17.787350177764893
1619090983.00515,-110.846,17.802980184555054
1619090983.02077,-116.0882,17.818600177764893
1619090983.0364,-115.8613,17.834230184555054
1619090983.05202,-108.8943,17.849850177764893
1619090983.06765,-95.21063,17.865480184555054
1619090983.08328,-76.32361,17.881110191345215
1619090983.0989,-54.84302,17.896730184555054
1619090983.11453,-33.6427,17.912360191345215
1619090983.13015,-14.99292,17.927980184555054
1619090983.14578,0.01171875,17.943610191345215
1619090983.1614,11.4975,17.959230184555054
1619090983.17703,20.42017,17.974860191345215
1619090983.19266,27.85199,17.990490198135376
1619090983.20828,34.48114,18.006110191345215
1619090983.22391,40.40802,18.021740198135376
1619090983.23953,45.362,18.037360191345215
1619090983.25516,49.01477,18.052990198135376
1619090983.27078,51.28796,18.068610191345215
1619090983.28641,52.44092,18.084240198135376
1619090983.30204,52.89923,18.099870204925537
1619090983.31766,53.0849,18.115490198135376
1619090983.33329,53.24011,18.131120204925537
1619090983.34891,53.46362,18.146740198135376
1619090983.36454,53.81335,18.162370204925537
1619090983.38017,54.4035,18.1780002117157
1619090983.39579,55.41071,18.193620204925537
1619090983.41142,56.89343,18.2092502117157
1619090983.42704,58.73041,18.224870204925537
1619090983.44267,60.48529,18.2405002117157
1619090983.45829,61.56451,18.256120204925537
1619090983.47392,61.38013,18.2717502117157
1619090983.48955,59.56927,18.28738021850586
1619090983.50517,56.13672,18.3030002117157
1619090983.5208,51.40564,18.31863021850586
1619090983.53642,45.94965,18.3342502117157
1619090983.55205,40.38788,18.34988021850586
1619090983.56767,35.25879,18.3655002117157
1619090983.5833,30.86938,18.38113021850586
1619090983.59893,27.23328,18.39675998687744
1619090983.61455,24.04944,18.41238021850586
1619090983.63018,20.82452,18.42800998687744
1619090983.6458,17.01721,18.44363021850586
1619090983.66143,12.27454,18.45925998687744
1619090983.67705,6.586304,18.47488021850586
1619090983.69268,0.3154297,18.49050998687744
1619090983.70831,-5.990906,18.506139993667603
1619090983.72393,-11.88007,18.52175998687744
1619090983.73956,-17.2016,18.537389993667603
1619090983.75518,-22.24432,18.55300998687744
1619090983.77081,-27.52887,18.568639993667603
1619090983.78643,-33.55182,18.58425998687744
1619090983.80206,-40.5451,18.599889993667603
1619090983.81769,-48.276,18.615520000457764
1619090983.83331,-56.20081,18.631139993667603
1619090983.84894,-63.72034,18.646770000457764
1619090983.86456,-70.44305,18.662389993667603
1619090983.88019,-76.35431,18.678020000457764
1619090983.89581,-81.82727,18.693639993667603
1619090983.91144,-87.43451,18.709270000457764
1619090983.92707,-93.78912,18.724900007247925
1619090983.94269,-101.38,18.740520000457764
1619090983.95832,-110.3731,18.756150007247925
1619090983.97394,-120.4949,18.771770000457764
1619090983.98957,-130.8538,18.787400007247925
1619090984.00519,-139.8908,18.803020000457764
1619090984.02082,-145.549,18.818650007247925
1619090984.03645,-145.7521,18.834280014038086
1619090984.05207,-139.0204,18.849900007247925
1619090984.0677,-125.1472,18.865530014038086
1619090984.08332,-105.3826,18.881150007247925
1619090984.09895,-82.18054,18.896780014038086
1619090984.11457,-58.40295,18.912400007247925
1619090984.1302,-36.47675,18.928030014038086
1619090984.14583,-17.7887,18.943660020828247
1619090984.16145,-2.504883,18.959280014038086
1619090984.17708,10.02045,18.974910020828247
1619090984.1927,20.75714,18.990530014038086
1619090984.20833,30.4693,19.006160020828247
1619090984.22395,39.52252,19.021780014038086
1619090984.23958,47.90259,19.037410020828247
1619090984.25521,55.3822,19.053040027618408
1619090984.27083,61.72302,19.068660020828247
1619090984.28646,66.78223,19.084290027618408
1619090984.30208,70.51068,19.099910020828247
1619090984.31771,72.98407,19.115540027618408
1619090984.33333,74.36621,19.131160020828247
1619090984.34896,74.91217,19.146790027618408
1619090984.36459,74.91614,19.16242003440857
1619090984.38021,74.74097,19.178040027618408
1619090984.39584,74.75891,19.19367003440857
1619090984.41146,75.2793,19.209290027618408
1619090984.42709,76.51208,19.22492003440857
1619090984.44271,78.42291,19.240540027618408
1619090984.45834,80.72754,19.25617003440857
1619090984.47397,82.93219,19.27180004119873
1619090984.48959,84.46912,19.28742003440857
1619090984.50522,84.93365,19.30305004119873
1619090984.52084,84.22302,19.31867003440857
1619090984.53647,82.57684,19.33430004119873
1619090984.55209,80.49384,19.34992003440857
1619090984.56772,78.54401,19.36555004119873
1619090984.58335,77.1767,19.38118004798889
1619090984.59897,76.60254,19.39680004119873
1619090984.6146,76.80646,19.41243004798889
1619090984.63022,77.59711,19.42805004119873
1619090984.64585,78.69989,19.44368004798889
1619090984.66147,79.91211,19.45930004119873
1619090984.6771,81.07684,19.47493004798889
1619090984.69273,82.20508,19.490560054779053
1619090984.70835,83.4339,19.50618004798889
1619090984.72398,84.97754,19.521810054779053
1619090984.7396,87.03918,19.53743004798889
1619090984.75523,89.72778,19.553060054779053
1619090984.77085,93.00262,19.56868004798889
1619090984.78648,96.71631,19.584310054779053
1619090984.80211,100.714,19.599940061569214
1619090984.81773,104.8931,19.615560054779053
1619090984.83336,109.3116,19.631190061569214
1619090984.84898,114.142,19.646810054779053
1619090984.86461,119.6467,19.662440061569214
1619090984.88023,126.1376,19.678060054779053
1619090984.89586,133.9376,19.693690061569214
1619090984.91149,143.2905,19.709320068359375
1619090984.92711,154.2043,19.724940061569214
1619090984.94274,166.2921,19.740570068359375
1619090984.95836,178.6799,19.756190061569214
1619090984.97399,190.1393,19.771820068359375
1619090984.98961,199.3107,19.787440061569214
1619090985.00524,205.0851,19.803070068359375
1619090985.02087,206.8496,19.818700075149536
1619090985.03649,204.5104,19.834320068359375
1619090985.05212,198.3858,19.849950075149536
1619090985.06774,189.0299,19.865570068359375
1619090985.08337,177.1234,19.881200075149536
1619090985.09899,163.3702,19.896820068359375
1619090985.11462,148.5945,19.912450075149536
1619090985.13025,133.6156,19.928080081939697
1619090985.14587,119.1654,19.943700075149536
1619090985.1615,105.7802,19.959330081939697
1619090985.17712,93.72961,19.974950075149536
1619090985.19275,83.01758,19.990580081939697
1619090985.20837,73.45447,20.006200075149536
1619090985.224,64.69067,20.021830081939697
1619090985.23963,56.23376,20.03746008872986
1619090985.25525,47.5553,20.053080081939697
1619090985.27088,38.10559,20.06871008872986
1619090985.2865,27.53467,20.084330081939697
1619090985.30213,15.82251,20.09996008872986
1619090985.31775,3.289185,20.115580081939697
1619090985.33338,-9.501221,20.13121008872986
1619090985.34901,-21.97693,20.14684009552002
1619090985.36463,-33.80884,20.16246008872986
1619090985.38026,-45.15271,20.17809009552002
1619090985.39588,-56.54358,20.19371008872986
1619090985.41151,-68.80457,20.20934009552002
1619090985.42713,-82.54956,20.22496008872986
1619090985.44276,-97.88245,20.24059009552002
1619090985.45839,-114.1534,20.25622010231018
1619090985.47401,-130.0505,20.27184009552002
1619090985.48964,-144.0635,20.28747010231018
1619090985.50526,-155.0099,20.30309009552002
1619090985.52089,-162.5233,20.31872010231018
1619090985.53651,-167.121,20.33434009552002
1619090985.55214,-169.9716,20.34997010231018
1619090985.56777,-172.3723,20.365600109100342
1619090985.58339,-175.2809,20.38122010231018
1619090985.59902,-179.0555,20.396850109100342
1619090985.61464,-183.5143,20.41247010231018
1619090985.63027,-188.1113,20.428100109100342
1619090985.6459,-192.1166,20.443730115890503
1619090985.66152,-194.9083,20.459350109100342
1619090985.67715,-196.1012,20.474980115890503
1619090985.69277,-195.7708,20.490600109100342
1619090985.7084,-194.7576,20.506230115890503
1619090985.72402,-194.762,20.521850109100342
1619090985.73965,-198.1326,20.537480115890503
1619090985.75528,-207.0759,20.553110122680664
1619090985.7709,-222.7131,20.568730115890503
1619090985.78653,-244.2625,20.584360122680664
1619090985.80215,-268.9827,20.599980115890503
1619090985.81778,-292.9177,20.615610122680664
1619090985.8334,-312.2703,20.631230115890503
1619090985.84903,-324.8079,20.646860122680664
1619090985.86466,-330.4282,20.662490129470825
1619090985.88028,-330.8008,20.678110122680664
1619090985.89591,-328.2678,20.693740129470825
1619090985.91153,-324.6489,20.709360122680664
1619090985.92716,-320.5996,20.724990129470825
1619090985.94278,-315.7542,20.740610122680664
1619090985.95841,-309.4768,20.756240129470825
1619090985.97404,-301.4756,20.771870136260986
1619090985.98966,-292.0845,20.787490129470825
1619090986.00529,-281.968,20.803120136260986
1619090986.02091,-271.6272,20.818740129470825
1619090986.03654,-261.1677,20.834370136260986
1619090986.05216,-250.5361,20.849990129470825
1619090986.06779,-239.9412,20.865620136260986
1619090986.08342,-230.2153,20.881250143051147
1619090986.09904,-222.6392,20.896870136260986
1619090986.11467,-218.3201,20.912500143051147
1619090986.13029,-217.6113,20.928120136260986
1619090986.14592,-219.6331,20.943750143051147
1619090986.16154,-222.5903,20.959370136260986
1619090986.17717,-224.4899,20.975000143051147
1619090986.1928,-224.0118,20.99063014984131
1619090986.20842,-221.1149,21.006250143051147
1619090986.22405,-217.1337,21.02188014984131
1619090986.23967,-214.3247,21.037500143051147
1619090986.2553,-215.0289,21.05313014984131
1619090986.27092,-220.7045,21.068750143051147
1619090986.28655,-231.165,21.08438014984131
1619090986.30218,-244.3037,21.10001015663147
1619090986.3178,-256.5168,21.11563014984131
1619090986.33343,-263.6445,21.13126015663147
1619090986.34905,-262.3177,21.14688014984131
1619090986.36468,-251.0291,21.16251015663147
1619090986.3803,-230.5443,21.17813014984131
1619090986.39593,-203.4407,21.19376015663147
1619090986.41156,-173.0018,21.20939016342163
1619090986.42718,-142.0524,21.22501015663147
1619090986.44281,-112.2299,21.24064016342163
1619090986.45843,-83.97424,21.25626015663147
1619090986.47406,-57.00684,21.27189016342163
1619090986.48968,-30.84082,21.28751015663147
1619090986.50531,-5.188843,21.30314016342163
1619090986.52094,20.00366,21.318770170211792
1619090986.53656,44.61682,21.33439016342163
1619090986.55219,68.37158,21.350020170211792
1619090986.56781,90.74805,21.36564016342163
1619090986.58344,110.9724,21.381270170211792
1619090986.59906,128.0625,21.39689016342163
1619090986.61469,141.1969,21.412520170211792
1619090986.63032,150.0446,21.428150177001953
1619090986.64594,155.082,21.443770170211792
1619090986.66157,157.466,21.459400177001953
1619090986.67719,158.7198,21.475020170211792
1619090986.69282,160.278,21.490650177001953
1619090986.70844,163.0526,21.506270170211792
1619090986.72407,167.326,21.521900177001953
1619090986.7397,172.7872,21.537530183792114
1619090986.75532,178.6783,21.553150177001953
1619090986.77095,184.1404,21.568780183792114
1619090986.78657,188.3436,21.584400177001953
1619090986.8022,190.6926,21.600030183792114
1619090986.81782,190.9063,21.615650177001953
1619090986.83345,189.0495,21.631280183792114
1619090986.84908,185.4637,21.646910190582275
1619090986.8647,180.7212,21.662530183792114
1619090986.88033,175.4284,21.678160190582275
1619090986.89595,170.1041,21.693780183792114
1619090986.91158,165.0411,21.709410190582275
1619090986.9272,160.2388,21.725030183792114
1619090986.94283,155.4805,21.740660190582275
1619090986.95846,150.4493,21.756290197372437
1619090986.97408,144.8751,21.771910190582275
1619090986.98971,138.7178,21.787540197372437
1619090987.00533,132.1385,21.803160190582275
1619090987.02096,125.5014,21.818790197372437
1619090987.03658,119.172,21.834410190582275
1619090987.05221,113.3616,21.850040197372437
1619090987.06784,107.9833,21.865670204162598
1619090987.08346,102.6603,21.881290197372437
1619090987.09909,96.86221,21.896920204162598
1619090987.11471,90.14581,21.912540197372437
1619090987.13034,82.3284,21.928170204162598
1619090987.14596,73.57681,21.943790197372437
1619090987.16159,64.3484,21.959420204162598
1619090987.17722,55.1554,21.97505021095276
1619090987.19284,46.35112,21.990670204162598
1619090987.20847,37.92843,22.00630021095276
1619090987.22409,29.49538,22.021920204162598
1619090987.23972,20.52096,22.03755021095276
1619090987.25534,10.57979,22.053170204162598
1619090987.27097,-0.3484917,22.06880021095276
1619090987.2866,-11.85146,22.08443021774292
1619090987.30222,-23.22007,22.10005021095276
1619090987.31785,-33.73506,22.11568021774292
1619090987.33347,-43.0178,22.13130021095276
1619090987.3491,-51.23665,22.14693021774292
1619090987.36472,-59.05588,22.16255021095276
1619090987.38035,-67.49803,22.17818021774292
1619090987.39598,-77.64996,22.193809986114502
1619090987.4116,-90.21819,22.20943021774292
1619090987.42723,-105.1181,22.225059986114502
1619090987.44285,-121.0397,22.24068021774292
1619090987.45848,-135.4679,22.256309986114502
1619090987.4741,-145.0478,22.27193021774292
1619090987.48973,-146.4336,22.287559986114502
1619090987.50536,-137.3964,22.303189992904663
1619090987.52098,-117.712,22.318809986114502
1619090987.53661,-89.33578,22.334439992904663
1619090987.55223,-55.94321,22.350059986114502
1619090987.56786,-21.8013,22.365689992904663
1619090987.58348,9.46875,22.381309986114502
1619090987.59911,35.67514,22.396939992904663
1619090987.61474,56.30319,22.412569999694824
1619090987.63036,72.17172,22.428189992904663
1619090987.64599,84.78604,22.443819999694824
1619090987.66161,95.62177,22.459439992904663
1619090987.67724,105.7198,22.475069999694824
1619090987.69286,115.4814,22.490689992904663
1619090987.70849,124.7289,22.506319999694824
1619090987.72412,132.9404,22.521950006484985
1619090987.73974,139.5519,22.537569999694824
1619090987.75537,144.1725,22.553200006484985
1619090987.77099,146.7841,22.568819999694824
1619090987.78662,147.6725,22.584450006484985
1619090987.80224,147.2828,22.600069999694824
1619090987.81787,146.1383,22.615700006484985
1619090987.8335,144.7467,22.631330013275146
1619090987.84912,143.5717,22.646950006484985
1619090987.86475,143.0013,22.662580013275146
1619090987.88037,143.2668,22.678200006484985
1619090987.896,144.312,22.693830013275146
1619090987.91162,145.7248,22.709450006484985
1619090987.92725,146.7769,22.725080013275146
1619090987.94288,146.6428,22.740710020065308
1619090987.9585,144.7034,22.756330013275146
1619090987.97413,140.7512,22.771960020065308
1619090987.98975,135.0821,22.787580013275146
1619090988.00538,128.3737,22.803210020065308
1619090988.021,121.3813,22.818830013275146
1619090988.03663,114.6907,22.834460020065308
1619090988.05226,108.5837,22.85009002685547
1619090988.06788,103.0415,22.865710020065308
1619090988.08351,97.86853,22.88134002685547
1619090988.09913,92.83826,22.896960020065308
1619090988.11476,87.7597,22.91259002685547
1619090988.13038,82.47296,22.928210020065308
1619090988.14601,76.86566,22.94384002685547
1619090988.16164,70.83179,22.95947003364563
1619090988.17726,64.35321,22.97509002685547
1619090988.19289,57.58936,22.99072003364563
1619090988.20851,50.84546,23.00634002685547
1619090988.22414,44.52289,23.02197003364563
1619090988.23977,38.94739,23.03760004043579
1619090988.25539,34.15076,23.05322003364563
1619090988.27102,29.81537,23.06885004043579
1619090988.28664,25.34406,23.08447003364563
1619090988.30227,20.06427,23.10010004043579
1619090988.31789,13.46661,23.11572003364563
1619090988.33352,5.413879,23.13135004043579
1619090988.34915,-3.826233,23.146980047225952
1619090988.36477,-13.65833,23.16260004043579
1619090988.3804,-23.37305,23.178230047225952
1619090988.39602,-32.3316,23.19385004043579
1619090988.41165,-40.19873,23.209480047225952
1619090988.42727,-47.04791,23.22510004043579
1619090988.4429,-53.40857,23.240730047225952
1619090988.45853,-60.2533,23.256360054016113
1619090988.47415,-68.68768,23.271980047225952
1619090988.48978,-79.57886,23.287610054016113
1619090988.5054,-92.89923,23.303230047225952
1619090988.52103,-107.2932,23.318860054016113
1619090988.53665,-119.9719,23.334480047225952
1619090988.55228,-127.3886,23.350110054016113
1619090988.56791,-126.2878,23.365740060806274
1619090988.58353,-114.9771,23.381360054016113
1619090988.59916,-94.04138,23.396990060806274
1619090988.61478,-66.24884,23.412610054016113
1619090988.63041,-35.68756,23.428240060806274
1619090988.64603,-6.374023,23.443860054016113
1619090988.66166,18.80481,23.459490060806274
1619090988.67729,38.63464,23.475120067596436
1619090988.69291,53.37012,23.490740060806274
1619090988.70854,64.13086,23.506370067596436
1619090988.72416,72.17395,23.521990060806274
1619090988.73979,78.505,23.537620067596436
1619090988.75541,83.72229,23.553240060806274
1619090988.77104,88.07324,23.568870067596436
1619090988.78667,91.60803,23.584500074386597
1619090988.80229,94.27319,23.600120067596436
1619090988.81792,96.0321,23.615750074386597
1619090988.83354,96.90796,23.631370067596436
1619090988.84917,97.05566,23.647000074386597
1619090988.86479,96.68884,23.662620067596436
1619090988.88042,96.04211,23.678250074386597
1619090988.89605,95.31055,23.693880081176758
1619090988.91167,94.6499,23.709500074386597
1619090988.9273,94.17468,23.725130081176758
1619090988.94292,93.96924,23.740750074386597
1619090988.95855,94.02917,23.756380081176758
1619090988.97417,94.20288,23.772000074386597
1619090988.9898,94.17249,23.787630081176758
1619090989.00543,93.4718,23.80326008796692
1619090989.02105,91.61816,23.818880081176758
1619090989.03668,88.245,23.83451008796692
1619090989.0523,83.30029,23.850130081176758
1619090989.06793,77.09351,23.86576008796692
1619090989.08355,70.27295,23.881380081176758
1619090989.09918,63.64478,23.89701008796692
1619090989.11481,57.92346,23.91264009475708
1619090989.13043,53.43579,23.92826008796692
1619090989.14606,49.96497,23.94389009475708
1619090989.16168,46.80054,23.95951008796692
1619090989.17731,43.01648,23.97514009475708
1619090989.19293,37.87207,23.99076008796692
1619090989.20856,31.16138,24.00639009475708
1619090989.22419,23.31824,24.02202010154724
1619090989.23981,15.2345,24.03764009475708
1619090989.25544,7.823486,24.05327010154724
1619090989.27106,1.602417,24.06889009475708
1619090989.28669,-3.567749,24.08452010154724
1619090989.30231,-8.357666,24.10014009475708
1619090989.31794,-13.60059,24.11577010154724
1619090989.33357,-19.92017,24.131400108337402
1619090989.34919,-27.48193,24.14702010154724
1619090989.36482,-35.94702,24.162650108337402
1619090989.38044,-44.72168,24.17827010154724
1619090989.39607,-53.22961,24.193900108337402
1619090989.41169,-61.09009,24.20952010154724
1619090989.42732,-68.23376,24.225150108337402
1619090989.44295,-74.91998,24.240780115127563
1619090989.45857,-81.64783,24.256400108337402
1619090989.4742,-89.164,24.272030115127563
1619090989.48982,-98.23029,24.287650108337402
1619090989.50545,-109.3755,24.303280115127563
1619090989.52107,-122.3295,24.318900108337402
1619090989.5367,-135.7094,24.334530115127563
1619090989.55233,-146.928,24.350160121917725
1619090989.56795,-152.7679,24.365780115127563
1619090989.58358,-150.3364,24.381410121917725
1619090989.5992,-138.1658,24.397030115127563
1619090989.61483,-116.8988,24.412660121917725
1619090989.63045,-89.11383,24.428280115127563
1619090989.64608,-58.60449,24.443910121917725
1619090989.66171,-29.12073,24.459540128707886
1619090989.67733,-3.399414,24.475160121917725
1619090989.69296,17.33813,24.490790128707886
1619090989.70858,33.21448,24.506410121917725
1619090989.72421,45.19312,24.522040128707886
1619090989.73983,54.48889,24.537660121917725
1619090989.75546,62.14844,24.553290128707886
1619090989.77109,68.91101,24.568920135498047
1619090989.78671,75.15186,24.584540128707886
1619090989.80234,80.97009,24.600170135498047
1619090989.81796,86.16418,24.615790128707886
1619090989.83359,90.35461,24.631420135498047
1619090989.84921,93.13562,24.647040128707886
1619090989.86484,94.23621,24.662670135498047
1619090989.88047,93.698,24.678300142288208
1619090989.89609,91.88892,24.693920135498047
1619090989.91172,89.43286,24.709550142288208
1619090989.92734,87.05701,24.725170135498047
1619090989.94297,85.33948,24.740800142288208
1619090989.95859,84.54688,24.756420135498047
1619090989.97422,84.57861,24.772050142288208
1619090989.98985,85.02625,24.78768014907837
1619090990.00547,85.27014,24.803300142288208
1619090990.0211,84.71082,24.81893014907837
1619090990.03672,82.90771,24.834550142288208
1619090990.05235,79.75366,24.85018014907837
1619090990.06797,75.44507,24.865800142288208
1619090990.0836,70.43738,24.88143014907837
1619090990.09923,65.26477,24.89706015586853
1619090990.11485,60.37,24.91268014907837
1619090990.13048,56.0459,24.92831015586853
1619090990.1461,52.32202,24.94393014907837
1619090990.16173,48.97656,24.95956015586853
1619090990.17735,45.63843,24.97518014907837
1619090990.19298,41.94922,24.99081015586853
1619090990.20861,37.69446,25.00644016265869
1619090990.22423,32.90137,25.02206015586853
1619090990.23986,27.82935,25.03769016265869
1619090990.25548,22.81732,25.05331015586853
1619090990.27111,18.14069,25.06894016265869
1619090990.28673,13.85187,25.08456015586853
1619090990.30236,9.814087,25.10019016265869
1619090990.31799,5.788696,25.115820169448853
1619090990.33361,1.573486,25.13144016265869
1619090990.34924,-2.872498,25.147070169448853
1619090990.36486,-7.527161,25.16269016265869
1619090990.38049,-12.33417,25.178320169448853
1619090990.39611,-17.35236,25.19394016265869
1619090990.41174,-22.77576,25.209570169448853
1619090990.42737,-28.88312,25.225200176239014
1619090990.44299,-35.84436,25.240820169448853
1619090990.45862,-43.59137,25.256450176239014
1619090990.47424,-51.76886,25.272070169448853
1619090990.48987,-59.77063,25.287700176239014
1619090990.5055,-66.98456,25.303330183029175
1619090990.52112,-73.02661,25.318950176239014
1619090990.53675,-77.96753,25.334580183029175
1619090990.55237,-82.36865,25.350200176239014
1619090990.568,-87.20544,25.365830183029175
1619090990.58362,-93.55182,25.381450176239014
1619090990.59925,-102.2391,25.397080183029175
1619090990.61488,-113.4172,25.412710189819336
1619090990.6305,-126.2465,25.428330183029175
1619090990.64613,-138.716,25.443960189819336
1619090990.66175,-147.9579,25.459580183029175
1619090990.67738,-150.9133,25.475210189819336
1619090990.693,-145.3272,25.490830183029175
1619090990.70863,-130.5752,25.506460189819336
1619090990.72426,-108.0729,25.522090196609497
1619090990.73988,-80.89923,25.537710189819336
1619090990.75551,-52.79987,25.553340196609497
1619090990.77113,-27.01971,25.568960189819336
1619090990.78676,-5.401733,25.584590196609497
1619090990.80238,11.83563,25.600210189819336
1619090990.81801,25.67426,25.615840196609497
1619090990.83364,37.56189,25.631470203399658
1619090990.84926,48.74646,25.647090196609497
1619090990.86489,59.9187,25.662720203399658
1619090990.88051,71.23047,25.678340196609497
1619090990.89614,82.46375,25.693970203399658
1619090990.91176,93.24396,25.709590196609497
1619090990.92739,103.1627,25.725220203399658
1619090990.94302,111.8561,25.74085021018982
1619090990.95864,119.0466,25.756470203399658
1619090990.97427,124.5491,25.77210021018982
1619090990.98989,128.4402,25.787720203399658
1619090991.00552,131.0706,25.80335021018982
1619090991.02114,133.1297,25.818970203399658
1619090991.03677,135.4526,25.83460021018982
1619090991.0524,138.7766,25.85023021697998
1619090991.06802,143.4859,25.86585021018982
1619090991.08365,149.4384,25.88148021697998
1619090991.09927,156.0663,25.89710021018982
1619090991.1149,162.7665,25.91273021697998
1619090991.13052,169.2385,25.92835021018982
1619090991.14615,175.7342,25.94398021697998
1619090991.16178,183.0064,25.95961022377014
1619090991.1774,191.8366,25.97523021697998
1619090991.19303,202.5714,25.99086022377014
1619090991.20865,214.8588,26.00648021697998
1619090991.22428,227.7319,26.02211022377014
1619090991.2399,239.9612,26.03773021697998
1619090991.25553,250.4366,26.05336022377014
1619090991.27116,258.2961,26.068989992141724
1619090991.28678,262.8375,26.08461022377014
1619090991.30241,263.3765,26.100239992141724
1619090991.31803,259.2588,26.11586022377014
1619090991.33366,250.1296,26.131489992141724
1619090991.34928,236.2385,26.14711022377014
1619090991.36491,218.6375,26.162739992141724
1619090991.38054,198.9297,26.178369998931885
1619090991.39616,178.8512,26.193989992141724
1619090991.41179,159.7285,26.209619998931885
1619090991.42741,142.2278,26.225239992141724
1619090991.44304,126.4437,26.240869998931885
1619090991.45866,112.2794,26.256489992141724
1619090991.47429,99.75955,26.272119998931885
1619090991.48992,89.20261,26.287750005722046
1619090991.50554,81.07077,26.303369998931885
1619090991.52117,75.71921,26.319000005722046
1619090991.53679,73.27393,26.334619998931885
1619090991.55242,73.58679,26.350250005722046
1619090991.56804,76.43539,26.365869998931885
1619090991.58367,81.65643,26.381500005722046
1619090991.5993,89.14867,26.397130012512207
1619090991.61492,98.71445,26.412750005722046
1619090991.63055,109.8581,26.428380012512207
1619090991.64617,121.5826,26.444000005722046
1619090991.6618,132.447,26.459630012512207
1619090991.67742,140.9224,26.475250005722046
1619090991.69305,145.769,26.490880012512207
1619090991.70868,146.4639,26.506510019302368
1619090991.7243,143.3206,26.522130012512207
1619090991.73993,137.2265,26.537760019302368
1619090991.75555,129.2706,26.553380012512207
1619090991.77118,120.0939,26.569010019302368
1619090991.7868,109.5775,26.584630012512207
1619090991.80243,96.85239,26.600260019302368
1619090991.81806,80.729,26.61589002609253
1619090991.83368,60.28854,26.631510019302368
1619090991.84931,35.33841,26.64714002609253
1619090991.86493,6.57196,26.662760019302368
1619090991.88056,-24.94141,26.67839002609253
1619090991.89618,-58.1839,26.694010019302368
1619090991.91181,-92.7807,26.70964002609253
1619090991.92744,-129.2494,26.72527003288269
1619090991.94306,-168.7684,26.74089002609253
1619090991.95869,-212.8051,26.75652003288269
1619090991.97431,-262.8064,26.77214002609253
1619090991.98994,-319.9207,26.78777003288269
1619090992.00556,-384.4169,26.80339002609253
1619090992.02119,-454.9339,26.81902003288269
1619090992.03682,-527.6427,26.83465003967285
1619090992.05244,-596.126,26.85027003288269
1619090992.06807,-652.4147,26.86590003967285
1619090992.08369,-689.243,26.88152003288269
1619090992.09932,-702.5192,26.89715003967285
1619090992.11494,-692.8646,26.91277003288269
1619090992.13057,-665.3297,26.92840003967285
1619090992.1462,-627.193,26.944030046463013
1619090992.16182,-585.1878,26.95965003967285
1619090992.17745,-543.3995,26.975280046463013
1619090992.19307,-502.9187,26.99090003967285
1619090992.2087,-462.9789,27.006530046463013
1619090992.22432,-422.7628,27.02215003967285
1619090992.23995,-382.5743,27.037780046463013
1619090992.25558,-343.7457,27.053410053253174
1619090992.2712,-307.7791,27.069030046463013
1619090992.28683,-275.2542,27.084660053253174
1619090992.30245,-245.6152,27.100280046463013
1619090992.31808,-217.6272,27.115910053253174
1619090992.3337,-190.312,27.131530046463013
1619090992.34933,-163.5371,27.147160053253174
1619090992.36496,-138.1064,27.162790060043335
1619090992.38058,-115.3434,27.178410053253174
1619090992.39621,-96.25586,27.194040060043335
1619090992.41183,-81.03674,27.209660053253174
1619090992.42746,-68.89026,27.225290060043335
1619090992.44308,-58.44739,27.240910053253174
1619090992.45871,-48.33301,27.256540060043335
1619090992.47434,-37.76294,27.272170066833496
1619090992.48996,-26.80322,27.287790060043335
1619090992.50559,-16.26636,27.303420066833496
1619090992.52121,-7.271606,27.319040060043335
1619090992.53684,-0.6721191,27.334670066833496
1619090992.55246,3.22522,27.350290060043335
1619090992.56809,4.856873,27.365920066833496
1619090992.58372,5.123657,27.381550073623657
1619090992.59934,5.025513,27.397170066833496
1619090992.61497,5.233887,27.412800073623657
1619090992.63059,5.871216,27.428420066833496
1619090992.64622,6.498779,27.444050073623657
1619090992.66184,6.406311,27.459670066833496
1619090992.67747,4.959534,27.475300073623657
1619090992.6931,1.803589,27.49093008041382
1619090992.70872,-2.94458,27.506550073623657
1619090992.72435,-8.84729,27.52218008041382
1619090992.73997,-15.29443,27.537800073623657
1619090992.7556,-21.72382,27.55343008041382
1619090992.77122,-27.75854,27.569050073623657
1619090992.78685,-33.30115,27.58468008041382
1619090992.80248,-38.50055,27.60031008720398
1619090992.8181,-43.69916,27.61593008041382
1619090992.83373,-49.45947,27.63156008720398
1619090992.84935,-56.42786,27.64718008041382
1619090992.86498,-65.24152,27.66281008720398
1619090992.8806,-76.26001,27.67843008041382
1619090992.89623,-89.099,27.69406008720398
1619090992.91186,-102.3453,27.70969009399414
1619090992.92748,-113.5834,27.72531008720398
1619090992.94311,-119.8945,27.74094009399414
1619090992.95873,-118.7481,27.75656008720398
1619090992.97436,-108.9537,27.77219009399414
1619090992.98998,-91.19019,27.78781008720398
1619090993.00561,-67.8786,27.80344009399414
1619090993.02124,-42.40887,27.8190701007843
1619090993.03686,-18.04529,27.83469009399414
1619090993.05249,2.977478,27.8503201007843
1619090993.06811,19.87122,27.86594009399414
1619090993.08374,33.06055,27.8815701007843
1619090993.09937,43.65405,27.897200107574463
1619090993.11499,52.81229,27.9128201007843
1619090993.13062,61.31873,27.928450107574463
1619090993.14624,69.46588,27.9440701007843
1619090993.16187,77.10489,27.959700107574463
1619090993.17749,83.86987,27.9753201007843
1619090993.19312,89.36578,27.990950107574463
1619090993.20875,93.31802,28.006580114364624
1619090993.22437,95.67926,28.022200107574463
1619090993.24,96.61392,28.037830114364624
1619090993.25562,96.44461,28.053450107574463
1619090993.27125,95.60579,28.069080114364624
1619090993.28687,94.56664,28.084700107574463
1619090993.3025,93.76918,28.100330114364624
1619090993.31813,93.61807,28.115960121154785
1619090993.33375,94.37769,28.131580114364624
1619090993.34938,96.05475,28.147210121154785
1619090993.365,98.29738,28.162830114364624
1619090993.38063,100.4927,28.178460121154785
1619090993.39625,101.9278,28.194080114364624
1619090993.41188,102.0687,28.209710121154785
1619090993.42751,100.833,28.225340127944946
1619090993.44313,98.57582,28.240960121154785
1619090993.45876,95.90361,28.256590127944946
1619090993.47438,93.39249,28.272210121154785
1619090993.49001,91.29765,28.287840127944946
1619090993.50563,89.53219,28.303460121154785
1619090993.52126,87.79221,28.319090127944946
1619090993.53689,85.74194,28.334720134735107
1619090993.55251,83.16785,28.350340127944946
1619090993.56814,80.02219,28.365970134735107
1619090993.58376,76.35995,28.381590127944946
1619090993.59939,72.18214,28.397220134735107
1619090993.61501,67.48891,28.412840127944946
1619090993.63064,62.23967,28.428470134735107
1619090993.64627,56.5139,28.44410014152527
1619090993.66189,50.50296,28.459720134735107
1619090993.67752,44.52496,28.47535014152527
1619090993.69314,38.96086,28.490970134735107
1619090993.70877,34.08763,28.50660014152527
1619090993.72439,29.96635,28.522220134735107
1619090993.74002,26.37209,28.53785014152527
1619090993.75565,22.86467,28.55348014831543
1619090993.77127,18.91701,28.56910014152527
1619090993.7869,14.17004,28.58473014831543
1619090993.80252,8.587875,28.60035014152527
1619090993.81815,2.459198,28.61598014831543
1619090993.83377,-3.705002,28.63160014152527
1619090993.8494,-9.409241,28.64723014831543
1619090993.86503,-14.42848,28.66286015510559
1619090993.88065,-18.85909,28.67848014831543
1619090993.89628,-23.11017,28.69411015510559
1619090993.9119,-27.81418,28.70973014831543
1619090993.92753,-33.69321,28.72536015510559
1619090993.94315,-41.41245,28.74098014831543
1619090993.95878,-51.30197,28.75661015510559
1619090993.97441,-63.02618,28.772240161895752
1619090993.99003,-75.32935,28.78786015510559
1619090994.00566,-86.0322,28.803490161895752
1619090994.02128,-92.38675,28.81911015510559
1619090994.03691,-91.89157,28.834740161895752
1619090994.05253,-83.19443,28.85036015510559
1619090994.06816,-66.70929,28.865990161895752
1619090994.08379,-44.6163,28.881620168685913
1619090994.09941,-20.2236,28.897240161895752
1619090994.11504,3.070251,28.912870168685913
1619090994.13066,22.79764,28.928490161895752
1619090994.14629,37.94186,28.944120168685913
1619090994.16191,48.85037,28.959740161895752
1619090994.17754,56.64069,28.975370168685913
1619090994.19317,62.54736,28.991000175476074
1619090994.20879,67.4248,29.006620168685913
1619090994.22442,71.64334,29.022250175476074
1619090994.24004,75.2088,29.037870168685913
1619090994.25567,78.02936,29.053500175476074
1619090994.27129,80.08334,29.069120168685913
1619090994.28692,81.42599,29.084750175476074
1619090994.30255,82.22186,29.100380182266235
1619090994.31817,82.61081,29.116000175476074
1619090994.3338,82.72769,29.131630182266235
1619090994.34942,82.73865,29.147250175476074
1619090994.36505,82.86255,29.162880182266235
1619090994.38067,83.34857,29.178500175476074
1619090994.3963,84.37619,29.194130182266235
1619090994.41193,85.96149,29.209760189056396
1619090994.42755,87.87079,29.225380182266235
1619090994.44318,89.66107,29.241010189056396
1619090994.4588,90.78821,29.256630182266235
1619090994.47443,90.74982,29.272260189056396
1619090994.49005,89.26093,29.287880182266235
1619090994.50568,86.30157,29.303510189056396
1619090994.52131,82.14111,29.319140195846558
1619090994.53693,77.19501,29.334760189056396
1619090994.55256,71.99561,29.350390195846558
1619090994.56818,66.98224,29.366010189056396
1619090994.58381,62.44678,29.381640195846558
1619090994.59943,58.49213,29.397260189056396
1619090994.61506,55.02832,29.412890195846558
1619090994.63069,51.81116,29.42852020263672
1619090994.64631,48.49994,29.444140195846558
1619090994.66194,44.78406,29.45977020263672
1619090994.67756,40.40607,29.475390195846558
1619090994.69319,35.36517,29.49102020263672
1619090994.70881,29.85699,29.506640195846558
1619090994.72444,24.23688,29.52227020263672
1619090994.74007,18.85126,29.53790020942688
1619090994.75569,13.89764,29.55352020263672
1619090994.77132,9.319031,29.56915020942688
1619090994.78694,4.760559,29.58477020263672
1619090994.80257,-0.22052,29.60040020942688
1619090994.81819,-6.001709,29.61602020263672
1619090994.83382,-12.73865,29.63165020942688
1619090994.84945,-20.26978,29.64728021621704
1619090994.86507,-28.2132,29.66290020942688
1619090994.8807,-36.12628,29.67853021621704
1619090994.89632,-43.65942,29.69415020942688
1619090994.91195,-50.61926,29.70978021621704
1619090994.92757,-57.05444,29.72540020942688
1619090994.9432,-63.22278,29.74103021621704
1619090994.95883,-69.56836,29.756660223007202
1619090994.97445,-76.72656,29.77228021621704
1619090994.99008,-85.35706,29.787910223007202
1619090995.0057,-95.84479,29.80353021621704
1619090995.02133,-107.8934,29.819160223007202
1619090995.03695,-120.2022,29.83478021621704
1619090995.05258,-130.4823,29.850410223007202
1619090995.06821,-135.9658,29.866039991378784
1619090995.08383,-134.2534,29.881660223007202
1619090995.09946,-124.1909,29.897289991378784
1619090995.11508,-106.4024,29.912910223007202
1619090995.13071,-83.15497,29.928539991378784
1619090995.14633,-57.62012,29.944160223007202
1619090995.16196,-32.86108,29.959789991378784
1619090995.17759,-11.04913,29.975419998168945
1619090995.19321,6.905212,29.991039991378784
1619090995.20884,21.15741,30.006669998168945
1619090995.22446,32.53442,30.022289991378784
1619090995.24009,41.95752,30.037919998168945
1619090995.25571,50.15204,30.053539991378784
1619090995.27134,57.57593,30.069169998168945
1619090995.28697,64.39392,30.084800004959106
1619090995.30259,70.5661,30.100419998168945
1619090995.31822,75.93054,30.116050004959106
1619090995.33384,80.28479,30.131669998168945
1619090995.34947,83.48071,30.147300004959106
1619090995.3651,85.50726,30.162930011749268
1619090995.38072,86.46539,30.178550004959106
1619090995.39635,86.54779,30.194180011749268
1619090995.41197,86.01941,30.209800004959106
1619090995.4276,85.19928,30.225430011749268
1619090995.44322,84.41144,30.241050004959106
1619090995.45885,83.94684,30.256680011749268
1619090995.47448,84.01563,30.27231001853943
1619090995.4901,84.61908,30.287930011749268
1619090995.50573,85.50861,30.30356001853943
1619090995.52135,86.19977,30.319180011749268
1619090995.53698,86.11353,30.33481001853943
1619090995.5526,84.76764,30.350430011749268
1619090995.56823,81.94934,30.36606001853943
1619090995.58386,77.80652,30.38169002532959
1619090995.59948,72.78088,30.39731001853943
1619090995.61511,67.4693,30.41294002532959
1619090995.63073,62.44427,30.42856001853943
1619090995.64636,58.10681,30.44419002532959
1619090995.66198,54.57953,30.45981001853943
1619090995.67761,51.69611,30.47544002532959
1619090995.69324,49.1239,30.49107003211975
1619090995.70886,46.44263,30.50669002532959
1619090995.72449,43.35046,30.52232003211975
1619090995.74011,39.70917,30.53794002532959
1619090995.75574,35.62274,30.55357003211975
1619090995.77136,31.34601,30.56919002532959
1619090995.78699,27.1861,30.58482003211975
1619090995.80262,23.39276,30.600450038909912
1619090995.81824,20.00446,30.61607003211975
1619090995.83387,16.85632,30.631700038909912
1619090995.84949,13.60107,30.64732003211975
1619090995.86512,9.892334,30.662950038909912
1619090995.88074,5.517761,30.67857003211975
1619090995.89637,0.5683594,30.694200038909912
1619090995.912,-4.655457,30.709830045700073
1619090995.92762,-9.72406,30.725450038909912
1619090995.94325,-14.31409,30.741080045700073
1619090995.95887,-18.4458,30.756700038909912
1619090995.9745,-22.42615,30.772330045700073
1619090995.99012,-26.76776,30.787950038909912
1619090996.00575,-31.93921,30.803580045700073
1619090996.02138,-38.15729,30.819210052490234
1619090996.037,-45.23456,30.834830045700073
1619090996.05263,-52.71228,30.850460052490234
1619090996.06825,-60.00421,30.866080045700073
1619090996.08388,-66.62769,30.881710052490234
1619090996.0995,-72.37091,30.897330045700073
1619090996.11513,-77.40143,30.912960052490234
1619090996.13076,-82.20557,30.928590059280396
1619090996.14638,-87.52783,30.944210052490234
1619090996.16201,-94.17773,30.959840059280396
1619090996.17763,-102.8069,30.975460052490234
1619090996.19326,-113.5706,30.991090059280396
1619090996.20888,-125.8093,31.006710052490234
1619090996.22451,-137.8605,31.022340059280396
1619090996.24014,-147.2421,31.037970066070557
1619090996.25576,-151.1534,31.053590059280396
1619090996.27139,-147.3688,31.069220066070557
1619090996.28701,-135.0907,31.084840059280396
1619090996.30264,-115.3619,31.100470066070557
1619090996.31826,-90.86469,31.116090059280396
1619090996.33389,-65.06689,31.131720066070557
1619090996.34952,-41.16797,31.147350072860718
1619090996.36514,-21.17834,31.162970066070557
1619090996.38077,-5.664185,31.178600072860718
1619090996.39639,6.039368,31.194220066070557
1619090996.41202,15.16718,31.209850072860718
1619090996.42764,22.91534,31.225470066070557
1619090996.44327,30.06976,31.241100072860718
1619090996.4589,36.90509,31.25673007965088
1619090996.47452,43.35156,31.272350072860718
1619090996.49015,49.12,31.28798007965088
1619090996.50577,53.83093,31.303600072860718
1619090996.5214,57.11255,31.31923007965088
1619090996.53702,58.75769,31.334850072860718
1619090996.55265,58.75116,31.35048007965088
1619090996.56828,57.4024,31.36611008644104
1619090996.5839,55.3089,31.38173007965088
1619090996.59953,53.21075,31.39736008644104
1619090996.61515,51.87457,31.41298007965088
1619090996.63078,51.86523,31.42861008644104
1619090996.6464,53.4223,31.44423007965088
1619090996.66203,56.34515,31.45986008644104
1619090996.67766,60.00781,31.4754900932312
1619090996.69328,63.46838,31.49111008644104
1619090996.70891,65.71857,31.5067400932312
1619090996.72453,66.04364,31.52236008644104
1619090996.74016,64.21881,31.5379900932312
1619090996.75578,60.63428,31.55361008644104
1619090996.77141,56.15485,31.5692400932312
1619090996.78704,51.82294,31.584870100021362
1619090996.80266,48.44989,31.6004900932312
1619090996.81829,46.45935,31.616120100021362
1619090996.83391,45.83954,31.6317400932312
1619090996.84954,46.21826,31.647370100021362
1619090996.86516,47.04883,31.6629900932312
1619090996.88079,47.72089,31.678620100021362
1619090996.89642,47.64227,31.694250106811523
1619090996.91204,46.40265,31.709870100021362
1619090996.92767,43.91742,31.725500106811523
1619090996.94329,40.51434,31.741120100021362
1619090996.95892,36.92664,31.756750106811523
1619090996.97454,34.0213,31.772370100021362
1619090996.99017,32.43427,31.788000106811523
1619090997.0058,32.20947,31.803630113601685
1619090997.02142,32.66827,31.819250106811523
1619090997.03705,32.66473,31.834880113601685
1619090997.05267,31.03455,31.850500106811523
1619090997.0683,27.17487,31.866130113601685
1619090997.08392,21.25964,31.881750106811523
1619090997.09955,14.15973,31.897380113601685
1619090997.11518,7.000488,31.913010120391846
1619090997.1308,0.6480103,31.928630113601685
1619090997.14643,-4.651245,31.944260120391846
1619090997.16205,-9.311523,31.959880113601685
1619090997.17768,-14.14258,31.975510120391846
1619090997.1933,-19.93152,31.991130113601685
1619090997.20893,-27.10248,32.006760120391846
1619090997.22456,-35.60663,32.02239012718201
1619090997.24018,-44.92096,32.038010120391846
1619090997.25581,-54.30402,32.05364012718201
1619090997.27143,-62.97369,32.069260120391846
1619090997.28706,-70.36768,32.08489012718201
1619090997.30268,-76.39435,32.100510120391846
1619090997.31831,-81.57941,32.11614012718201
1619090997.33394,-87.11639,32.13177013397217
1619090997.34956,-94.52283,32.14739012718201
1619090997.36519,-105.0739,32.16302013397217
1619090997.38081,-119.006,32.17864012718201
1619090997.39644,-134.972,32.19427013397217
1619090997.41206,-150.0306,32.20989012718201
1619090997.42769,-160.2891,32.22552013397217
1619090997.44332,-162.153,32.24115014076233
1619090997.45894,-153.5337,32.25677013397217
1619090997.47457,-134.6131,32.27240014076233
1619090997.49019,-107.7822,32.28802013397217
1619090997.50582,-76.8476,32.30365014076233
1619090997.52144,-45.80255,32.31927013397217
1619090997.53707,-17.80847,32.33490014076233
1619090997.5527,5.375732,32.35053014755249
1619090997.56832,23.37195,32.36615014076233
1619090997.58395,36.75281,32.38178014755249
1619090997.59957,46.56866,32.39740014076233
1619090997.6152,53.91638,32.41303014755249
1619090997.63083,59.776,32.42866015434265
1619090997.64645,64.93219,32.44428014755249
1619090997.66208,69.90967,32.45991015434265
1619090997.6777,74.91443,32.47553014755249
1619090997.69333,79.72791,32.49116015434265
1619090997.70895,83.85571,32.50678014755249
1619090997.72458,86.65283,32.52241015434265
1619090997.74021,87.63428,32.53804016113281
1619090997.75583,86.6665,32.55366015434265
1619090997.77146,84.1087,32.56929016113281
1619090997.78708,80.74005,32.58491015434265
1619090997.80271,77.51538,32.60054016113281
1619090997.81833,75.26581,32.61616015434265
1619090997.83396,74.3902,32.63179016113281
1619090997.84959,74.73224,32.647420167922974
1619090997.86521,75.65552,32.66304016113281
1619090997.88084,76.24689,32.678670167922974
1619090997.89646,75.71887,32.69429016113281
1619090997.91209,73.65613,32.709920167922974
1619090997.92771,70.16296,32.72554016113281
1619090997.94334,65.74194,32.741170167922974
1619090997.95897,61.05457,32.756800174713135
1619090997.97459,56.59113,32.772420167922974
1619090997.99022,52.60681,32.788050174713135
1619090998.00584,49.04468,32.803670167922974
1619090998.02147,45.65027,32.819300174713135
1619090998.03709,42.14691,32.834920167922974
1619090998.05272,38.35449,32.850550174713135
1619090998.06835,34.25946,32.866180181503296
1619090998.08397,30.03241,32.881800174713135
1619090998.0996,25.94116,32.897430181503296
1619090998.11522,22.26321,32.913050174713135
1619090998.13085,19.13461,32.928680181503296
1619090998.14647,16.44849,32.944300174713135
1619090998.1621,13.88165,32.959930181503296
1619090998.17773,11.03305,32.97556018829346
1619090998.19335,7.585968,32.991180181503296
1619090998.20898,3.490112,33.00681018829346
1619090998.2246,-1.023346,33.022430181503296
1619090998.24023,-5.558411,33.03806018829346
1619090998.25585,-9.755676,33.053680181503296
1619090998.27148,-13.56427,33.06931018829346
1619090998.28711,-17.25949,33.08494019508362
1619090998.30273,-21.37808,33.10056018829346
1619090998.31836,-26.36697,33.11619019508362
1619090998.33398,-32.40854,33.13181018829346
1619090998.34961,-39.28165,33.14744019508362
1619090998.36523,-46.46625,33.16306018829346
1619090998.38086,-53.38409,33.17869019508362
1619090998.39649,-59.62634,33.19432020187378
1619090998.41211,-65.13098,33.20994019508362
1619090998.42774,-70.13852,33.22557020187378
1619090998.44336,-75.16656,33.24119019508362
1619090998.45899,-80.77017,33.25682020187378
1619090998.47461,-87.51056,33.27244019508362
1619090998.49024,-95.69333,33.28807020187378
1619090998.50587,-105.0825,33.30370020866394
1619090998.52149,-114.6312,33.31932020187378
1619090998.53712,-122.452,33.33495020866394
1619090998.55274,-126.1358,33.35057020187378
1619090998.56837,-123.4477,33.36620020866394
1619090998.58399,-113.24,33.38182020187378
1619090998.59962,-96.00754,33.39745020866394
1619090998.61525,-73.87958,33.4130802154541
1619090998.63087,-49.98242,33.42870020866394
1619090998.6465,-27.43704,33.4443302154541
1619090998.66212,-8.457397,33.45995020866394
1619090998.67775,6.152405,33.4755802154541
1619090998.69337,16.76608,33.49120020866394
1619090998.709,24.48694,33.5068302154541
1619090998.72463,30.43881,33.52246022224426
1619090998.74025,35.40408,33.5380802154541
1619090998.75588,39.7489,33.55371022224426
1619090998.7715,43.54984,33.5693302154541
1619090998.78713,46.82141,33.58496022224426
1619090998.80275,49.57983,33.6005802154541
1619090998.81838,51.90115,33.61621022224426
1619090998.83401,53.77966,33.631839990615845
1619090998.84963,55.13922,33.64746022224426
1619090998.86526,55.86633,33.663089990615845
1619090998.88088,55.87347,33.67871022224426
1619090998.89651,55.24033,33.694339990615845
1619090998.91213,54.25104,33.70996022224426
1619090998.92776,53.35126,33.725589990615845
1619090998.94339,52.93356,33.741219997406006
1619090998.95901,53.20886,33.756839990615845
1619090998.97464,54.05478,33.772469997406006
1619090998.99026,55.02097,33.788089990615845
1619090999.00589,55.46603,33.803719997406006
1619090999.02151,54.75513,33.819339990615845
1619090999.03714,52.54437,33.834969997406006
1619090999.05277,48.83664,33.85060000419617
1619090999.06839,44.08755,33.866219997406006
1619090999.08402,38.94131,33.88185000419617
1619090999.09964,34.05652,33.897469997406006
1619090999.11527,29.79956,33.91310000419617
1619090999.13089,26.15619,33.928719997406006
1619090999.14652,22.77713,33.94435000419617
1619090999.16215,19.13235,33.95998001098633
1619090999.17777,14.81345,33.97560000419617
1619090999.1934,9.699707,33.99123001098633
1619090999.20902,4.086365,34.00685000419617
1619090999.22465,-1.480988,34.02248001098633
1619090999.24027,-6.437561,34.03810000419617
1619090999.2559,-10.46365,34.05373001098633
1619090999.27153,-13.6694,34.06936001777649
1619090999.28715,-16.5058,34.08498001098633
1619090999.30278,-19.62964,34.10061001777649
1619090999.3184,-23.56845,34.11623001098633
1619090999.33403,-28.60562,34.13186001777649
1619090999.34965,-34.6095,34.14748001098633
1619090999.36528,-41.1499,34.16311001777649
1619090999.38091,-47.67117,34.17874002456665
1619090999.39653,-53.673,34.19436001777649
1619090999.41216,-58.88818,34.20999002456665
1619090999.42778,-63.38782,34.22561001777649
1619090999.44341,-67.6423,34.24124002456665
1619090999.45903,-72.42249,34.25686001777649
1619090999.47466,-78.59808,34.27249002456665
1619090999.49029,-86.70178,34.28812003135681
1619090999.50591,-96.48352,34.30374002456665
1619090999.52154,-106.6716,34.31937003135681
1619090999.53716,-114.9951,34.33499002456665
1619090999.55279,-118.7985,34.35062003135681
1619090999.56841,-115.8828,34.36624002456665
1619090999.58404,-105.368,34.38187003135681
1619090999.59967,-88.10486,34.39750003814697
1619090999.61529,-66.44531,34.41312003135681
1619090999.63092,-43.51797,34.42875003814697
1619090999.64654,-22.20557,34.44437003135681
1619090999.66217,-4.39389,34.46000003814697
1619090999.67779,9.348053,34.47562003135681
1619090999.69342,19.49677,34.49125003814697
1619090999.70905,27.06778,34.506880044937134
1619090999.72467,33.09171,34.52250003814697
1619090999.7403,38.28488,34.538130044937134
1619090999.75592,43.01712,34.55375003814697
1619090999.77155,47.37921,34.569380044937134
1619090999.78717,51.32816,34.58500003814697
1619090999.8028,54.71225,34.600630044937134
1619090999.81843,57.3685,34.616260051727295
1619090999.83405,59.08029,34.631880044937134
1619090999.84968,59.71887,34.647510051727295
1619090999.8653,59.32037,34.663130044937134
1619090999.88093,58.11252,34.678760051727295
1619090999.89655,56.51559,34.694380044937134
1619090999.91218,55.04129,34.710010051727295
1619090999.92781,54.09949,34.725640058517456
1619090999.94343,53.88663,34.741260051727295
1619090999.95906,54.33328,34.756890058517456
1619090999.97468,55.048,34.772510051727295
1619090999.99031,55.46512,34.788140058517456
1619091000.00593,54.98749,34.803760051727295
1619091000.02156,53.18118,34.819390058517456
1619091000.03719,49.92169,34.83502006530762
1619091000.05281,45.49628,34.850640058517456
1619091000.06844,40.48911,34.86627006530762
1619091000.08406,35.58145,34.881890058517456
1619091000.09969,31.26746,34.89752006530762
1619091000.11531,27.66284,34.913140058517456
1619091000.13094,24.49406,34.92877006530762
1619091000.14657,21.26756,34.94440007209778
1619091000.16219,17.54192,34.96002006530762
1619091000.17782,13.14998,34.97565007209778
1619091000.19344,8.34079,34.99127006530762
1619091000.20907,3.566101,35.00690007209778
1619091000.2247,-0.7305145,35.02253007888794
1619091000.24032,-4.392883,35.03815007209778
1619091000.25595,-7.644012,35.05378007888794
1619091000.27157,-10.99367,35.06940007209778
1619091000.2872,-14.9888,35.08503007888794
1619091000.30282,-19.99536,35.10065007209778
1619091000.31845,-26.03905,35.11628007888794
1619091000.33408,-32.81284,35.1319100856781
1619091000.3497,-39.82823,35.14753007888794
1619091000.36533,-46.56056,35.1631600856781
1619091000.38095,-52.62112,35.17878007888794
1619091000.39658,-57.8438,35.1944100856781
1619091000.4122,-62.39445,35.21003007888794
1619091000.42783,-66.78053,35.2256600856781
1619091000.44346,-71.83049,35.24129009246826
1619091000.45908,-78.45822,35.2569100856781
1619091000.47471,-87.2845,35.27254009246826
1619091000.49033,-98.17842,35.2881600856781
1619091000.50596,-109.8624,35.30379009246826
1619091000.52158,-120.0022,35.3194100856781
1619091000.53721,-125.7606,35.33504009246826
1619091000.55284,-124.749,35.35067009925842
1619091000.56846,-115.9301,35.36629009246826
1619091000.58409,-100.0788,35.38192009925842
1619091000.59971,-79.54034,35.39754009246826
1619091000.61534,-57.439,35.41317009925842
1619091000.63096,-36.61519,35.42879009246826
1619091000.64659,-18.85007,35.44442009925842
1619091000.66222,-4.621979,35.460050106048584
1619091000.67784,6.616196,35.47567009925842
1619091000.69347,15.90555,35.491300106048584
1619091000.70909,24.24564,35.50692009925842
1619091000.72472,32.33009,35.522550106048584
1619091000.74034,40.442,35.53817009925842
1619091000.75597,48.53934,35.553800106048584
1619091000.7716,56.32829,35.569430112838745
1619091000.78722,63.34479,35.585050106048584
1619091000.80285,69.05096,35.600680112838745
1619091000.81847,72.9444,35.616300106048584
1619091000.8341,74.73306,35.631930112838745
1619091000.84972,74.4493,35.647550106048584
1619091000.86535,72.52936,35.663180112838745
1619091000.88098,69.73805,35.678810119628906
1619091000.8966,66.99417,35.694430112838745
1619091000.91223,65.12982,35.710060119628906
1619091000.92785,64.61324,35.725680112838745
1619091000.94348,65.41885,35.741310119628906
1619091000.9591,67.04015,35.756930112838745
1619091000.97473,68.63457,35.772560119628906
1619091000.99036,69.34462,35.78819012641907
1619091001.00598,68.55371,35.803810119628906
1619091001.02161,66.12854,35.81944012641907
1619091001.03723,62.3756,35.835060119628906
1619091001.05286,57.88416,35.85069012641907
1619091001.06848,53.28035,35.866310119628906
1619091001.08411,48.98076,35.88194012641907
1619091001.09974,45.12965,35.89757013320923
1619091001.11536,41.60297,35.91319012641907
1619091001.13099,38.18512,35.92882013320923
1619091001.14661,34.69839,35.94444012641907
1619091001.16224,31.093,35.96007013320923
1619091001.17786,27.48335,35.97569012641907
1619091001.19349,23.99998,35.99132013320923
1619091001.20912,20.71025,36.00695013999939
1619091001.22474,17.53944,36.02257013320923
1619091001.24037,14.29324,36.03820013999939
1619091001.25599,10.72552,36.05382013320923
1619091001.27162,6.693481,36.06945013999939
1619091001.28724,2.178116,36.08507013320923
1619091001.30287,-2.68045,36.10070013999939
1619091001.3185,-7.646179,36.11633014678955
1619091001.33412,-12.50673,36.13195013999939
1619091001.34975,-17.17714,36.14758014678955
1619091001.36537,-21.70134,36.16320013999939
1619091001.381,-26.28671,36.17883014678955
1619091001.39662,-31.18672,36.19445013999939
1619091001.41225,-36.60448,36.21008014678955
1619091001.42788,-42.56941,36.22571015357971
1619091001.4435,-48.91611,36.24133014678955
1619091001.45913,-55.25554,36.25696015357971
1619091001.47475,-61.13297,36.27258014678955
1619091001.49038,-66.2254,36.28821015357971
1619091001.506,-70.46562,36.30383014678955
1619091001.52163,-74.13719,36.31946015357971
1619091001.53726,-77.86035,36.33509016036987
1619091001.55288,-82.4187,36.35071015357971
1619091001.56851,-88.53404,36.36634016036987
1619091001.58413,-96.58548,36.38196015357971
1619091001.59976,-106.2598,36.39759016036987
1619091001.61538,-116.3621,36.41321015357971
1619091001.63101,-124.8972,36.42884016036987
1619091001.64664,-129.4408,36.444470167160034
1619091001.66226,-127.8494,36.46009016036987
1619091001.67789,-119.0054,36.475720167160034
1619091001.69351,-103.3219,36.49134016036987
1619091001.70914,-82.71946,36.506970167160034
1619091001.72476,-60.06169,36.52259016036987
1619091001.74039,-38.19109,36.538220167160034
1619091001.75602,-19.20317,36.553850173950195
1619091001.77164,-3.955139,36.569470167160034
1619091001.78727,7.809357,36.585100173950195
1619091001.80289,17.00896,36.600720167160034
1619091001.81852,24.73096,36.616350173950195
1619091001.83414,31.83704,36.631970167160034
1619091001.84977,38.77875,36.647600173950195
1619091001.8654,45.62032,36.663230180740356
1619091001.88102,52.08438,36.678850173950195
1619091001.89665,57.66664,36.694480180740356
1619091001.91227,61.87178,36.710100173950195
1619091001.9279,64.41306,36.725730180740356
1619091001.94352,65.34071,36.741350173950195
1619091001.95915,65.05086,36.756980180740356
1619091001.97478,64.14145,36.77261018753052
1619091001.9904,63.1541,36.788230180740356
1619091002.00603,62.44955,36.80386018753052
1619091002.02165,62.19955,36.819480180740356
1619091002.03728,62.37294,36.83511018753052
1619091002.0529,62.92314,36.850730180740356
1619091002.06853,63.71931,36.86636018753052
1619091002.08416,64.50504,36.88199019432068
1619091002.09978,64.91229,36.89761018753052
1619091002.11541,64.5468,36.91324019432068
1619091002.13103,63.10178,36.92886018753052
1619091002.14666,60.55965,36.94449019432068
1619091002.16228,57.22809,36.96011018753052
1619091002.17791,53.58234,36.97574019432068
1619091002.19354,50.15045,36.99137020111084
1619091002.20916,47.26256,37.00699019432068
1619091002.22479,44.94995,37.02262020111084
1619091002.24041,43.09951,37.03824019432068
1619091002.25604,41.47843,37.05387020111084
1619091002.27166,39.89325,37.06949019432068
1619091002.28729,38.21149,37.08512020111084
1619091002.30292,36.38791,37.100750207901
1619091002.31854,34.3765,37.11637020111084
1619091002.33417,32.16302,37.132000207901
1619091002.34979,29.72184,37.14762020111084
1619091002.36542,27.04256,37.163250207901
1619091002.38104,24.1992,37.17887020111084
1619091002.39667,21.32045,37.194500207901
1619091002.4123,18.52783,37.21013021469116
1619091002.42792,15.84578,37.225750207901
1619091002.44355,13.11433,37.24138021469116
1619091002.45917,10.04114,37.257000207901
1619091002.4748,6.340576,37.27263021469116
1619091002.49043,1.892647,37.28826022148132
1619091002.50605,-3.163773,37.30388021469116
1619091002.52168,-8.366875,37.31951022148132
1619091002.5373,-13.19994,37.33513021469116
1619091002.55293,-17.24439,37.35076022148132
1619091002.56855,-20.29452,37.36638021469116
1619091002.58418,-22.53736,37.38201022148132
1619091002.59981,-24.38621,37.397639989852905
1619091002.61543,-26.33658,37.41326022148132
1619091002.63106,-28.81702,37.428889989852905
1619091002.64668,-32.00963,37.44451022148132
1619091002.66231,-35.77458,37.460139989852905
1619091002.67793,-39.723,37.47576022148132
1619091002.69356,-43.33,37.491389989852905
1619091002.70919,-46.10886,37.507019996643066
1619091002.72481,-47.93195,37.522639989852905
1619091002.74044,-49.1318,37.538269996643066
1619091002.75606,-50.51628,37.553889989852905
1619091002.77169,-53.10336,37.569519996643066
1619091002.78731,-57.60589,37.585139989852905
1619091002.80294,-63.86929,37.600769996643066
1619091002.81857,-70.55096,37.61640000343323
1619091002.83419,-75.21842,37.632019996643066
1619091002.84982,-74.95757,37.64765000343323
1619091002.86544,-67.40623,37.663269996643066
1619091002.88107,-51.6265,37.67890000343323
1619091002.89669,-28.4928,37.694519996643066
1619091002.91232,-0.4283867,37.71015000343323
1619091002.92795,29.37309,37.72578001022339
1619091002.94357,57.96312,37.74140000343323
1619091002.9592,83.36885,37.75703001022339
1619091002.97482,105.0157,37.77265000343323
1619091002.99045,123.7108,37.78828001022339
1619091003.00607,141.2359,37.80390000343323
1619091003.0217,159.7679,37.81953001022339
1619091003.03733,181.0335,37.83516001701355
1619091003.05295,205.5375,37.85078001022339
1619091003.06858,232.1544,37.86641001701355
1619091003.0842,258.2472,37.88203001022339
1619091003.09983,280.4814,37.89766001701355
1619091003.11545,295.9613,37.91328001022339
1619091003.13108,303.2341,37.92891001701355
1619091003.14671,302.6993,37.94454002380371
1619091003.16233,296.3091,37.96016001701355
1619091003.17796,286.7053,37.97579002380371
1619091003.19358,276.3159,37.99141001701355
1619091003.20921,266.8254,38.00704002380371
1619091003.22483,259.0912,38.02266001701355
1619091003.24046,253.3349,38.03829002380371
1619091003.25609,249.4199,38.05392003059387
1619091003.27171,246.9662,38.06954002380371
1619091003.28734,245.3786,38.08517003059387
1619091003.30296,243.9553,38.10079002380371
1619091003.31859,241.9924,38.11642003059387
1619091003.33421,238.9655,38.13204002380371
1619091003.34984,234.6847,38.14767003059387
1619091003.36547,229.3362,38.16330003738403
1619091003.38109,223.3546,38.17892003059387
1619091003.39672,217.2595,38.19455003738403
1619091003.41234,211.4391,38.21017003059387
1619091003.42797,206.0344,38.22580003738403
1619091003.44359,200.9883,38.24142003059387
1619091003.45922,196.1441,38.25705003738403
1619091003.47485,191.2723,38.272680044174194
1619091003.49047,186.1282,38.28830003738403
1619091003.5061,180.3795,38.303930044174194
1619091003.52172,173.5363,38.31955003738403
1619091003.53735,165.0621,38.335180044174194
1619091003.55297,154.4678,38.35080003738403
1619091003.5686,141.5659,38.366430044174194
1619091003.58423,126.5873,38.382060050964355
1619091003.59985,110.1638,38.397680044174194
1619091003.61548,93.01544,38.413310050964355
1619091003.6311,75.58441,38.428930044174194
1619091003.64673,57.57239,38.444560050964355
1619091003.66235,37.86121,38.460180044174194
1619091003.67798,14.77222,38.475810050964355
1619091003.69361,-13.37732,38.49144005775452
1619091003.70923,-47.69397,38.507060050964355
1619091003.72486,-88.28394,38.52269005775452
1619091003.74048,-134.3788,38.538310050964355
1619091003.75611,-184.6865,38.55394005775452
1619091003.77173,-237.9763,38.569560050964355
1619091003.78736,-293.519,38.58519005775452
1619091003.80299,-351.1923,38.60082006454468
1619091003.81861,-411.2068,38.61644005775452
1619091003.83424,-473.8927,38.63207006454468
1619091003.84986,-539.6405,38.64769005775452
1619091003.86549,-608.6108,38.66332006454468
1619091003.88111,-680.1212,38.67894005775452
1619091003.89674,-751.6112,38.69457006454468
1619091003.91237,-817.9375,38.71020007133484
1619091003.92799,-871.6062,38.72582006454468
1619091003.94362,-904.5098,38.74145007133484
1619091003.95924,-910.6071,38.75707006454468
1619091003.97487,-888.3989,38.77270007133484
1619091003.99049,-841.8406,38.78832006454468
1619091004.00612,-778.9532,38.80395007133484
1619091004.02175,-708.9238,38.819580078125
1619091004.03737,-639.0535,38.83520007133484
1619091004.053,-573.0463,38.850830078125
1619091004.06862,-511.3629,38.86645007133484
1619091004.08425,-452.959,38.882080078125
1619091004.09987,-397.1432,38.89770007133484
1619091004.1155,-344.4364,38.913330078125
1619091004.13113,-296.2019,38.92896008491516
1619091004.14675,-253.5078,38.944580078125
1619091004.16238,-216.2516,38.96021008491516
1619091004.178,-183.1995,38.975830078125
1619091004.19363,-152.579,38.99146008491516
1619091004.20925,-123.0895,39.007080078125
1619091004.22488,-94.38086,39.02271008491516
1619091004.24051,-67.18103,39.03834009170532
1619091004.25613,-42.63538,39.05396008491516
1619091004.27176,-21.52466,39.06959009170532
1619091004.28738,-3.716309,39.08521008491516
1619091004.30301,11.78821,39.10084009170532
1619091004.31863,26.34534,39.11646008491516
1619091004.33426,40.99878,39.13209009170532
1619091004.34989,55.85156,39.14772009849548
1619091004.36551,70.06689,39.16334009170532
1619091004.38114,82.19482,39.17897009849548
1619091004.39676,90.95911,39.19459009170532
1619091004.41239,95.7428,39.21022009849548
1619091004.42801,96.90234,39.22584009170532
1619091004.44364,95.57715,39.24147009849548
1619091004.45927,93.25281,39.257100105285645
1619091004.47489,91.21985,39.27272009849548
1619091004.49052,90.1438,39.288350105285645
1619091004.50614,89.93433,39.30397009849548
1619091004.52177,89.92017,39.319600105285645
1619091004.53739,89.18713,39.33522009849548
1619091004.55302,86.97717,39.350850105285645
1619091004.56865,83.05212,39.366480112075806
1619091004.58427,77.75708,39.382100105285645
1619091004.5999,71.85468,39.397730112075806
1619091004.61552,66.20099,39.413350105285645
1619091004.63115,61.354,39.428980112075806
1619091004.64678,57.31964,39.44461011886597
1619091004.6624,53.53754,39.460230112075806
1619091004.67803,49.06018,39.47586011886597
1619091004.69365,42.95685,39.491480112075806
1619091004.70928,34.66516,39.50711011886597
1619091004.7249,24.21539,39.522730112075806
1619091004.74053,12.21735,39.53836011886597
1619091004.75616,-0.3442383,39.55399012565613
1619091004.77178,-12.46277,39.56961011886597
1619091004.78741,-23.44525,39.58524012565613
1619091004.80303,-33.12549,39.60086011886597
1619091004.81866,-41.91309,39.61649012565613
1619091004.83428,-50.65112,39.63211011886597
1619091004.84991,-60.46039,39.64774012565613
1619091004.86554,-72.38135,39.66337013244629
1619091004.88116,-86.95605,39.67899012565613
1619091004.89679,-103.7001,39.69462013244629
1619091004.91241,-120.8337,39.71024012565613
1619091004.92804,-135.3417,39.72587013244629
1619091004.94366,-143.6725,39.74149012565613
1619091004.95929,-142.769,39.75712013244629
1619091004.97492,-131.2158,39.77275013923645
1619091004.99054,-109.7926,39.78837013244629
1619091005.00617,-81.33005,39.80400013923645
1619091005.02179,-49.85159,39.81962013244629
1619091005.03742,-19.26883,39.83525013923645
1619091005.05304,7.575775,39.85087013244629
1619091005.06867,29.52228,39.86650013923645
1619091005.0843,46.89508,39.88213014602661
1619091005.09992,61.01047,39.89775013923645
1619091005.11555,73.40411,39.91338014602661
1619091005.13117,85.31766,39.92900013923645
1619091005.1468,97.35385,39.94463014602661
1619091005.16242,109.4848,39.96025013923645
1619091005.17805,121.2247,39.97588014602661
1619091005.19368,131.8715,39.99151015281677
1619091005.2093,140.8156,40.00713014602661
1619091005.22493,147.6345,40.02276015281677
1619091005.24055,152.1888,40.03838014602661
1619091005.25618,154.5663,40.05401015281677
1619091005.2718,155.1297,40.06963014602661
1619091005.28743,154.4648,40.08526015281677
1619091005.30306,153.3749,40.100890159606934
1619091005.31868,152.6795,40.11651015281677
1619091005.33431,153.012,40.132140159606934
1619091005.34993,154.5849,40.14776015281677
1619091005.36556,157.0697,40.163390159606934
1619091005.38118,159.7396,40.17901015281677
1619091005.39681,161.6767,40.194640159606934
1619091005.41244,162.1135,40.210270166397095
1619091005.42806,160.6048,40.225890159606934
1619091005.44369,157.1099,40.241520166397095
1619091005.45931,152.0643,40.257140159606934
1619091005.47494,146.1709,40.272770166397095
1619091005.49056,140.2729,40.288390159606934
1619091005.50619,135.0439,40.304020166397095
1619091005.52182,130.8439,40.319650173187256
1619091005.53744,127.4842,40.335270166397095
1619091005.55307,124.3766,40.350900173187256
1619091005.56869,120.7691,40.366520166397095
1619091005.58432,116.093,40.382150173187256
1619091005.59994,110.3146,40.397770166397095
1619091005.61557,103.8748,40.413400173187256
1619091005.6312,97.51697,40.42903017997742
1619091005.64682,91.82608,40.444650173187256
1619091005.66245,87.03891,40.46028017997742
1619091005.67807,82.87668,40.475900173187256
1619091005.6937,78.7627,40.49153017997742
1619091005.70932,74.08347,40.507150173187256
1619091005.72495,68.43768,40.52278017997742
1619091005.74058,61.79837,40.53841018676758
1619091005.7562,54.42667,40.55403017997742
1619091005.77183,46.72223,40.56966018676758
1619091005.78745,38.98648,40.58528017997742
1619091005.80308,31.31909,40.60091018676758
1619091005.8187,23.47714,40.61653017997742
1619091005.83433,15.03275,40.63216018676758
1619091005.84996,5.57901,40.64779019355774
1619091005.86558,-5.015442,40.66341018676758
1619091005.88121,-16.44409,40.67904019355774
1619091005.89683,-28.04352,40.69466018676758
1619091005.91246,-38.96973,40.71029019355774
1619091005.92808,-48.53909,40.72591018676758
1619091005.94371,-56.49863,40.74154019355774
1619091005.95934,-63.1597,40.7571702003479
1619091005.97496,-69.36496,40.77279019355774
1619091005.99059,-76.28485,40.7884202003479
1619091006.00621,-85.08551,40.80404019355774
1619091006.02184,-96.43729,40.8196702003479
1619091006.03746,-110.1655,40.83529019355774
1619091006.05309,-124.7856,40.8509202003479
1619091006.06872,-137.6064,40.86655020713806
1619091006.08434,-145.2804,40.8821702003479
1619091006.09997,-144.7587,40.89780020713806
1619091006.11559,-134.3511,40.9134202003479
1619091006.13122,-114.4537,40.92905020713806
1619091006.14684,-87.57764,40.9446702003479
1619091006.16247,-57.47614,40.96030020713806
1619091006.1781,-28.0741,40.97593021392822
1619091006.19372,-2.249634,40.99155020713806
1619091006.20935,18.65875,41.00718021392822
1619091006.22497,34.81659,41.02280020713806
1619091006.2406,47.33978,41.03843021392822
1619091006.25622,57.60431,41.05405020713806
1619091006.27185,66.73425,41.06968021392822
1619091006.28748,75.33838,41.085310220718384
1619091006.3031,83.53699,41.10093021392822
1619091006.31873,91.07111,41.116560220718384
1619091006.33435,97.56372,41.13218021392822
1619091006.34998,102.5987,41.147810220718384
1619091006.3656,105.9083,41.16343021392822
1619091006.38123,107.4809,41.179060220718384
1619091006.39686,107.539,41.194689989089966
1619091006.41248,106.5214,41.210310220718384
1619091006.42811,104.9678,41.225939989089966
1619091006.44373,103.4739,41.241560220718384
1619091006.45936,102.5574,41.257189989089966
1619091006.47498,102.5776,41.272810220718384
1619091006.49061,103.5839,41.288439989089966
1619091006.50624,105.2084,41.30406999588013
1619091006.52186,106.7604,41.319689989089966
1619091006.53749,107.3597,41.33531999588013
1619091006.55311,106.2951,41.350939989089966
1619091006.56874,103.2607,41.36656999588013
1619091006.58436,98.54541,41.382189989089966
1619091006.59999,92.84747,41.39781999588013
1619091006.61562,87.05249,41.41345000267029
1619091006.63124,81.86536,41.42906999588013
1619091006.64687,77.56677,41.44470000267029
1619091006.66249,74.04327,41.46031999588013
1619091006.67812,70.8501,41.47595000267029
1619091006.69374,67.47296,41.49156999588013
1619091006.70937,63.53717,41.50720000267029
1619091006.725,58.9317,41.52283000946045
1619091006.74062,53.84229,41.53845000267029
1619091006.75625,48.68671,41.55408000946045
1619091006.77187,43.96252,41.56970000267029
1619091006.7875,40.06244,41.58533000946045
1619091006.80312,37.11536,41.60095000267029
1619091006.81875,34.83112,41.61658000946045
1619091006.83438,32.60413,41.63221001625061
1619091006.85,29.71545,41.64783000946045
1619091006.86563,25.61554,41.66346001625061
1619091006.88125,20.16656,41.67908000946045
1619091006.89688,13.67725,41.69471001625061
1619091006.9125,6.78418,41.71033000946045
1619091006.92813,0.1466064,41.72596001625061
1619091006.94376,-5.833435,41.74159002304077
1619091006.95938,-11.16528,41.75721001625061
1619091006.97501,-16.22369,41.77284002304077
1619091006.99063,-21.54034,41.78846001625061
1619091007.00626,-27.51984,41.80409002304077
1619091007.02188,-34.25031,41.81971001625061
1619091007.03751,-41.47455,41.83534002304077
1619091007.05314,-48.69165,41.85097002983093
1619091007.06876,-55.41949,41.86659002304077
1619091007.08439,-61.39984,41.88222002983093
1619091007.10001,-66.76349,41.89784002304077
1619091007.11564,-72.04303,41.91347002983093
1619091007.13126,-78.08313,41.92909002304077
1619091007.14689,-85.80438,41.94472002983093
1619091007.16252,-95.80121,41.960350036621094
1619091007.17814,-107.8772,41.97597002983093
1619091007.19377,-120.6786,41.991600036621094
1619091007.20939,-131.7211,42.00722002983093
1619091007.22502,-137.8655,42.022850036621094
1619091007.24064,-136.2864,42.03847002983093
1619091007.25627,-125.4686,42.054100036621094
1619091007.2719,-105.9327,42.069730043411255
1619091007.28752,-80.16241,42.085350036621094
1619091007.30315,-51.79279,42.100980043411255
1619091007.31877,-24.48816,42.116600036621094
1619091007.3344,-0.8712158,42.132230043411255
1619091007.35003,17.89703,42.147860050201416
1619091007.36565,32.00818,42.163480043411255
1619091007.38128,42.43805,42.179110050201416
1619091007.3969,50.35071,42.194730043411255
1619091007.41253,56.66089,42.210360050201416
1619091007.42815,61.9281,42.225980043411255
1619091007.44378,66.38263,42.241610050201416
1619091007.45941,70.03906,42.25724005699158
1619091007.47503,72.85022,42.272860050201416
1619091007.49066,74.73157,42.28849005699158
1619091007.50628,75.68909,42.304110050201416
1619091007.52191,75.8371,42.31974005699158
1619091007.53753,75.40668,42.335360050201416
1619091007.55316,74.66492,42.35099005699158
1619091007.56879,73.8877,42.36662006378174
1619091007.58441,73.29675,42.38224005699158
1619091007.60004,73.04504,42.39787006378174
1619091007.61566,73.19922,42.41349005699158
1619091007.63129,73.71576,42.42912006378174
1619091007.64691,74.43634,42.44474005699158
1619091007.66254,74.99554,42.46037006378174
1619091007.67817,74.95697,42.4760000705719
1619091007.69379,73.8819,42.49162006378174
1619091007.70942,71.50043,42.5072500705719
1619091007.72504,67.82086,42.52287006378174
1619091007.74067,63.10101,42.5385000705719
1619091007.75629,57.81934,42.55412006378174
1619091007.77192,52.49243,42.5697500705719
1619091007.78755,47.54559,42.58538007736206
1619091007.80317,43.18262,42.6010000705719
1619091007.8188,39.31958,42.61663007736206
1619091007.83442,35.62695,42.6322500705719
1619091007.85005,31.63464,42.64788007736206
1619091007.86567,26.96838,42.6635000705719
1619091007.8813,21.46478,42.67913007736206
1619091007.89693,15.32605,42.69476008415222
1619091007.91255,9.054016,42.71038007736206
1619091007.92818,3.266418,42.72601008415222
1619091007.9438,-1.619507,42.74163007736206
1619091007.95943,-5.615662,42.75726008415222
1619091007.97505,-9.166382,42.77288007736206
1619091007.99068,-13.06091,42.78851008415222
1619091008.00631,-18.03662,42.80414009094238
1619091008.02193,-24.44727,42.81976008415222
1619091008.03756,-32.03589,42.83539009094238
1619091008.05318,-40.05316,42.85101008415222
1619091008.06881,-47.54022,42.86664009094238
1619091008.08443,-53.77148,42.88226008415222
1619091008.10006,-58.5575,42.89789009094238
1619091008.11569,-62.28943,42.913520097732544
1619091008.13131,-65.80042,42.92914009094238
1619091008.14694,-70.02966,42.944770097732544
1619091008.16256,-75.69501,42.96039009094238
1619091008.17819,-83.0849,42.976020097732544
1619091008.19381,-91.86072,42.99164009094238
1619091008.20944,-100.9404,43.007270097732544
1619091008.22507,-108.4816,43.022900104522705
1619091008.24069,-112.0684,43.038520097732544
1619091008.25632,-109.2443,43.054150104522705
1619091008.27194,-98.25995,43.069770097732544
1619091008.28757,-78.82422,43.085400104522705
1619091008.30319,-52.44452,43.101020097732544
1619091008.31882,-22.11035,43.116650104522705
1619091008.33445,8.57196,43.132280111312866
1619091008.35007,36.49435,43.147900104522705
1619091008.3657,59.90549,43.163530111312866
1619091008.38132,78.62531,43.179150104522705
1619091008.39695,93.78055,43.194780111312866
1619091008.41257,107.0089,43.210400104522705
1619091008.4282,119.7871,43.226030111312866
1619091008.44383,132.9035,43.24166011810303
1619091008.45945,146.3818,43.257280111312866
1619091008.47508,159.6558,43.27291011810303
1619091008.4907,172.0333,43.288530111312866
1619091008.50633,183.0538,43.30416011810303
1619091008.52195,192.8524,43.319780111312866
1619091008.53758,202.1891,43.33541011810303
1619091008.55321,212.1423,43.35104012489319
1619091008.56883,223.7706,43.36666011810303
1619091008.58446,237.6805,43.38229012489319
1619091008.60008,253.849,43.39791011810303
1619091008.61571,271.5963,43.41354012489319
1619091008.63133,289.72,43.42916011810303
1619091008.64696,306.5676,43.44479012489319
1619091008.66259,320.165,43.46042013168335
1619091008.67821,328.4499,43.47604012489319
1619091008.69384,329.6255,43.49167013168335
1619091008.70946,322.8498,43.50729012489319
1619091008.72509,308.7519,43.52292013168335
1619091008.74071,289.6235,43.53854012489319
1619091008.75634,268.8803,43.55417013168335
1619091008.77197,249.9203,43.56980013847351
1619091008.78759,234.7823,43.58542013168335
1619091008.80322,223.3858,43.60105013847351
1619091008.81884,213.6157,43.61667013168335
1619091008.83447,202.4418,43.63230013847351
1619091008.85009,187.416,43.64792013168335
1619091008.86572,167.8132,43.66355013847351
1619091008.88135,144.8185,43.67918014526367
1619091008.89697,120.7806,43.69480013847351
1619091008.9126,98.00352,43.71043014526367
1619091008.92822,77.73692,43.72605013847351
1619091008.94385,59.89536,43.74168014526367
1619091008.95947,43.66246,43.75730013847351
1619091008.9751,28.33406,43.77293014526367
1619091008.99073,14.03409,43.78856015205383
1619091009.00635,1.63382,43.80418014526367
1619091009.02198,-7.872589,43.81981015205383
1619091009.0376,-14.24164,43.83543014526367
1619091009.05323,-18.58035,43.85106015205383
1619091009.06885,-23.15466,43.86668014526367
1619091009.08448,-30.63156,43.88231015205383
1619091009.10011,-42.9859,43.897940158843994
1619091009.11573,-60.6416,43.91356015205383
1619091009.13136,-82.27753,43.929190158843994
1619091009.14698,-105.5059,43.94481015205383
1619091009.16261,-127.8629,43.960440158843994
1619091009.17823,-147.9398,43.97606015205383
1619091009.19386,-166.0015,43.991690158843994
1619091009.20949,-183.7902,44.007320165634155
1619091009.22511,-203.7463,44.022940158843994
1619091009.24074,-228.264,44.038570165634155
1619091009.25636,-258.9797,44.054190158843994
1619091009.27199,-296.2527,44.069820165634155
1619091009.28761,-338.8057,44.085440158843994
1619091009.30324,-383.3032,44.101070165634155
1619091009.31887,-424.5042,44.116700172424316
1619091009.33449,-456.1733,44.132320165634155
1619091009.35012,-472.8606,44.147950172424316
1619091009.36574,-471.9218,44.163570165634155
1619091009.38137,-454.6747,44.179200172424316
1619091009.39699,-425.9184,44.194820165634155
1619091009.41262,-391.7391,44.210450172424316
1619091009.42825,-356.6593,44.22608017921448
1619091009.44387,-321.8622,44.241700172424316
1619091009.4595,-285.1337,44.25733017921448
1619091009.47512,-242.8702,44.272950172424316
1619091009.49075,-192.6438,44.28858017921448
1619091009.50638,-135.1696,44.30421018600464
1619091009.522,-74.47375,44.31983017921448
1619091009.53763,-16.59656,44.33546018600464
1619091009.55325,32.55493,44.35108017921448
1619091009.56888,69.21521,44.36671018600464
1619091009.5845,92.89331,44.38233017921448
1619091009.60013,106.46,44.39796018600464
1619091009.61576,115.1453,44.4135901927948
1619091009.63138,124.8477,44.42921018600464
1619091009.64701,140.0273,44.4448401927948
1619091009.66263,162.3579,44.46046018600464
1619091009.67826,190.4154,44.4760901927948
1619091009.69388,220.6239,44.49171018600464
1619091009.70951,248.99,44.5073401927948
1619091009.72514,272.691,44.52297019958496
1619091009.74076,290.6959,44.5385901927948
1619091009.75639,303.1301,44.55422019958496
1619091009.77201,310.1873,44.5698401927948
1619091009.78764,311.2649,44.58547019958496
1619091009.80326,305.0721,44.6010901927948
1619091009.81889,290.6327,44.61672019958496
1619091009.83452,268.4045,44.63235020637512
1619091009.85014,240.6689,44.64797019958496
1619091009.86577,210.7308,44.66360020637512
1619091009.88139,181.6401,44.67922019958496
1619091009.89702,154.7732,44.69485020637512
1619091009.91264,129.199,44.71047019958496
1619091009.92827,102.1786,44.72610020637512
1619091009.9439,70.20471,44.74173021316528
1619091009.95952,30.22461,44.75735020637512
1619091009.97515,-19.74072,44.77298021316528
1619091009.99077,-80.27319,44.78860020637512
1619091010.0064,-150.3232,44.80423021316528
1619091010.02202,-226.8086,44.81985020637512
1619091010.03765,-304.5422,44.83548021316528
1619091010.05328,-376.7813,44.851110219955444
1619091010.0689,-436.7698,44.86673021316528
1619091010.08453,-479.8131,44.882360219955444
1619091010.10015,-504.879,44.89798021316528
1619091010.11578,-514.8622,44.913610219955444
1619091010.1314,-515.2511,44.92923021316528
1619091010.14703,-511.7664,44.944860219955444
1619091010.16266,-508.2229,44.960489988327026
1619091010.17828,-505.7174,44.976110219955444
1619091010.19391,-503.2501,44.991739988327026
1619091010.20953,-499.209,45.007360219955444
1619091010.22516,-492.7311,45.022989988327026
1619091010.24078,-484.0603,45.038610219955444
1619091010.25641,-474.1815,45.054239988327026
1619091010.27204,-463.9961,45.06986999511719
1619091010.28766,-453.8837,45.085489988327026
1619091010.30329,-443.8647,45.10111999511719
1619091010.31891,-434.1172,45.116739988327026
1619091010.33454,-425.1694,45.13236999511719
1619091010.35016,-417.6147,45.147989988327026
1619091010.36579,-411.5652,45.16361999511719
1619091010.38142,-405.9692,45.17925000190735
1619091010.39704,-398.4535,45.19486999511719
1619091010.41267,-385.9326,45.21050000190735
1619091010.42829,-365.6979,45.22611999511719
1619091010.44392,-336.538,45.24175000190735
1619091010.45954,-299.3533,45.25736999511719
1619091010.47517,-256.8113,45.27300000190735
1619091010.4908,-212.3641,45.28863000869751
1619091010.50642,-169.1619,45.30425000190735
1619091010.52205,-129.1777,45.31988000869751
1619091010.53767,-93.05444,45.33550000190735
1619091010.5533,-60.40479,45.35113000869751
1619091010.56892,-30.41235,45.36675000190735
1619091010.58455,-2.306396,45.38238000869751
1619091010.60018,24.27673,45.39801001548767
1619091010.6158,49.24414,45.41363000869751
1619091010.63143,72.09827,45.42926001548767
1619091010.64705,92.0769,45.44488000869751
1619091010.66268,108.558,45.46051001548767
1619091010.6783,121.2617,45.47613000869751
1619091010.69393,130.4783,45.49176001548767
1619091010.70956,136.9731,45.50739002227783
1619091010.72518,141.7663,45.52301001548767
1619091010.74081,145.8131,45.53864002227783
1619091010.75643,149.7982,45.55426001548767
1619091010.77206,154.0823,45.56989002227783
1619091010.78768,158.724,45.58551001548767
1619091010.80331,163.5739,45.60114002227783
1619091010.81894,168.3054,45.61677002906799
1619091010.83456,172.4476,45.63239002227783
1619091010.85019,175.4714,45.64802002906799
1619091010.86581,176.9144,45.66364002227783
1619091010.88144,176.5642,45.67927002906799
1619091010.89706,174.5499,45.69489002227783
1619091010.91269,171.3127,45.71052002906799
1619091010.92832,167.407,45.726150035858154
1619091010.94394,163.3267,45.74177002906799
1619091010.95957,159.3691,45.757400035858154
1619091010.97519,155.5546,45.77302002906799
1619091010.99082,151.7539,45.788650035858154
1619091011.00644,147.7698,45.80427002906799
1619091011.02207,143.4518,45.819900035858154
1619091011.0377,138.7419,45.835530042648315
1619091011.05332,133.6801,45.851150035858154
1619091011.06895,128.3217,45.866780042648315
1619091011.08457,122.7746,45.882400035858154
1619091011.1002,117.1455,45.898030042648315
1619091011.11582,111.557,45.913650035858154
1619091011.13145,106.1262,45.929280042648315
1619091011.14708,100.8492,45.94491004943848
1619091011.1627,95.59543,45.960530042648315
1619091011.17833,90.0787,45.97616004943848
1619091011.19395,84.02826,45.991780042648315
1619091011.20958,77.35184,46.00741004943848
1619091011.2252,70.23767,46.023030042648315
1619091011.24083,63.12756,46.03866004943848
1619091011.25646,56.44547,46.05429005622864
1619091011.27208,50.39195,46.06991004943848
1619091011.28771,44.70853,46.08554005622864
1619091011.30333,38.78591,46.10116004943848
1619091011.31896,31.90464,46.11679005622864
1619091011.33458,23.61091,46.13241004943848
1619091011.35021,13.95807,46.14804005622864
1619091011.36584,3.474495,46.1636700630188
1619091011.38146,-7.04735,46.17929005622864
1619091011.39709,-16.8636,46.1949200630188
1619091011.41271,-25.58808,46.21054005622864
1619091011.42834,-33.29931,46.2261700630188
1619091011.44396,-40.58961,46.24179005622864
1619091011.45959,-48.45079,46.2574200630188
1619091011.47522,-58.00804,46.27305006980896
1619091011.49084,-70.10409,46.2886700630188
1619091011.50647,-84.72546,46.30430006980896
1619091011.52209,-100.5314,46.3199200630188
1619091011.53772,-114.7843,46.33555006980896
1619091011.55334,-123.856,46.3511700630188
1619091011.56897,-124.3465,46.36680006980896
1619091011.5846,-114.2363,46.38243007659912
