,index,PPG_Raw,PPG_Clean,PPG_Rate,PPG_Peaks,EDA_Raw,EDA_Clean,EDA_Tonic,EDA_Phasic,SCR_Onsets,SCR_Peaks,SCR_Height,SCR_Amplitude,SCR_RiseTime,SCR_Recovery,SCR_RecoveryTime,Index,Label,Condition,id
0,0.0,23.83328,10.125869279033301,73.34415336373839,0,0.12800138220956842,0.1279775552517073,0.15919037305237146,-0.03121281780311879,0,0,0,0,0,0,0,396,2,zmatek,1
1,0.015873015873015872,22.9509,8.673834685740257,73.04083394799923,0,0.12775888439467284,0.12776071139406592,0.15919792395290167,-0.031437212561323126,0,0,0,0,0,0,0,397,2,zmatek,1
2,0.031746031746031744,21.40231,6.694460385158409,72.72198536644125,0,0.12763856103295707,0.12766926475785528,0.15920548555401343,-0.031536220798678474,0,0,0,0,0,0,0,398,2,zmatek,1
3,0.047619047619047616,19.20557,4.185751186688875,72.38891716719903,0,0.127646383297508,0.1277058894613191,0.15921305810861783,-0.03150716864985213,0,0,0,0,0,0,0,399,2,zmatek,1
4,0.06349206349206349,16.57117,1.239726237860452,72.04291997504606,0,0.12778832236141247,0.12787183679119174,0.15922064185135285,-0.03134880506274775,0,0,0,0,0,0,0,400,2,zmatek,1
5,0.07936507936507936,13.73312,0.0,71.68526137939129,0,0.12807034939775747,0.12816677872598334,0.15922823699860064,-0.031061458275237392,0,0,0,0,0,0,0,401,2,zmatek,1
6,0.09523809523809523,10.78229,0.0,71.31718231500729,0,0.12849573642523066,0.12858870062295033,0.15923584374857938,-0.030647143128282785,0,0,0,0,0,0,0,402,2,zmatek,1
7,0.1111111111111111,7.652252,0.0,70.93989392521719,0,0.1290561319581078,0.12913385340578704,0.15924346228150954,-0.030109608878410084,0,0,0,0,0,0,0,403,2,zmatek,1
8,0.12698412698412698,4.193909,0.0,70.55457489266654,0,0.12974005632250712,0.12979677120421487,0.15925109275985327,-0.02945432155835996,0,0,0,0,0,0,0,404,2,zmatek,1
9,0.14285714285714285,0.2844849,0.0,70.16236921897618,0,0.13053602980130055,0.13057035542468243,0.159258735328625,-0.028688379906698345,0,0,0,0,0,0,0,405,2,zmatek,1
10,0.15873015873015872,-4.055481,0.0,69.76438443148635,0,0.13143257267735967,0.1314460213132402,0.15926639011576982,-0.02782036880531974,0,0,0,0,0,0,0,406,2,zmatek,1
11,0.1746031746031746,-8.677399,0.0,69.36169019291708,0,0.1324182052335565,0.13241389877857296,0.15927405723260565,-0.02686015845685738,0,0,0,0,0,0,0,407,2,zmatek,1
12,0.19047619047619047,-13.3259,0.0,68.95531728803954,0,0.1334814477527628,0.13346307595528242,0.15928173677432447,-0.025818660821901443,0,0,0,0,0,0,0,408,2,zmatek,1
13,0.20634920634920634,-17.60217,0.0,68.54625696031547,0,0.1346108205178503,0.13458187186570278,0.15928942882054656,-0.024707556957738023,0,0,0,0,0,0,0,409,2,zmatek,1
14,0.2222222222222222,-21.2373,0.0,68.13546057086114,0,0.13579484381169096,0.13575812356749342,0.15929713343592186,-0.023539009871357718,0,0,0,0,0,0,0,410,2,zmatek,1
15,0.23809523809523808,-24.20416,0.0,67.72383955196115,0,0.13702203791715645,0.1369794732285148,0.15930485067077155,-0.022325377445221277,0,0,0,0,0,0,0,411,2,zmatek,1
16,0.25396825396825395,-26.75369,0.0,67.31226562763638,0,0.13828092311711868,0.1382336414744625,0.15931258056176303,-0.021078939090300505,0,0,0,0,0,0,0,412,2,zmatek,1
17,0.2698412698412698,-29.35855,0.0,66.9015712743947,0,0.1395600196944494,0.1395086749279946,0.15932032313261094,-0.019811648207651834,0,0,0,0,0,0,0,413,2,zmatek,1
18,0.2857142857142857,-32.49738,0.0,66.49255039620739,0,0.14084784793202051,0.14079315794429825,0.1593280783947973,-0.018534920453570285,0,0,0,0,0,0,0,414,2,zmatek,1
19,0.30158730158730157,-36.50729,0.0,66.0859591889004,0,0.14213292811270378,0.14207638102741751,0.1593358463483042,-0.017259465323993806,0,0,0,0,0,0,0,415,2,zmatek,1
20,0.31746031746031744,-41.42062,0.0,65.68251717048025,0,0.1434037805193709,0.14334846119778935,0.15934362698235185,-0.015995165787705625,0,0,0,0,0,0,0,416,2,zmatek,1
21,0.3333333333333333,-46.80084,0.0,65.28290835537966,0,0.14464892543489388,0.14460041260375997,0.1593514202761362,-0.014751007675555504,0,0,0,0,0,0,0,417,2,zmatek,1
22,0.3492063492063492,-51.29327,0.0,64.88778255217281,0,0.14585805336297566,0.14582416884427524,0.1593592261995605,-0.0135350573585008,0,0,0,0,0,0,0,418,2,zmatek,1
23,0.36507936507936506,-53.34982,0.0,64.49775676593204,0,0.1470265561213384,0.14701256166274249,0.1593670447139553,-0.012354483054464741,0,0,0,0,0,0,0,419,2,zmatek,1
24,0.38095238095238093,-51.73495,0.0,64.11341668805298,0,0.1481515592450653,0.1481592636720329,0.15937487577278234,-0.011215612104037891,0,0,0,0,0,0,0,420,2,zmatek,1
25,0.3968253968253968,-46.01337,0.0,63.73531825803179,0,0.1492301886736508,0.14925870529403906,0.15938271932231815,-0.010124014031604234,0,0,0,0,0,0,0,421,2,zmatek,1
26,0.4126984126984127,-36.73376,0.0,63.36398928331968,0,0.15025957034658938,0.15030597784074445,0.15939057530231365,-0.009084597464931255,0,0,0,0,0,0,0,422,2,zmatek,1
27,0.42857142857142855,-25.15494,0.0,62.99993110498602,0,0.15123683020337533,0.15129673538421942,0.15939844364662664,-0.008101708265806355,0,0,0,0,0,0,0,423,2,zmatek,1
28,0.4444444444444444,-12.90378,0.0,62.64362029848052,0,0.1521590941835033,0.15222710763937844,0.1594063242838239,-0.007179216647881856,0,0,0,0,0,0,0,424,2,zmatek,1
29,0.4603174603174603,-1.452942,0.0,62.2955104002867,0,0.15302348822646758,0.15309363453469416,0.15941421713775075,-0.006320582606530407,0,0,0,0,0,0,0,425,2,zmatek,1
30,0.47619047619047616,8.243988,0.0,61.95603365269717,0,0.1538271382717626,0.15389323061406765,0.15942212212806572,-0.00552889151750942,0,0,0,0,0,0,0,426,2,zmatek,1
31,0.49206349206349204,16.79565,0.0,61.62560276031154,0,0.15456717025888292,0.1546231841323068,0.15943003917073806,-0.0048068550419803745,0,0,0,0,0,0,0,427,2,zmatek,1
32,0.5079365079365079,25.14255,0.739739726073939,61.304612653158706,0,0.15524071012732288,0.1552811919753016,0.15943796817850675,-0.004156776206792211,0,0,0,0,0,0,0,428,2,zmatek,1
33,0.5238095238095237,33.87766,9.459523658843008,60.993442252578554,0,0.1558448838165769,0.15586542768933384,0.15944590906129902,-0.003580481375590332,0,0,0,0,0,0,0,429,2,zmatek,1
34,0.5396825396825397,42.80429,17.838717105594284,60.69245623716415,0,0.15637681726613947,0.15637463629006387,0.15945386172660722,-0.003079225440206747,0,0,0,0,0,0,0,430,2,zmatek,1
35,0.5555555555555556,51.05795,25.40279865164577,60.40200680717009,0,0.1568336364155051,0.15680824647686623,0.1594618260798231,-0.0026535796066586375,0,0,0,0,0,0,0,431,2,zmatek,1
36,0.5714285714285714,57.68713,31.494110954194138,60.12243544684065,0,0.15721246720416804,0.15716648870040406,0.15946980202452857,-0.002303313327864864,0,0,0,0,0,0,0,432,2,zmatek,1
37,0.5873015873015872,62.03574,35.62916475553719,59.8540746851083,0,0.15751043557162286,0.15745050645035563,0.1594777894627431,-0.002027283016166594,0,0,0,0,0,0,0,433,2,zmatek,1
38,0.6031746031746031,63.905,37.819163107986306,59.59724985606779,0,0.15772596967191554,0.15766244827242284,0.15948578829512727,-0.0018233400265225477,0,0,0,0,0,0,0,434,2,zmatek,1
39,0.6190476190476191,63.58139,38.68692687165578,59.3522808615514,0,0.15786468358565753,0.15780552937498957,0.1594937984211438,-0.0016882690500114757,0,0,0,0,0,0,0,435,2,zmatek,1
40,0.6349206349206349,63.04947,39.31232916001962,59.11948393902574,0,0.15793465658324823,0.15788405406621617,0.15950181973917676,-0.0016177656768571226,0,0,0,0,0,0,0,436,2,zmatek,1
41,0.6507936507936507,64.12891,40.876810362025964,58.89917343891019,0,0.15794397014427727,0.15790339334167341,0.15950985214661123,-0.0016064588088738063,0,0,0,0,0,0,0,437,2,zmatek,1
42,0.6666666666666666,67.74542,44.28140698833354,58.6916636162936,0,0.15790070574833417,0.15786991531343583,0.15951789553987591,-0.0016479802304157692,0,0,0,0,0,0,0,438,2,zmatek,1
43,0.6825396825396826,73.74496,49.91322235073595,58.49727044290895,0,0.1578129448750085,0.1577908694550279,0.15952594981445153,-0.0017350803634391758,0,0,0,0,0,0,0,439,2,zmatek,1
44,0.6984126984126984,81.35684,57.63346486787845,58.31631344612916,0,0.15768876900388984,0.15767422856305727,0.1595340148648487,-0.0018597863058469834,0,0,0,0,0,0,0,440,2,zmatek,1
45,0.7142857142857142,89.99265,66.93483127758029,58.14911758268665,0,0.15753625961456771,0.1575284947660076,0.1595420905845597,-0.002013595822647894,0,0,0,0,0,0,0,441,2,zmatek,1
46,0.7301587301587301,99.36044,77.15351446285864,57.99601515580559,0,0.15736349818663176,0.157362477806496,0.15955017686598869,-0.002187699063628934,0,0,0,0,0,0,0,442,2,zmatek,1
47,0.746031746031746,109.1268,87.64403955570839,57.8573477854896,0,0.15717856619967155,0.15718505520701567,0.15955827360036473,-0.0023732183975259035,0,0,0,0,0,0,0,443,2,zmatek,1
48,0.7619047619047619,118.5355,97.8890407042394,57.73346844284587,0,0.15698954513327654,0.15700492484044754,0.15956638067764342,-0.002561455841413512,0,0,0,0,0,0,0,444,2,zmatek,1
49,0.7777777777777777,128.0641,107.56361535176303,57.62474356056806,0,0.15680451646703641,0.15683036089295269,0.15957449798640164,-0.002744137097707499,0,0,0,0,0,0,0,445,2,zmatek,1
50,0.7936507936507936,137.5731,116.57549411704707,57.53155523307148,0,0.15663156168054065,0.15666898422621617,0.1595826254137306,-0.002913641191814055,0,0,0,0,0,0,0,446,2,zmatek,1
51,0.8095238095238095,146.2504,125.0552629598987,57.454303521296914,0,0.15647876225337892,0.15652755768320886,0.15959076284513213,-0.0030632051662641403,0,0,0,0,0,0,0,447,2,zmatek,1
52,0.8253968253968254,152.9538,133.20629311960332,57.39340887890653,0,0.15635419966514075,0.15641181587887504,0.15959891016442196,-0.003187094289929259,0,0,0,0,0,0,0,448,2,zmatek,1
53,0.8412698412698412,157.0254,140.92362185283193,57.349314718519686,0,0.15626595539541566,0.15632633741863708,0.15960706725364485,-0.0032807298394318,0,0,0,0,0,0,0,449,2,zmatek,1
54,0.8571428571428571,158.9498,147.23787212079057,57.32249013881668,0,0.1562209269209011,0.1562744652769581,0.15961523399300384,-0.0033407687205116213,0,0,0,0,0,0,0,450,2,zmatek,1
55,0.873015873015873,159.9203,149.90323836663154,57.3134328358209,1,0.15621859767992885,0.1562582783139804,0.15962341026080681,-0.003365131951334377,0,0,0,0,0,0,0,451,2,zmatek,1
56,0.8888888888888888,161.0515,145.61526515619082,57.325503624234514,0,0.1562555874015142,0.15627861380080946,0.15963159593343232,-0.0033529821371730923,0,0,0,0,0,0,0,452,2,zmatek,1
57,0.9047619047619047,151.7145,131.1328870033377,57.36123534416883,0,0.15632850967605935,0.15633513767244786,0.15963979088531566,-0.0033046532174604913,0,0,0,0,0,0,0,453,2,zmatek,1
58,0.9206349206349206,125.7691,104.95899212372383,57.41994822658709,0,0.15643397809396642,0.15642645639515654,0.15964799498895582,-0.0032215385984346043,0,0,0,0,0,0,0,454,2,zmatek,1
59,0.9365079365079365,84.01649,68.64538315061877,57.50101292582153,0,0.1565686062456376,0.156550262137972,0.1596562081149431,-0.0031059459816492503,0,0,0,0,0,0,0,455,2,zmatek,1
60,0.9523809523809523,34.94559,26.816031665927284,57.60384525165764,0,0.156729007721475,0.1567035015640064,0.1596644301320068,-0.002960928572721541,0,0,0,0,0,0,0,456,2,zmatek,1
61,0.9682539682539681,-10.4722,0.0,57.72790128958385,0,0.1569117961118808,0.15688255804496543,0.15967266090708132,-0.0027901028668802378,0,0,0,0,0,0,0,457,2,zmatek,1
62,0.9841269841269841,-45.03812,0.0,57.87267285363219,0,0.15711358500725717,0.15708343737074412,0.15968090030538953,-0.0025974629394531264,0,0,0,0,0,0,0,458,2,zmatek,1
63,1.0,-66.93207,0.0,58.037683222611314,0,0.15733098799800627,0.15730194791977292,0.1596891481905406,-0.0023872002756189755,0,0,0,0,0,0,0,459,2,zmatek,1
0,0.0,-1.437851,6.225485982341403,62.31756915537354,0,0.15532524727011363,0.15538803375038213,0.1676216589666732,-0.012233624916608024,0,0,0,0,0,0,0,1507,4,zmatek,3
1,0.015873015873015872,-6.089951,2.5920376402527037,61.773890993675515,0,0.15492207170187966,0.1549909245003913,0.1676311823333484,-0.012640257531528722,0,0,0,0,0,0,0,1508,4,zmatek,3
2,0.031746031746031744,-13.15771,0.0,61.22975824392531,0,0.15461154160498614,0.15467511150401309,0.16764070516434418,-0.012965593357152578,0,0,0,0,0,0,0,1509,4,zmatek,3
3,0.047619047619047616,-22.96669,0.0,60.68588816617495,0,0.15438948283961731,0.15444022432536691,0.16765022771525692,-0.013210003084956517,0,0,0,0,0,0,0,1510,4,zmatek,3
4,0.06349206349206349,-34.91461,0.0,60.14295694368345,0,0.15425056747516303,0.15428486111284995,0.16765975023417853,-0.013374888814635224,0,0,0,0,0,0,0,1511,4,zmatek,3
5,0.07936507936507936,-47.95215,0.0,59.60160052979666,0,0.15418946758101315,0.15420663346753696,0.16766927296155407,-0.013462639185559039,0,0,0,0,0,0,0,1512,4,zmatek,3
6,0.09523809523809523,-61.08359,0.0,59.06241562931042,0,0.1542008552265577,0.15420224803734325,0.16767879613008543,-0.01347654778251452,0,0,0,0,0,0,0,1513,4,zmatek,3
7,0.1111111111111111,-73.61835,0.0,58.525960793493645,0,0.15427940248118638,0.1542676188593486,0.1676883199646794,-0.013420700793328667,0,0,0,0,0,0,0,1514,4,zmatek,3
8,0.12698412698412698,-85.16412,0.0,57.992757609382416,0,0.1544197814142892,0.15439800247555274,0.1676978446824383,-0.01329984189310416,0,0,0,0,0,0,0,1515,4,zmatek,3
9,0.14285714285714285,-95.49394,0.0,57.463291965427594,0,0.15461666409525598,0.15458814675369448,0.1677073704926913,-0.013119223423431282,0,0,0,0,0,0,0,1516,4,zmatek,3
10,0.15873015873015872,-104.4,0.0,56.93801537706028,0,0.15486472259347658,0.15483244412010932,0.16771689759706276,-0.012884453159598946,0,0,0,0,0,0,0,1517,4,zmatek,3
11,0.1746031746031746,-111.6722,0.0,56.417346357209965,0,0.15515862897834098,0.15512508043925452,0.16772642618957573,-0.012601345431172948,0,0,0,0,0,0,0,1518,4,zmatek,3
12,0.19047619047619047,-117.1185,0.0,55.90167181825015,0,0.15549305531923896,0.15546017189402148,0.16773595645678638,-0.012275784241818076,0,0,0,0,0,0,0,1519,4,zmatek,3
13,0.20634920634920634,-120.5838,0.0,55.39134849323931,0,0.15586267368556042,0.15583188375826806,0.1677454885779468,-0.011913604496928566,0,0,0,0,0,0,0,1520,4,zmatek,3
14,0.2222222222222222,-121.9282,0.0,54.886704365661934,0,0.15626215614669525,0.15623452674213434,0.16775502272519235,-0.011520495658499746,0,0,0,0,0,0,0,1521,4,zmatek,3
15,0.23809523809523808,-121.0318,0.0,54.38804009814339,0,0.15668617477203337,0.15666262848675144,0.1677645590637502,-0.011101930250627633,0,0,0,0,0,0,0,1522,4,zmatek,3
16,0.25396825396825395,-117.8244,0.0,53.895630451808394,0,0.15712940163096462,0.1571109796693409,0.167774097752166,-0.010663117754636397,0,0,0,0,0,0,0,1523,4,zmatek,3
17,0.2698412698412698,-112.4533,0.0,53.409725689071884,0,0.15758650923127493,0.1575746559585392,0.16778363894254547,-0.01020898265399524,0,0,0,0,0,0,0,1524,4,zmatek,3
18,0.2857142857142857,-105.4697,0.0,52.930552953689435,0,0.15805265927775078,0.1580490186567031,0.16779318278080763,-0.009744163792266534,0,0,0,0,0,0,0,1525,4,zmatek,3
19,0.30158730158730157,-97.88097,0.0,52.458317622853315,0,0.1585244394642616,0.15852969821182863,0.1678027294069472,-0.009273030861448959,0,0,0,0,0,0,0,1526,4,zmatek,3
20,0.31746031746031744,-90.91812,0.0,51.99320462699769,0,0.15899869589863583,0.15901256580625273,0.16781227895530332,-0.008799712813544667,0,0,0,0,0,0,0,1527,4,zmatek,3
21,0.3333333333333333,-85.68098,0.0,51.535379733777454,0,0.1594722746887019,0.15949369886143933,0.16782183155483166,-0.008328132356045403,0,0,0,0,0,0,0,1528,4,zmatek,3
22,0.3492063492063492,-82.76022,0.0,51.0849907934089,0,0.15994202194228835,0.15996934647838362,0.16783138732937827,-0.007862040511802008,0,0,0,0,0,0,0,1529,4,zmatek,3
23,0.36507936507936506,-82.10426,0.0,50.64216894321237,0,0.16040478376722342,0.16043590053131349,0.1678409463979522,-0.007405045525595665,0,0,0,0,0,0,0,1530,4,zmatek,3
24,0.38095238095238093,-83.1524,0.0,50.20702976978051,0,0.16085740627133566,0.1608898773596547,0.16785050887499503,-0.006960631172442295,0,0,0,0,0,0,0,1531,4,zmatek,3
25,0.3968253968253968,-85.13246,0.0,49.779674427713076,0,0.1612967355624535,0.1613279138135923,0.16786007487064536,-0.006532160712295403,0,0,0,0,0,0,0,1532,4,zmatek,3
26,0.4126984126984127,-87.39632,0.0,49.3601907143181,0,0.1617196177484054,0.16174677989250896,0.16786964449099576,-0.006122864251864895,0,0,0,0,0,0,0,1533,4,zmatek,3
27,0.42857142857142855,-89.52572,0.0,48.9486541000801,0,0.16212289893701978,0.16214340849183523,0.16787921783834056,-0.005735808998014613,0,0,0,0,0,0,0,1534,4,zmatek,3
28,0.4444444444444444,-91.20457,0.0,48.54512871504605,0,0.1625034252361252,0.16251494098109856,0.16788879501141268,-0.005373853679949983,0,0,0,0,0,0,0,1535,4,zmatek,3
29,0.4603174603174603,-92.07514,0.0,48.14966829158284,0,0.1628580427535499,0.16285878562469663,0.1678983761056075,-0.005039590128668788,0,0,0,0,0,0,0,1536,4,zmatek,3
30,0.47619047619047616,-91.63482,0.0,47.76231706421855,0,0.16318359759712242,0.1631726843804339,0.16790796121319232,-0.004735276478633837,0,0,0,0,0,0,0,1537,4,zmatek,3
31,0.49206349206349204,-89.41149,0.0,47.38311062750084,0,0.16347693587467116,0.16345478251457027,0.16791755042349968,-0.004462767552917758,0,0,0,0,0,0,0,1538,4,zmatek,3
32,0.5079365079365079,-85.22378,0.0,47.01207675299062,0,0.16373490369402463,0.16370369488032924,0.16792714382310353,-0.004223448584871129,0,0,0,0,0,0,0,1539,4,zmatek,3
33,0.5238095238095237,-79.41617,0.0,46.64923616666294,0,0.16395434745451556,0.16391856270617036,0.16793674149597718,-0.004018178430007648,0,0,0,0,0,0,0,1540,4,zmatek,3
34,0.5396825396825397,-72.72375,0.0,46.294603288113095,0,0.1641333632390924,0.1640990953598183,0.16794634352363186,-0.0038472478021139246,0,0,0,0,0,0,0,1541,4,zmatek,3
35,0.5555555555555556,-65.93266,0.0,45.948186933066495,0,0.16427415670408455,0.16424559274502312,0.16795594998523586,-0.0037103568766081456,0,0,0,0,0,0,0,1542,4,zmatek,3
36,0.5714285714285714,-59.52428,0.0,45.60999098077125,0,0.16437977701459208,0.1643589456115607,0.16796556095771387,-0.0036066149806392297,0,0,0,0,0,0,0,1543,4,zmatek,3
37,0.5873015873015872,-53.55815,0.0,45.280015007912226,0,0.16445327333571494,0.16444061290086165,0.16797517651582675,-0.0035345632475373046,0,0,0,0,0,0,0,1544,4,zmatek,3
38,0.6031746031746031,-47.80124,0.0,44.9582548907303,0,0.16449769483255303,0.16449257706724416,0.1679847967322321,-0.0034922192956418625,0,0,0,0,0,0,0,1545,4,zmatek,3
39,0.6190476190476191,-41.90224,0.0,44.64470337706112,0,0.16451609067020637,0.16451727989770087,0.1679944216775267,-0.0034771414085570866,0,0,0,0,0,0,0,1546,4,zmatek,3
40,0.6349206349206349,-35.81434,0.0,44.33935063002637,0,0.1645115100137749,0.16451754256543052,0.16800405142027194,-0.0034865084816455448,0,0,0,0,0,0,0,1547,4,zmatek,3
41,0.6507936507936507,-29.96335,0.0,44.04218474512002,0,0.16448700202835853,0.16449647443946394,0.16801368602700315,-0.0035172112124117957,0,0,0,0,0,0,0,1548,4,zmatek,3
42,0.6666666666666666,-25.05808,0.0,43.753192242433265,0,0.16444561587905732,0.16445737554549877,0.16802332556222516,-0.003565949639663068,0,0,0,0,0,0,0,1549,4,zmatek,3
43,0.6825396825396826,-21.67897,2.649249682645417,43.47235853575696,0,0.1643904007309711,0.16440363758306398,0.16803297008839552,-0.0036293321263279684,0,0,0,0,0,0,0,1550,4,zmatek,3
44,0.6984126984126984,-19.81823,4.164297415568114,43.19966838029086,0,0.16432440574919985,0.16433864812206672,0.16804261966589706,-0.0037039711628821734,0,0,0,0,0,0,0,1551,4,zmatek,3
45,0.7142857142857142,-18.83993,5.04106209663276,42.93510630067558,0,0.16425068009884358,0.1642657021004407,0.16805227435300218,-0.0037865718696643604,0,0,0,0,0,0,0,1552,4,zmatek,3
46,0.7301587301587301,-17.741,6.060543665355628,42.67865700104852,0,0.16417227294500225,0.16418792408761274,0.16806193420583035,-0.003874009733367231,0,0,0,0,0,0,0,1553,4,zmatek,3
47,0.746031746031746,-15.55565,8.017911359189839,42.43030575880795,0,0.1640922334527758,0.16410820401453,0.16807159927830112,-0.003963394876963193,0,0,0,0,0,0,0,1554,4,zmatek,3
48,0.7619047619047619,-11.65366,11.416879792591804,42.19003880375387,0,0.16401361078726412,0.16402914823366718,0.16808126962208422,-0.0040521209996472645,0,0,0,0,0,0,0,1555,4,zmatek,3
49,0.7777777777777777,-5.976849,16.25608454180162,41.95784368425841,0,0.16393945410667063,0.16395304688523937,0.16809094528654836,-0.004137898010573066,0,0,0,0,0,0,0,1556,4,zmatek,3
50,0.7936507936507936,0.8153744,22.001851428396836,41.73370962210505,0,0.163872313709029,0.1638818576314356,0.16810062631871037,-0.004218768294568473,0,0,0,0,0,0,0,1557,4,zmatek,3
51,0.8095238095238095,7.609726,27.765922494755714,41.517627857624845,0,0.1638128862623833,0.1638172049124953,0.168110312763186,-0.004293107456009807,0,0,0,0,0,0,0,1558,4,zmatek,3
52,0.8253968253968254,13.2883,32.623613707754174,41.30959198675039,0,0.16376143799371906,0.16376039303070092,0.16812000466214344,-0.004359611234782819,0,0,0,0,0,0,0,1559,4,zmatek,3
53,0.8412698412698412,17.22921,35.953466536596025,41.10959829160439,0,0.16371823513002193,0.16371243065336552,0.16812970205526057,-0.004417271003252345,0,0,0,0,0,0,0,1560,4,zmatek,3
54,0.8571428571428571,19.47579,37.675255883431475,40.9176460662415,0,0.16368354389827747,0.16367406381854122,0.16813940497968655,-0.00446534076051549,0,0,0,0,0,0,0,1561,4,zmatek,3
55,0.873015873015873,20.53337,38.30493198431963,40.733737939168336,0,0.16365763052547136,0.16364581428129515,0.16814911347000863,-0.0045032987860923485,0,0,0,0,0,0,0,1562,4,zmatek,3
56,0.8888888888888888,21.39114,38.809458048887535,40.55788019428034,0,0.16364076123858912,0.16362802007064575,0.1681588275582244,-0.004530807082962118,0,0,0,0,0,0,0,1563,4,zmatek,3
57,0.9047619047619047,23.19859,40.307771090814676,40.390083091873926,0,0.16363320226461642,0.16362087541556272,0.16816854727371977,-0.004547671451541018,0,0,0,0,0,0,0,1564,4,zmatek,3
58,0.9206349206349206,27.08346,43.71151395961065,40.23036119142022,0,0.1636352198305388,0.16362446769107947,0.1681782726432532,-0.004553804543554038,0,0,0,0,0,0,0,1565,4,zmatek,3
59,0.9365079365079365,33.56558,49.42012816067923,40.078733677823685,0,0.16364708016334192,0.1636388096632003,0.16818800369094575,-0.004549193617118081,0,0,0,0,0,0,0,1566,4,zmatek,3
60,0.9523809523809523,42.24215,57.16923120416443,39.935224692934334,0,0.16366904949001138,0.16366386599791896,0.1681977404382777,-0.004533874027719622,0,0,0,0,0,0,0,1567,4,zmatek,3
61,0.9682539682539681,51.96322,66.07907340008813,39.79986367413908,0,0.16370139403753275,0.16369957367144655,0.16820748290409113,-0.004507908817989655,0,0,0,0,0,0,0,1568,4,zmatek,3
62,0.9841269841269841,61.33572,74.88253698636248,39.67268570192545,0,0.16374438003289168,0.16374585651064757,0.16821723110459874,-0.004471374177276462,0,0,0,0,0,0,0,1569,4,zmatek,3
63,1.0,69.3718,82.2620461238787,39.55373185839127,0,0.16379827370307373,0.16380263455330032,0.1682269850533991,-0.004424350081400208,0,0,0,0,0,0,0,1570,4,zmatek,3
0,0.0,34.77264,15.40948824099046,81.70212765957447,1,0.1573914399809719,0.15734832412482833,0.16962647805333655,-0.012288268064712785,0,0,0,0,0,0,0,4466,6,zmatek,5
1,0.015873015873015872,34.65149,15.205864941322103,81.68133237364465,0,0.15643673964255916,0.1563983522524606,0.16961835208696338,-0.013230139953667168,0,0,0,0,0,0,0,4467,6,zmatek,5
2,0.031746031746031744,34.11139,14.510748433851317,81.61989804700745,0,0.15552358145020068,0.1554926560661486,0.1696102633909472,-0.01412777336274031,0,0,0,0,0,0,0,4468,6,zmatek,5
3,0.047619047619047616,33.48584,13.545062959960692,81.51933669995852,0,0.15466308201199752,0.15464361812087868,0.16960221224317798,-0.014968786013761913,0,0,0,0,0,0,0,4469,6,zmatek,5
4,0.06349206349206349,32.89166,12.46200120159776,81.38126184203222,0,0.15386635793605163,0.15386320431208106,0.16959419891336533,-0.01574121227993173,0,0,0,0,0,0,0,4470,6,zmatek,5
5,0.07936507936507936,32.26001,11.331207434432985,81.20737403657316,0,0.1531445258304626,0.15316260454563133,0.16958622366255371,-0.016433862515332878,0,0,0,0,0,0,0,4471,6,zmatek,5
6,0.09523809523809523,31.48083,10.160164913125431,80.99944652346126,0,0.15250870230333224,0.15255188111156864,0.16957828674267708,-0.017036674680768624,0,0,0,0,0,0,0,4472,6,zmatek,5
7,0.1111111111111111,30.52429,8.932373519368433,80.75931108097971,0,0.1519700039627618,0.15203964204591797,0.1695703883961597,-0.017541040981540815,0,0,0,0,0,0,0,4473,6,zmatek,5
8,0.12698412698412698,29.48138,7.636000360656838,80.48884428931272,0,0.1515395474168523,0.15163275668416276,0.1695625288555688,-0.017940092313629703,0,0,0,0,0,0,0,4474,6,zmatek,5
9,0.14285714285714285,28.42273,6.26926287181603,80.18995433789955,0,0.1512284492737051,0.1513361293255091,0.16955470834332356,-0.01822892459913891,0,0,0,0,0,0,0,4475,6,zmatek,5
10,0.15873015873015872,27.31653,4.826858366039166,79.86456849756986,0,0.15104719836430278,0.1511525442931895,0.1695469270714649,-0.018404753725761454,0,0,0,0,0,0,0,4476,6,zmatek,5
11,0.1746031746031746,26.1441,3.2819269421097164,79.51462135671,0,0.1509954791025744,0.15108259171014773,0.1695391852414886,-0.018466989770927797,0,0,0,0,0,0,0,4477,6,zmatek,5
12,0.19047619047619047,24.79456,1.5768377542347278,79.14204389925825,0,0.15106387220454143,0.15112467826678308,0.1695314830442434,-0.018417226233960103,0,0,0,0,0,0,0,4478,6,zmatek,5
13,0.20634920634920634,23.17389,0.0,78.74875348161943,0,0.1512426738839009,0.15127512164849352,0.1695238206598945,-0.01825914560849197,0,0,0,0,0,0,0,4479,6,zmatek,5
14,0.2222222222222222,21.19092,0.0,78.3366447460473,0,0.15152218035434983,0.15152832179130385,0.16951619825795125,-0.0179983481268684,0,0,0,0,0,0,0,4480,6,zmatek,5
15,0.23809523809523808,18.83582,0.0,77.90758149000914,0,0.15189268782958587,0.15187699740474986,0.16950861599735745,-0.017642115237351815,0,0,0,0,0,0,0,4481,6,zmatek,5
16,0.25396825396825395,16.12537,0.0,77.46338949476014,0,0.152344492523306,0.1523124727154141,0.16950107402664064,-0.017199122860735522,0,0,0,0,0,0,0,4482,6,zmatek,5
17,0.2698412698412698,13.07526,0.0,77.00585030197863,0,0.15286789064920744,0.1528249973518122,0.16949357248411648,-0.016679121505661698,0,0,0,0,0,0,0,4483,6,zmatek,5
18,0.2857142857142857,9.706543,0.0,76.53669591492823,0,0.15345317842098732,0.15340408168554118,0.16948611149814313,-0.016092600927727643,0,0,0,0,0,0,0,4484,6,zmatek,5
19,0.30158730158730157,6.078125,0.0,76.05760439023366,0,0.1540906520523422,0.15403883057908774,0.16947869118742012,-0.015450456381976056,0,0,0,0,0,0,0,4485,6,zmatek,5
20,0.31746031746031744,2.59314,0.0,75.57019627793869,0,0.15477060775697052,0.15471826010139428,0.16947131166132573,-0.014763671907666769,0,0,0,0,0,0,0,4486,6,zmatek,5
21,0.3333333333333333,-0.4215698,0.0,75.0760318609703,0,0.15548334174856887,0.15543158407518531,0.1694639730202867,-0.014043033781319644,0,0,0,0,0,0,0,4487,6,zmatek,5
22,0.3492063492063492,-2.87323,0.0,74.57660914033293,0,0.15621915024083438,0.15616846005963353,0.1694566753561739,-0.01329888453444435,0,0,0,0,0,0,0,4488,6,zmatek,5
23,0.36507936507936506,-5.036316,0.0,74.07336250915232,0,0.1569683294474643,0.15691918734543958,0.16944941875271777,-0.012540924958876045,0,0,0,0,0,0,0,4489,6,zmatek,5
24,0.38095238095238093,-7.332031,0.0,73.56766205690998,0,0.15772117558215515,0.1576748526039137,0.16944220328593754,-0.011778068458122733,0,0,0,0,0,0,0,4490,6,zmatek,5
25,0.3968253968253968,-10.1203,0.0,73.06081344468042,0,0.1584679848586054,0.15842742189464357,0.1694350290245787,-0.011018349040135217,0,0,0,0,0,0,0,4491,6,zmatek,5
26,0.4126984126984127,-13.48511,0.0,72.55405829272644,0,0.15919923666677932,0.1591697807318561,0.16942789603055353,-0.010268881251385666,0,0,0,0,0,0,0,4492,6,zmatek,5
27,0.42857142857142855,-17.30865,0.0,72.04857502324818,0,0.15990917412446723,0.15989572676404976,0.16942080435938037,-0.009535867497674419,0,0,0,0,0,0,0,4493,6,zmatek,5
28,0.4444444444444444,-21.46234,0.0,71.54548010325351,0,0.1605955701820758,0.16059992221867142,0.1694137540606169,-0.008824645599886544,0,0,0,0,0,0,0,4494,6,zmatek,5
29,0.4603174603174603,-25.25543,0.0,71.04582963526674,0,0.1612563341268639,0.1612778154287228,0.16940674517828416,-0.008139767267809257,0,0,0,0,0,0,0,4495,6,zmatek,5
30,0.47619047619047616,-28.42297,0.0,70.5506212467787,0,0.16188937524609223,0.16192554228124456,0.16939977775127812,-0.007485096652059531,0,0,0,0,0,0,0,4496,6,zmatek,5
31,0.49206349206349204,-31.2381,0.0,70.06079623283861,0,0.16249260282701955,0.16253981912255025,0.1693928518137664,-0.006863917439246795,0,0,0,0,0,0,0,4497,6,zmatek,5
32,0.5079365079365079,-34.271,0.0,69.57724190988702,0,0.16306392615690538,0.16311783841990776,0.1693859673955672,-0.0062790371906704745,0,0,0,0,0,0,0,4498,6,zmatek,5
33,0.5238095238095237,-37.71924,0.0,69.10079414273584,0,0.1636012545230091,0.16365717732389912,0.16937912452250928,-0.005732878780320064,0,0,0,0,0,0,0,4499,6,zmatek,5
34,0.5396825396825397,-40.94659,0.0,68.63224001043585,0,0.16410249721258982,0.16415572731282013,0.16937232321677093,-0.005227550750814415,0,0,0,0,0,0,0,4500,6,zmatek,5
35,0.5555555555555556,-42.68042,0.0,68.17232058057132,0,0.16456556351290785,0.1646116505196049,0.1693655634971963,-0.004764890986793656,0,0,0,0,0,0,0,4501,6,zmatek,5
36,0.5714285714285714,-41.56897,0.0,67.72173376523214,0,0.16498836271122216,0.16502336538056325,0.16935884537958842,-0.004346481066474735,0,0,0,0,0,0,0,4502,6,zmatek,5
37,0.5873015873015872,-36.8808,0.0,67.28113723549907,0,0.1653688040947922,0.1653895611654137,0.16935216887697724,-0.00397363173188649,0,0,0,0,0,0,0,4503,6,zmatek,5
38,0.6031746031746031,-27.37152,0.0,66.8511513747061,0,0.1657047969508772,0.1657092380150278,0.16934553399986232,-0.003647342851367895,0,0,0,0,0,0,0,4504,6,zmatek,5
39,0.6190476190476191,-13.117,0.0,66.43236225399998,0,0.16599425056673717,0.16598176657800973,0.16933894075642902,-0.0033682437832046096,0,0,0,0,0,0,0,4505,6,zmatek,5
40,0.6349206349206349,4.302734,0.0,66.02532461678643,0,0.16623507422963124,0.1662069594194144,0.16933238915273777,-0.003136521967100382,0,0,0,0,0,0,0,4506,6,zmatek,5
41,0.6507936507936507,22.17633,0.0,65.63056486153427,0,0.16642517722681888,0.16638514524516929,0.16932587919288605,-0.0029518486999168154,0,0,0,0,0,0,0,4507,6,zmatek,5
42,0.6666666666666666,37.93646,15.258022209880805,65.24858401510384,0,0.16656260315317784,0.16651723674588775,0.169319410879143,-0.0028133112919950316,0,0,0,0,0,0,0,4508,6,zmatek,5
43,0.6825396825396826,50.25299,28.27696022362365,64.87986069128254,0,0.16664873612785305,0.16660478352481117,0.169312984212057,-0.0027193601393208765,0,0,0,0,0,0,0,4509,6,zmatek,5
44,0.6984126984126984,59.13055,38.14872848962982,64.52485403155814,0,0.16668844676376743,0.16665000303822408,0.16930659919053656,-0.0026677777831906908,0,0,0,0,0,0,0,4510,6,zmatek,5
45,0.7142857142857142,65.44452,45.77549367498059,64.18400662735733,0,0.16668676919210512,0.16665578453470792,0.1693002558119055,-0.0026556749710127227,0,0,0,0,0,0,0,4511,6,zmatek,5
46,0.7301587301587301,70.14575,52.78618386295307,63.85774742503796,0,0.1666487375440504,0.16662566334918344,0.16929395407193376,-0.002679516362295543,0,0,0,0,0,0,0,4512,6,zmatek,5
47,0.746031746031746,76.13177,60.83063519415054,63.5464946168698,0,0.16657938595078753,0.16656376529774503,0.1692876939648455,-0.0027351761338218253,0,0,0,0,0,0,0,4513,6,zmatek,5
48,0.7619047619047619,85.15479,70.84576051493207,63.2506585230941,0,0.16648374854350084,0.16647472309605965,0.1692814754833064,-0.002818021561236608,0,0,0,0,0,0,0,4514,6,zmatek,5
49,0.7777777777777777,96.94543,82.61079105045742,62.97064447193791,0,0.16636685945337445,0.16636356854321116,0.16927529861839277,-0.0029230208351721907,0,0,0,0,0,0,0,4515,6,zmatek,5
50,0.7936507936507936,109.3319,94.81075659389694,62.706855686204385,0,0.1662337528115927,0.16623560561361933,0.16926916335954487,-0.0030448699692822946,0,0,0,0,0,0,0,4516,6,zmatek,5
51,0.8095238095238095,119.7322,105.60618396732126,62.459696186791206,0,0.1660894627493398,0.16609627057963225,0.16926306969450744,-0.0031781326775903833,0,0,0,0,0,0,0,4517,6,zmatek,5
52,0.8253968253968254,126.6893,113.48246155916223,62.2295737252351,0,0.1659390233978001,0.16595098587456364,0.16925701760926065,-0.00331738651138303,0,0,0,0,0,0,0,4518,6,zmatek,5
53,0.8412698412698412,130.1829,118.04339524962718,62.016902759175316,0,0.16578746888815793,0.16580501463593092,0.16925100708794422,-0.003457368315896136,0,0,0,0,0,0,0,4519,6,zmatek,5
54,0.8571428571428571,131.3179,120.44686464015149,61.822107486505516,0,0.1656398333515973,0.1656633227690964,0.1692450381127782,-0.0035931121665943684,0,0,0,0,0,0,0,4520,6,zmatek,5
55,0.873015873015873,131.7293,123.30536955351624,61.64562495598142,0,0.16550115091930256,0.16553045495456598,0.16923911066398298,-0.0037200733617926513,0,0,0,0,0,0,0,4521,6,zmatek,5
56,0.8888888888888888,136.3155,130.03910885470643,61.4879082742109,0,0.16537645572245804,0.16541043028526473,0.169233224719702,-0.0038342327853031167,0,0,0,0,0,0,0,4522,6,zmatek,5
57,0.9047619047619047,149.0328,143.84119539653545,61.349429931322646,0,0.165270781892248,0.1653066621549954,0.16922738025592907,-0.0039321770179040014,0,0,0,0,0,0,0,4523,6,zmatek,5
58,0.9206349206349206,171.1339,166.5340025096438,61.23068527023898,0,0.1651890721659239,0.1652219056291822,0.16922157724644313,-0.004011150966530509,0,0,0,0,0,0,0,4524,6,zmatek,5
59,0.9365079365079365,200.3542,197.59885293603767,61.132196127430305,0,0.16513347058241434,0.1651582338517831,0.1692158156627522,-0.004069081457306553,0,0,0,0,0,0,0,4525,6,zmatek,5
60,0.9523809523809523,232.0977,233.58290153166362,61.05451467636794,0,0.16510287013738104,0.16511704317397874,0.16921009547404825,-0.0041045721068106375,0,0,0,0,0,0,0,4526,6,zmatek,5
61,0.9682539682539681,261.4004,268.058644055844,60.998227508701575,0,0.16509598132650405,0.16509908479419053,0.16920441664717378,-0.00411687168202432,0,0,0,0,0,0,0,4527,6,zmatek,5
62,0.9841269841269841,284.1214,292.3915177023133,60.96395999255618,0,0.16511151464546334,0.16510451898352138,0.16919877914660156,-0.0041058198748712416,0,0,0,0,0,0,0,4528,6,zmatek,5
63,1.0,298.1547,297.58074514024054,60.95238095238095,1,0.16514818058993896,0.16513298663756945,0.1691931829344275,-0.004071775750396302,0,0,0,0,0,0,0,4529,6,zmatek,5
