timestamp,value,norm_ts
1618820991.62218,2.175745,1.4656500816345215
1618820991.6378,-3.657618,1.4812700748443604
1618820991.65343,-9.621487,1.4969000816345215
1618820991.66905,-15.79118,1.5125200748443604
1618820991.68468,-22.12865,1.5281500816345215
1618820991.70031,-28.29705,1.5437800884246826
1618820991.71593,-33.70671,1.5594000816345215
1618820991.73156,-37.65313,1.5750300884246826
1618820991.74718,-39.4222,1.5906500816345215
1618820991.76281,-38.54398,1.6062800884246826
1618820991.77843,-34.88103,1.6219000816345215
1618820991.79406,-28.77175,1.6375300884246826
1618820991.80969,-20.93414,1.6531600952148438
1618820991.82531,-12.34954,1.6687800884246826
1618820991.84094,-4.05085,1.6844100952148438
1618820991.85656,3.086327,1.7000300884246826
1618820991.87219,8.427811,1.7156600952148438
1618820991.88781,11.71711,1.7312800884246826
1618820991.90344,13.01309,1.7469100952148438
1618820991.91907,12.65868,1.7625401020050049
1618820991.93469,11.01783,1.7781600952148438
1618820991.95032,8.459358,1.7937901020050049
1618820991.96594,5.300743,1.8094100952148438
1618820991.98157,1.854248,1.8250401020050049
1618820991.99719,-1.494179,1.8406600952148438
1618820992.01282,-4.284195,1.8562901020050049
1618820992.02845,-6.034203,1.871920108795166
1618820992.04407,-6.463684,1.8875401020050049
1618820992.0597,-5.645607,1.903170108795166
1618820992.07532,-4.119865,1.9187901020050049
1618820992.09095,-2.710167,1.934420108795166
1618820992.10658,-2.212219,1.9500501155853271
1618820992.1222,-3.159721,1.965670108795166
1618820992.13783,-5.563118,1.9813001155853271
1618820992.15345,-9.018944,1.996920108795166
1618820992.16908,-12.83609,2.012550115585327
1618820992.1847,-16.39222,2.028170108795166
1618820992.20033,-19.29042,2.043800115585327
1618820992.21596,-21.49475,2.0594301223754883
1618820992.23158,-23.24863,2.075050115585327
1618820992.24721,-24.90836,2.0906801223754883
1618820992.26283,-26.84792,2.106300115585327
1618820992.27846,-29.25385,2.1219301223754883
1618820992.29408,-32.20215,2.137550115585327
1618820992.30971,-35.59473,2.1531801223754883
1618820992.32534,-39.22461,2.1688101291656494
1618820992.34096,-42.66512,2.1844301223754883
1618820992.35659,-45.24478,2.2000601291656494
1618820992.37221,-46.08322,2.2156801223754883
1618820992.38784,-44.26947,2.2313101291656494
1618820992.40346,-39.2473,2.2469301223754883
1618820992.41909,-31.06544,2.2625601291656494
1618820992.43472,-20.5719,2.2781901359558105
1618820992.45034,-9.207825,2.2938101291656494
1618820992.46597,1.348557,2.3094401359558105
1618820992.48159,9.840866,2.3250601291656494
1618820992.49722,15.7205,2.3406901359558105
1618820992.51284,19.21281,2.3563101291656494
1618820992.52847,21.04889,2.3719401359558105
1618820992.5441,22.01762,2.3875701427459717
1618820992.55972,22.65561,2.4031901359558105
1618820992.57535,23.07178,2.4188201427459717
1618820992.59097,23.10336,2.4344401359558105
1618820992.6066,22.55823,2.4500701427459717
1618820992.62222,21.40886,2.4656901359558105
1618820992.63785,19.82143,2.4813201427459717
1618820992.65348,18.07338,2.496950149536133
1618820992.6691,16.44368,2.5125701427459717
1618820992.68473,15.01292,2.528200149536133
1618820992.70035,13.76656,2.5438201427459717
1618820992.71598,12.54305,2.559450149536133
1618820992.7316,11.14813,2.5750701427459717
1618820992.74723,9.472015,2.590700149536133
1618820992.76286,7.43541,2.606330156326294
1618820992.77848,5.054291,2.621950149536133
1618820992.79411,2.352112,2.637580156326294
1618820992.80973,-0.5620422,2.653200149536133
1618820992.82536,-3.610077,2.668830156326294
1618820992.84098,-6.665558,2.684450149536133
1618820992.85661,-9.616226,2.700080156326294
1618820992.87224,-12.40227,2.715710163116455
1618820992.88786,-15.08458,2.731330156326294
1618820992.90349,-17.77652,2.746960163116455
1618820992.91911,-20.70804,2.762580156326294
1618820992.93474,-24.07449,2.778210163116455
1618820992.95036,-27.81534,2.793830156326294
1618820992.96599,-31.59753,2.809460163116455
1618820992.98162,-34.69043,2.825090169906616
1618820992.99724,-36.09929,2.840710163116455
1618820993.01287,-34.96272,2.856340169906616
1618820993.02849,-30.91115,2.871960163116455
1618820993.04412,-24.21294,2.887590169906616
1618820993.05974,-15.80388,2.903210163116455
1618820993.07537,-6.929535,2.918840169906616
1618820993.091,1.323715,2.9344701766967773
1618820993.10662,8.251801,2.950090169906616
1618820993.12225,13.65329,2.9657201766967773
1618820993.13787,17.66614,2.981340169906616
1618820993.1535,20.48584,2.9969701766967773
1618820993.16912,22.19817,3.012590169906616
1618820993.18475,22.76167,3.0282201766967773
1618820993.20038,22.21591,3.0438501834869385
1618820993.216,20.75534,3.0594701766967773
1618820993.23163,18.86624,3.0751001834869385
1618820993.24725,17.07349,3.0907201766967773
1618820993.26288,15.80939,3.1063501834869385
1618820993.2785,15.19708,3.1219701766967773
1618820993.29413,15.04167,3.1376001834869385
1618820993.30976,14.92384,3.1532301902770996
1618820993.32538,14.36815,3.1688501834869385
1618820993.34101,13.04749,3.1844801902770996
1618820993.35663,10.80937,3.2001001834869385
1618820993.37226,7.799728,3.2157301902770996
1618820993.38788,4.271317,3.2313501834869385
1618820993.40351,0.570343,3.2469801902770996
1618820993.41914,-2.935501,3.2626101970672607
1618820993.43476,-5.99678,3.2782301902770996
1618820993.45039,-8.499222,3.2938601970672607
1618820993.46601,-10.48694,3.3094801902770996
1618820993.48164,-12.18243,3.3251101970672607
1618820993.49726,-13.88414,3.3407301902770996
1618820993.51289,-15.9106,3.3563601970672607
1618820993.52852,-18.57951,3.371990203857422
1618820993.54414,-22.08354,3.3876101970672607
1618820993.55977,-26.39944,3.403240203857422
1618820993.57539,-31.20505,3.4188601970672607
1618820993.59102,-35.73326,3.434490203857422
1618820993.60664,-38.90636,3.4501101970672607
1618820993.62227,-39.63519,3.465740203857422
1618820993.6379,-37.21645,3.481370210647583
1618820993.65352,-31.6562,3.496990203857422
1618820993.66915,-23.73741,3.512620210647583
1618820993.68477,-14.79274,3.528240203857422
1618820993.7004,-6.185196,3.543870210647583
1618820993.71602,1.061584,3.559490203857422
1618820993.73165,6.595917,3.575120210647583
1618820993.74728,10.65021,3.590749979019165
1618820993.7629,13.713,3.606370210647583
1618820993.77853,16.1812,3.621999979019165
1618820993.79415,18.19279,3.637620210647583
1618820993.80978,19.57608,3.653249979019165
1618820993.8254,20.12296,3.668870210647583
1618820993.84103,19.80821,3.684499979019165
1618820993.85666,18.82983,3.700129985809326
1618820993.87228,17.61844,3.715749979019165
1618820993.88791,16.66541,3.731379985809326
1618820993.90353,16.27281,3.746999979019165
1618820993.91916,16.43608,3.762629985809326
1618820993.93478,16.89548,3.778249979019165
1618820993.95041,17.16792,3.793879985809326
1618820993.96604,16.79385,3.8095099925994873
1618820993.98166,15.44778,3.825129985809326
1618820993.99729,13.02235,3.8407599925994873
1618820994.01291,9.667633,3.856379985809326
1618820994.02854,5.692795,3.8720099925994873
1618820994.04416,1.464554,3.887629985809326
1618820994.05979,-2.694702,3.9032599925994873
1618820994.07542,-6.593124,3.9188899993896484
1618820994.09104,-10.18958,3.9345099925994873
1618820994.10667,-13.57808,3.9501399993896484
1618820994.12229,-16.91325,3.9657599925994873
1618820994.13792,-20.37129,3.9813899993896484
1618820994.15354,-24.05463,3.9970099925994873
1618820994.16917,-27.90533,4.012639999389648
1618820994.1848,-31.61903,4.02827000617981
1618820994.20042,-34.6676,4.043889999389648
1618820994.21605,-36.2912,4.05952000617981
1618820994.23167,-35.79034,4.075139999389648
1618820994.2473,-32.70416,4.09077000617981
1618820994.26292,-26.98068,4.106389999389648
1618820994.27855,-19.09106,4.12202000617981
1618820994.29418,-9.90094,4.137650012969971
1618820994.3098,-0.4776611,4.15327000617981
1618820994.32543,8.172882,4.168900012969971
1618820994.34105,15.25024,4.18452000617981
1618820994.35668,20.3288,4.200150012969971
1618820994.3723,23.27655,4.21577000617981
1618820994.38793,24.26361,4.231400012969971
1618820994.40356,23.66165,4.247030019760132
1618820994.41918,21.92334,4.262650012969971
1618820994.43481,19.56433,4.278280019760132
1618820994.45043,17.01782,4.293900012969971
1618820994.46606,14.63495,4.309530019760132
1618820994.48168,12.56921,4.325150012969971
1618820994.49731,10.79071,4.340780019760132
1618820994.51294,9.113953,4.356410026550293
1618820994.52856,7.289734,4.372030019760132
1618820994.54419,5.171509,4.387660026550293
1618820994.55981,2.762085,4.403280019760132
1618820994.57544,0.2817688,4.418910026550293
1618820994.59106,-1.994812,4.434530019760132
1618820994.60669,-3.863708,4.450160026550293
1618820994.62232,-5.327209,4.465790033340454
1618820994.63794,-6.58017,4.481410026550293
1618820994.65357,-7.972229,4.497040033340454
1618820994.66919,-9.79776,4.512660026550293
1618820994.68482,-12.23969,4.528290033340454
1618820994.70044,-15.40091,4.543910026550293
1618820994.71607,-19.23761,4.559540033340454
1618820994.7317,-23.54889,4.575170040130615
1618820994.74732,-27.91861,4.590790033340454
1618820994.76295,-31.63037,4.606420040130615
1618820994.77857,-33.67987,4.622040033340454
1618820994.7942,-33.15906,4.637670040130615
1618820994.80983,-29.47507,4.653300046920776
1618820994.82545,-22.73843,4.668920040130615
1618820994.84108,-13.74277,4.684550046920776
1618820994.8567,-3.748199,4.700170040130615
1618820994.87233,5.878662,4.715800046920776
1618820994.88795,14.11609,4.731420040130615
1618820994.90358,20.44073,4.747050046920776
1618820994.91921,24.82513,4.7626800537109375
1618820994.93483,27.51755,4.778300046920776
1618820994.95046,28.82877,4.7939300537109375
1618820994.96608,28.95407,4.809550046920776
1618820994.98171,28.04776,4.8251800537109375
1618820994.99733,26.28613,4.840800046920776
1618820995.01296,23.95438,4.8564300537109375
1618820995.02859,21.51974,4.872060060501099
1618820995.04421,19.50745,4.8876800537109375
1618820995.05984,18.34366,4.903310060501099
1618820995.07546,18.08478,4.9189300537109375
1618820995.09109,18.39676,4.934560060501099
1618820995.10671,18.61334,4.9501800537109375
1618820995.12234,18.02292,4.965810060501099
1618820995.13797,16.25275,4.98144006729126
1618820995.15359,13.32852,4.997060060501099
1618820995.16922,9.761078,5.01269006729126
1618820995.18484,6.200531,5.028310060501099
1618820995.20047,3.142578,5.04394006729126
1618820995.21609,0.6922607,5.059560060501099
1618820995.23172,-1.407257,5.07519006729126
1618820995.24735,-3.616669,5.090820074081421
1618820995.26297,-6.381409,5.10644006729126
1618820995.2786,-9.83316,5.122070074081421
1618820995.29422,-13.92923,5.13769006729126
1618820995.30985,-18.28928,5.153320074081421
1618820995.32547,-22.52094,5.16894006729126
1618820995.3411,-26.1535,5.184570074081421
1618820995.35673,-28.69208,5.200200080871582
1618820995.37235,-29.62454,5.215820074081421
1618820995.38798,-28.47061,5.231450080871582
1618820995.4036,-25.0065,5.247070074081421
1618820995.41923,-19.30917,5.262700080871582
1618820995.43485,-11.94449,5.278320074081421
1618820995.45048,-3.8013,5.293950080871582
1618820995.46611,4.025269,5.309580087661743
1618820995.48173,10.49362,5.325200080871582
1618820995.49736,14.89926,5.340830087661743
1618820995.51298,16.95859,5.356450080871582
1618820995.52861,16.83002,5.372080087661743
1618820995.54423,14.92337,5.387700080871582
1618820995.55986,11.86813,5.403330087661743
1618820995.57549,8.32193,5.418960094451904
1618820995.59111,4.945343,5.434580087661743
1618820995.60674,2.291077,5.450210094451904
1618820995.62236,0.6650696,5.465830087661743
1618820995.63799,0.07467651,5.481460094451904
1618820995.65361,0.148468,5.497080087661743
1618820995.66924,0.344574,5.512710094451904
1618820995.68487,0.07861328,5.528340101242065
1618820995.70049,-0.9567871,5.543960094451904
1618820995.71612,-2.764069,5.559590101242065
1618820995.73174,-5.010712,5.575210094451904
1618820995.74737,-7.223511,5.590840101242065
1618820995.76299,-9.074677,5.606460094451904
1618820995.77862,-10.44485,5.622090101242065
1618820995.79425,-11.5289,5.637720108032227
1618820995.80987,-12.65576,5.653340101242065
1618820995.8255,-14.17941,5.668970108032227
1618820995.84112,-16.37054,5.684590101242065
1618820995.85675,-19.40103,5.700220108032227
1618820995.87237,-23.21271,5.715840101242065
1618820995.888,-27.46542,5.731470108032227
1618820995.90363,-31.50726,5.747100114822388
1618820995.91925,-34.37173,5.762720108032227
1618820995.93488,-35.08304,5.778350114822388
1618820995.9505,-32.94443,5.793970108032227
1618820995.96613,-27.79926,5.809600114822388
1618820995.98175,-20.2012,5.825220108032227
1618820995.99738,-11.23801,5.840850114822388
1618820996.01301,-2.192352,5.856480121612549
1618820996.02863,5.856567,5.872100114822388
1618820996.04426,12.30225,5.887730121612549
1618820996.05988,17.08713,5.903350114822388
1618820996.07551,20.48679,5.918980121612549
1618820996.09113,22.81955,5.934600114822388
1618820996.10676,24.28467,5.950230121612549
1618820996.12239,24.81995,5.96586012840271
1618820996.13801,24.31339,5.981480121612549
1618820996.15364,22.76129,5.99711012840271
1618820996.16926,20.40686,6.012730121612549
1618820996.18489,17.70425,6.02836012840271
1618820996.20051,15.20657,6.043980121612549
1618820996.21614,13.30399,6.05961012840271
1618820996.23177,12.05188,6.075240135192871
1618820996.24739,11.26028,6.09086012840271
1618820996.26302,10.58261,6.106490135192871
1618820996.27864,9.745819,6.12211012840271
1618820996.29427,8.623993,6.137740135192871
1618820996.30989,7.225647,6.15336012840271
1618820996.32552,5.58255,6.168990135192871
1618820996.34115,3.654572,6.184620141983032
1618820996.35677,1.346313,6.200240135192871
1618820996.3724,-1.435852,6.215870141983032
1618820996.38802,-4.640656,6.231490135192871
1618820996.40365,-8.187531,6.247120141983032
1618820996.41927,-11.95847,6.262740135192871
1618820996.4349,-15.96002,6.278370141983032
1618820996.45053,-20.29474,6.294000148773193
1618820996.46615,-24.95953,6.309620141983032
1618820996.48178,-29.69141,6.325250148773193
1618820996.4974,-33.81564,6.340870141983032
1618820996.51303,-36.38623,6.356500148773193
1618820996.52865,-36.46216,6.372120141983032
1618820996.54428,-33.59241,6.387750148773193
1618820996.55991,-27.96564,6.4033801555633545
1618820996.57553,-20.41714,6.419000148773193
1618820996.59116,-12.16345,6.4346301555633545
1618820996.60678,-4.332458,6.450250148773193
1618820996.62241,2.247681,6.4658801555633545
1618820996.63803,7.206879,6.481500148773193
1618820996.65366,10.51373,6.4971301555633545
1618820996.66929,12.33936,6.512760162353516
1618820996.68491,12.84521,6.5283801555633545
1618820996.70054,12.19348,6.544010162353516
1618820996.71616,10.55789,6.5596301555633545
1618820996.73179,8.240906,6.575260162353516
1618820996.74741,5.69574,6.5908801555633545
1618820996.76304,3.438446,6.606510162353516
1618820996.77867,1.92514,6.622140169143677
1618820996.79429,1.288208,6.637760162353516
1618820996.80992,1.319275,6.653390169143677
1618820996.82554,1.468567,6.669010162353516
1618820996.84117,1.08017,6.684640169143677
1618820996.85679,-0.3200684,6.700260162353516
1618820996.87242,-2.81366,6.715890169143677
1618820996.88805,-6.10553,6.731520175933838
1618820996.90367,-9.688507,6.747140169143677
1618820996.9193,-13.1017,6.762770175933838
1618820996.93492,-16.18491,6.778390169143677
1618820996.95055,-19.01526,6.794020175933838
1618820996.96618,-21.90291,6.809650182723999
1618820996.9818,-25.20335,6.825270175933838
1618820996.99743,-29.20956,6.840900182723999
1618820997.01305,-34.06973,6.856520175933838
1618820997.02868,-39.65285,6.872150182723999
1618820997.0443,-45.5139,6.887770175933838
1618820997.05993,-50.80783,6.903400182723999
1618820997.07556,-54.51642,6.91903018951416
1618820997.09118,-55.64458,6.934650182723999
1618820997.10681,-53.64798,6.95028018951416
1618820997.12243,-48.67497,6.965900182723999
1618820997.13806,-41.65594,6.98153018951416
1618820997.15368,-34.01517,6.997150182723999
1618820997.16931,-27.15034,7.01278018951416
1618820997.18494,-22.04308,7.028410196304321
1618820997.20056,-18.97612,7.04403018951416
1618820997.21619,-17.65643,7.059660196304321
1618820997.23181,-17.41612,7.07528018951416
1618820997.24744,-17.63185,7.090910196304321
1618820997.26306,-17.80823,7.10653018951416
1618820997.27869,-17.6161,7.122160196304321
1618820997.29432,-16.85199,7.137790203094482
1618820997.30994,-15.28105,7.153410196304321
1618820997.32557,-12.71199,7.169040203094482
1618820997.34119,-9.043564,7.184660196304321
1618820997.35682,-4.391861,7.200290203094482
1618820997.37244,0.9620819,7.215910196304321
1618820997.38807,6.561142,7.231540203094482
1618820997.4037,12.04414,7.2471702098846436
1618820997.41932,17.28419,7.262790203094482
1618820997.43495,22.37686,7.2784202098846436
1618820997.45057,27.57523,7.294040203094482
1618820997.4662,33.05,7.3096702098846436
1618820997.48182,38.73116,7.325290203094482
1618820997.49745,44.19179,7.3409202098846436
1618820997.51308,48.81659,7.356549978256226
1618820997.5287,51.95566,7.3721702098846436
1618820997.54433,53.10999,7.387799978256226
1618820997.55995,52.12056,7.4034202098846436
1618820997.57558,49.10216,7.419049978256226
1618820997.5912,44.46271,7.4346702098846436
1618820997.60683,38.79418,7.450299978256226
1618820997.62246,32.87753,7.465929985046387
1618820997.63808,27.55098,7.481549978256226
1618820997.65371,23.65182,7.497179985046387
1618820997.66933,21.84924,7.512799978256226
1618820997.68496,22.40234,7.528429985046387
1618820997.70058,25.06765,7.544049978256226
1618820997.71621,29.06103,7.559679985046387
1618820997.73184,33.35834,7.575309991836548
1618820997.74746,36.87142,7.590929985046387
1618820997.76309,38.78041,7.606559991836548
1618820997.77871,38.64584,7.622179985046387
1618820997.79434,36.44304,7.637809991836548
1618820997.80996,32.47926,7.653429985046387
1618820997.82559,27.28497,7.669059991836548
1618820997.84122,21.50721,7.684689998626709
1618820997.85684,15.77534,7.700309991836548
1618820997.87247,10.69619,7.715939998626709
1618820997.88809,6.689857,7.731559991836548
1618820997.90372,4.008484,7.747189998626709
1618820997.91934,2.628716,7.762809991836548
1618820997.93497,2.288857,7.778439998626709
1618820997.9506,2.575874,7.79407000541687
1618820997.96622,3.014053,7.809689998626709
1618820997.98185,3.221062,7.82532000541687
1618820997.99747,2.981201,7.840939998626709
1618820998.0131,2.238823,7.85657000541687
1618820998.02872,1.071503,7.872189998626709
1618820998.04435,-0.4020309,7.88782000541687
1618820998.05998,-2.137772,7.903450012207031
1618820998.0756,-4.252922,7.91907000541687
1618820998.09123,-7.002937,7.934700012207031
1618820998.10685,-10.69549,7.95032000541687
1618820998.12248,-15.45839,7.965950012207031
1618820998.1381,-21.14584,7.98157000541687
1618820998.15373,-27.25755,7.997200012207031
1618820998.16936,-32.90128,8.012830018997192
1618820998.18498,-36.99898,8.028450012207031
1618820998.20061,-38.54596,8.044080018997192
1618820998.21623,-36.89878,8.059700012207031
1618820998.23186,-32.01793,8.075330018997192
1618820998.24748,-24.5933,8.090950012207031
1618820998.26311,-15.744,8.106580018997192
1618820998.27874,-6.850395,8.122210025787354
1618820998.29436,0.9319687,8.137830018997192
1618820998.30999,6.898239,8.153460025787354
1618820998.32561,10.81937,8.169080018997192
1618820998.34124,12.79894,8.184710025787354
1618820998.35686,13.06739,8.200330018997192
1618820998.37249,11.90898,8.215960025787354
1618820998.38812,9.569515,8.231590032577515
1618820998.40374,6.461727,8.247210025787354
1618820998.41937,3.06192,8.262840032577515
1618820998.43499,-0.1383858,8.278460025787354
1618820998.45062,-2.77795,8.294090032577515
1618820998.46624,-4.804878,8.309710025787354
1618820998.48187,-6.408562,8.325340032577515
1618820998.4975,-7.910221,8.340970039367676
1618820998.51312,-9.555641,8.356590032577515
1618820998.52875,-11.43673,8.372220039367676
1618820998.54437,-13.45226,8.387840032577515
1618820998.56,-15.44003,8.403470039367676
1618820998.57562,-17.28466,8.419090032577515
1618820998.59125,-18.93092,8.434720039367676
1618820998.60688,-20.52567,8.450350046157837
1618820998.6225,-22.26512,8.465970039367676
1618820998.63813,-24.46933,8.481600046157837
1618820998.65375,-27.51477,8.497220039367676
1618820998.66938,-31.68496,8.512850046157837
1618820998.685,-36.9495,8.528470039367676
1618820998.70063,-42.79797,8.544100046157837
1618820998.71626,-48.25329,8.559730052947998
1618820998.73188,-52.05504,8.575350046157837
1618820998.74751,-53.1388,8.590980052947998
1618820998.76313,-50.97437,8.606600046157837
1618820998.77876,-45.79874,8.622230052947998
1618820998.79438,-38.50249,8.637850046157837
1618820998.81001,-30.25455,8.653480052947998
1618820998.82564,-22.07641,8.66911005973816
1618820998.84126,-14.6043,8.684730052947998
1618820998.85689,-8.096906,8.70036005973816
1618820998.87251,-2.673985,8.715980052947998
1618820998.88814,1.438252,8.73161005973816
1618820998.90376,4.024399,8.747230052947998
1618820998.91939,5.131248,8.76286005973816
1618820998.93502,5.426775,8.77849006652832
1618820998.95064,6.308792,8.79411005973816
1618820998.96627,9.532171,8.80974006652832
1618820998.98189,16.43451,8.82536005973816
1618820998.99752,27.3135,8.84099006652832
1618820999.01314,41.06072,8.85661005973816
1618820999.02877,55.50881,8.87224006652832
1618820999.0444,68.17288,8.887870073318481
1618820999.06002,77.17233,8.90349006652832
1618820999.07565,81.69772,8.919120073318481
1618820999.09127,82.09908,8.93474006652832
1618820999.1069,79.37505,8.950370073318481
1618820999.12252,74.73498,8.96599006652832
1618820999.13815,69.41766,8.981620073318481
1618820999.15378,64.42325,8.997250080108643
1618820999.1694,60.55169,9.012870073318481
1618820999.18503,58.2091,9.028500080108643
1618820999.20065,57.13078,9.044120073318481
1618820999.21628,56.23176,9.059750080108643
1618820999.2319,53.86359,9.075370073318481
1618820999.24753,48.4752,9.091000080108643
1618820999.26316,39.39064,9.106630086898804
1618820999.27878,27.48881,9.122250080108643
1618820999.29441,15.04301,9.137880086898804
1618820999.31003,4.959721,9.153500080108643
1618820999.32566,-0.3166351,9.169130086898804
1618820999.34128,0.09418488,9.184750080108643
1618820999.35691,5.207882,9.200380086898804
1618820999.37254,12.6798,9.216010093688965
1618820999.38816,19.87671,9.231630086898804
1618820999.40379,24.89366,9.247260093688965
1618820999.41941,27.18195,9.262880086898804
1618820999.43504,27.33392,9.278510093688965
1618820999.45067,26.39581,9.294140100479126
1618820999.46629,25.1986,9.309760093688965
1618820999.48192,23.85463,9.325390100479126
1618820999.49754,21.92448,9.341010093688965
1618820999.51317,18.96217,9.356640100479126
1618820999.52879,14.97842,9.372260093688965
1618820999.54442,10.55824,9.387890100479126
1618820999.56005,6.616974,9.403520107269287
1618820999.57567,3.89719,9.419140100479126
1618820999.5913,2.54248,9.434770107269287
1618820999.60692,2.084389,9.450390100479126
1618820999.62255,1.653862,9.466020107269287
1618820999.63817,0.5539055,9.481640100479126
1618820999.6538,-1.456642,9.497270107269287
1618820999.66943,-4.05434,9.512900114059448
1618820999.68505,-6.586086,9.528520107269287
1618820999.70068,-8.491188,9.544150114059448
1618820999.7163,-9.593494,9.559770107269287
1618820999.73193,-10.26883,9.575400114059448
1618820999.74755,-11.22725,9.591020107269287
1618820999.76318,-13.24665,9.606650114059448
1618820999.77881,-16.67824,9.62228012084961
1618820999.79443,-21.33745,9.637900114059448
1618820999.81006,-26.43573,9.65353012084961
1618820999.82568,-30.80334,9.669150114059448
1618820999.84131,-33.24941,9.68478012084961
1618820999.85693,-32.92605,9.700400114059448
1618820999.87256,-29.59358,9.71603012084961
1618820999.88819,-23.62294,9.73166012763977
1618820999.90381,-15.90184,9.74728012084961
1618820999.91944,-7.49827,9.76291012763977
1618820999.93506,0.584877,9.77853012084961
1618820999.95069,7.613749,9.79416012763977
1618820999.96631,13.19907,9.80978012084961
1618820999.98194,17.23233,9.82541012763977
1618820999.99757,19.7452,9.841040134429932
1618821000.01319,20.77179,9.85666012763977
1618821000.02882,20.25942,9.872290134429932
1618821000.04444,18.19087,9.88791012763977
1618821000.06007,14.67972,9.903540134429932
1618821000.07569,10.11804,9.91916012763977
1618821000.09132,5.199395,9.934790134429932
1618821000.10695,0.7552142,9.950420141220093
1618821000.12257,-2.473909,9.966040134429932
1618821000.1382,-4.048822,9.981670141220093
1618821000.15382,-4.073127,9.997290134429932
1618821000.16945,-3.125427,10.012920141220093
1618821000.18507,-2.085302,10.028540134429932
1618821000.2007,-1.772804,10.044170141220093
1618821000.21633,-2.636955,10.059800148010254
1618821000.23195,-4.61768,10.075420141220093
1618821000.24758,-7.213257,10.091050148010254
1618821000.2632,-9.808979,10.106670141220093
1618821000.27883,-12.00018,10.122300148010254
1618821000.29445,-13.89102,10.137920141220093
1618821000.31008,-16.06648,10.153550148010254
1618821000.32571,-19.23641,10.169180154800415
1618821000.34133,-23.79674,10.184800148010254
1618821000.35696,-29.48938,10.200430154800415
1618821000.37258,-35.3297,10.216050148010254
1618821000.38821,-39.91801,10.231680154800415
1618821000.40383,-41.88319,10.247300148010254
1618821000.41946,-40.33647,10.262930154800415
1618821000.43509,-35.11444,10.278560161590576
1618821000.45071,-26.77731,10.294180154800415
1618821000.46634,-16.28489,10.309810161590576
1618821000.48196,-4.846844,10.325430154800415
1618821000.49759,6.352222,10.341060161590576
1618821000.51321,16.2763,10.356680154800415
1618821000.52884,24.0666,10.372310161590576
1618821000.54447,29.15654,10.387940168380737
1618821000.56009,31.35532,10.403560161590576
1618821000.57572,30.86504,10.419190168380737
1618821000.59134,28.2485,10.434810161590576
1618821000.60697,24.31487,10.450440168380737
1618821000.62259,19.95285,10.466060161590576
1618821000.63822,15.92472,10.481690168380737
1618821000.65385,12.71932,10.497320175170898
1618821000.66947,10.44279,10.512940168380737
1618821000.6851,8.849331,10.528570175170898
1618821000.70072,7.414143,10.544190168380737
1618821000.71635,5.609295,10.559820175170898
1618821000.73197,3.127743,10.575440168380737
1618821000.7476,0.00446701,10.591070175170898
1618821000.76323,-3.393486,10.60670018196106
1618821000.77885,-6.5947,10.622320175170898
1618821000.79448,-9.20948,10.63795018196106
1618821000.8101,-11.17431,10.653570175170898
1618821000.82573,-12.72593,10.66920018196106
1618821000.84135,-14.36399,10.684820175170898
1618821000.85698,-16.59359,10.70045018196106
1618821000.87261,-19.75971,10.71608018875122
1618821000.88823,-23.91674,10.73170018196106
1618821000.90386,-28.69944,10.74733018875122
1618821000.91948,-33.34193,10.76295018196106
1618821000.93511,-36.68462,10.77858018875122
1618821000.95073,-37.56073,10.79420018196106
1618821000.96636,-35.11368,10.80983018875122
1618821000.98199,-29.23239,10.825460195541382
1618821000.99761,-20.61379,10.84108018875122
1618821001.01324,-10.58202,10.856710195541382
1618821001.02886,-0.6479034,10.87233018875122
1618821001.04449,7.985802,10.887960195541382
1618821001.06011,14.67722,10.90358018875122
1618821001.07574,19.35462,10.919210195541382
1618821001.09137,22.21101,10.934840202331543
1618821001.10699,23.47656,10.950460195541382
1618821001.12262,23.23403,10.966090202331543
1618821001.13824,21.67561,10.981710195541382
1618821001.15387,19.10829,10.997340202331543
1618821001.16949,16.08368,11.012960195541382
1618821001.18512,13.22506,11.028590202331543
1618821001.20075,11.00638,11.044220209121704
1618821001.21637,9.589558,11.059840202331543
1618821001.232,8.770748,11.075470209121704
1618821001.24762,8.153618,11.091090202331543
1618821001.26325,7.278404,11.106720209121704
1618821001.27887,5.816757,11.122340202331543
1618821001.2945,3.609634,11.137970209121704
1618821001.31013,0.6314316,11.153599977493286
1618821001.32575,-3.005013,11.169220209121704
1618821001.34138,-7.152004,11.184849977493286
1618821001.357,-11.57855,11.200470209121704
1618821001.37263,-16.01103,11.216099977493286
1618821001.38825,-20.17757,11.231720209121704
1618821001.40388,-23.89806,11.247349977493286
1618821001.41951,-27.17051,11.262979984283447
1618821001.43513,-30.14359,11.278599977493286
1618821001.45076,-33.09324,11.294229984283447
1618821001.46638,-36.15639,11.309849977493286
1618821001.48201,-39.23376,11.325479984283447
1618821001.49763,-41.83495,11.341099977493286
1618821001.51326,-43.11644,11.356729984283447
1618821001.52889,-42.13951,11.372359991073608
1618821001.54451,-38.24363,11.387979984283447
1618821001.56014,-31.35761,11.403609991073608
1618821001.57576,-22.0415,11.419229984283447
1618821001.59139,-11.44894,11.434859991073608
1618821001.60701,-0.8768692,11.450479984283447
1618821001.62264,8.514366,11.466109991073608
1618821001.63827,16.0038,11.48173999786377
1618821001.65389,21.33964,11.497359991073608
1618821001.66952,24.66493,11.51298999786377
1618821001.68514,26.34989,11.528609991073608
1618821001.70077,26.86337,11.54423999786377
1618821001.71639,26.791,11.559859991073608
1618821001.73202,26.7106,11.57548999786377
1618821001.74765,27.20169,11.59112000465393
1618821001.76327,28.60503,11.60673999786377
1618821001.7789,30.9274,11.62237000465393
1618821001.79452,33.75273,11.63798999786377
1618821001.81015,36.37671,11.65362000465393
1618821001.82578,38.01272,11.669250011444092
1618821001.8414,38.08235,11.68487000465393
1618821001.85703,36.43363,11.700500011444092
1618821001.87265,33.38783,11.71612000465393
1618821001.88828,29.55864,11.731750011444092
1618821001.9039,25.57423,11.74737000465393
1618821001.91953,21.83513,11.763000011444092
1618821001.93516,18.38699,11.778630018234253
1618821001.95078,14.939,11.794250011444092
1618821001.96641,11.07293,11.809880018234253
1618821001.98203,6.439236,11.825500011444092
1618821001.99766,0.9559517,11.841130018234253
1618821002.01328,-5.148178,11.856750011444092
1618821002.02891,-11.29465,11.872380018234253
1618821002.04454,-16.75493,11.888010025024414
1618821002.06016,-20.79596,11.903630018234253
1618821002.07579,-22.80356,11.919260025024414
1618821002.09141,-22.46745,11.934880018234253
1618821002.10704,-19.83878,11.950510025024414
1618821002.12266,-15.33765,11.966130018234253
1618821002.13829,-9.653084,11.981760025024414
1618821002.15392,-3.752449,11.997390031814575
1618821002.16954,1.466545,12.013010025024414
1618821002.18517,5.238289,12.028640031814575
1618821002.20079,7.113556,12.044260025024414
1618821002.21642,6.964592,12.059890031814575
1618821002.23204,4.995811,12.075510025024414
1618821002.24767,1.619606,12.091140031814575
1618821002.2633,-2.607376,12.106770038604736
1618821002.27892,-7.005791,12.122390031814575
1618821002.29455,-10.95014,12.138020038604736
1618821002.31017,-13.84563,12.153640031814575
1618821002.3258,-15.37594,12.169270038604736
1618821002.34142,-15.48027,12.184890031814575
1618821002.35705,-14.48772,12.200520038604736
1618821002.37268,-12.93101,12.216150045394897
1618821002.3883,-11.35923,12.231770038604736
1618821002.40393,-10.21645,12.247400045394897
1618821002.41955,-9.635147,12.263020038604736
1618821002.43518,-9.542389,12.278650045394897
1618821002.4508,-9.714149,12.294270038604736
1618821002.46643,-9.968872,12.309900045394897
1618821002.48206,-10.22705,12.325530052185059
1618821002.49768,-10.5455,12.341150045394897
1618821002.51331,-11.12552,12.356780052185059
1618821002.52893,-12.26587,12.372400045394897
1618821002.54456,-14.31468,12.388030052185059
1618821002.56018,-17.48844,12.403650045394897
1618821002.57581,-21.68404,12.419280052185059
1618821002.59144,-26.28546,12.43491005897522
1618821002.60706,-30.1835,12.450530052185059
1618821002.62269,-31.9996,12.46616005897522
1618821002.63831,-30.50268,12.481780052185059
1618821002.65394,-25.18033,12.49741005897522
1618821002.66956,-16.46195,12.513030052185059
1618821002.68519,-5.683548,12.52866005897522
1618821002.70082,5.386345,12.54429006576538
1618821002.71644,15.02332,12.55991005897522
1618821002.73207,22.14459,12.57554006576538
1618821002.74769,26.43106,12.59116005897522
1618821002.76332,28.15329,12.60679006576538
1618821002.77894,27.85759,12.62241005897522
1618821002.79457,26.03299,12.63804006576538
1618821002.8102,23.05466,12.653670072555542
1618821002.82582,19.19837,12.66929006576538
1618821002.84145,14.94428,12.684920072555542
1618821002.85707,10.90347,12.70054006576538
1618821002.8727,7.767166,12.716170072555542
1618821002.88832,5.99826,12.73179006576538
1618821002.90395,5.512619,12.747420072555542
1618821002.91958,5.623329,12.763050079345703
1618821002.9352,5.300476,12.778670072555542
1618821002.95083,3.600197,12.794300079345703
1618821002.96645,0.1493378,12.809920072555542
1618821002.98208,-4.663536,12.825550079345703
1618821002.9977,-9.934322,12.841170072555542
1618821003.01333,-14.5666,12.856800079345703
1618821003.02896,-17.8297,12.872430086135864
1618821003.04458,-19.60708,12.888050079345703
1618821003.06021,-20.39612,12.903680086135864
1618821003.07583,-21.0187,12.919300079345703
1618821003.09146,-22.3512,12.934930086135864
1618821003.10708,-24.97883,12.950550079345703
1618821003.12271,-28.95959,12.966180086135864
1618821003.13834,-33.78324,12.981810092926025
1618821003.15396,-38.40186,12.997430086135864
1618821003.16959,-41.4549,13.013060092926025
1618821003.18521,-41.69305,13.028680086135864
1618821003.20084,-38.28827,13.044310092926025
1618821003.21646,-31.20342,13.059930086135864
1618821003.23209,-21.28573,13.075560092926025
1618821003.24772,-9.993828,13.091190099716187
1618821003.26334,1.069519,13.106810092926025
1618821003.27897,10.55024,13.122440099716187
1618821003.29459,17.74417,13.138060092926025
1618821003.31022,22.56292,13.153690099716187
1618821003.32584,25.27863,13.169310092926025
1618821003.34147,26.34159,13.184940099716187
1618821003.3571,26.14903,13.200570106506348
1618821003.37272,24.99319,13.216190099716187
1618821003.38835,23.14252,13.231820106506348
1618821003.40397,21.00316,13.247440099716187
1618821003.4196,18.95737,13.263070106506348
1618821003.43522,17.39512,13.278690099716187
1618821003.45085,16.48185,13.294320106506348
1618821003.46648,16.03811,13.309950113296509
1618821003.4821,15.68321,13.325570106506348
1618821003.49773,14.97836,13.341200113296509
1618821003.51335,13.66104,13.356820106506348
1618821003.52898,11.74999,13.372450113296509
1618821003.5446,9.610588,13.388070106506348
1618821003.56023,7.692146,13.403700113296509
1618821003.57586,6.403927,13.41933012008667
1618821003.59148,5.900951,13.434950113296509
1618821003.60711,6.009277,13.45058012008667
1618821003.62273,6.303326,13.466200113296509
1618821003.63836,6.247169,13.48183012008667
1618821003.65398,5.363773,13.497450113296509
1618821003.66961,3.331751,13.51308012008667
1618821003.68524,0.1443539,13.528710126876831
1618821003.70086,-3.929834,13.54433012008667
1618821003.71649,-8.302368,13.559960126876831
1618821003.73211,-12.20728,13.57558012008667
1618821003.74774,-14.82235,13.591210126876831
1618821003.76336,-15.4727,13.60683012008667
1618821003.77899,-13.8193,13.622460126876831
1618821003.79462,-9.922955,13.638090133666992
1618821003.81024,-4.179968,13.653710126876831
1618821003.82587,2.777672,13.669340133666992
1618821003.84149,10.21591,13.684960126876831
1618821003.85712,17.40347,13.700590133666992
1618821003.87274,23.72867,13.716210126876831
1618821003.88837,28.65998,13.731840133666992
1618821003.904,31.87824,13.747470140457153
1618821003.91962,33.23769,13.763090133666992
1618821003.93525,32.81791,13.778720140457153
1618821003.95087,30.92156,13.794340133666992
1618821003.9665,27.98644,13.809970140457153
1618821003.98212,24.47248,13.825590133666992
1618821003.99775,20.80148,13.841220140457153
1618821004.01338,17.39821,13.856850147247314
1618821004.029,14.58807,13.872470140457153
1618821004.04463,12.65022,13.888100147247314
1618821004.06025,11.66293,13.903720140457153
1618821004.07588,11.50333,13.919350147247314
1618821004.09151,11.71198,13.934980154037476
1618821004.10713,11.69347,13.950600147247314
1618821004.12276,10.84801,13.966230154037476
1618821004.13838,8.830803,13.981850147247314
1618821004.15401,5.726582,13.997480154037476
1618821004.16963,1.894588,14.013100147247314
1618821004.18526,-2.144238,14.028730154037476
1618821004.20089,-5.998569,14.044360160827637
1618821004.21651,-9.513632,14.059980154037476
1618821004.23214,-12.83837,14.075610160827637
1618821004.24776,-16.14154,14.091230154037476
1618821004.26339,-19.52589,14.106860160827637
1618821004.27901,-22.95437,14.122480154037476
1618821004.29464,-26.30007,14.138110160827637
1618821004.31027,-29.5678,14.153740167617798
1618821004.32589,-32.80581,14.169360160827637
1618821004.34152,-36.03095,14.184990167617798
1618821004.35714,-38.90717,14.200610160827637
1618821004.37277,-40.70429,14.216240167617798
1618821004.38839,-40.31744,14.231860160827637
1618821004.40402,-36.84942,14.247490167617798
1618821004.41965,-30.04397,14.263120174407959
1618821004.43527,-20.64125,14.278740167617798
1618821004.4509,-10.20869,14.294370174407959
1618821004.46652,-0.4873238,14.309990167617798
1618821004.48215,7.197388,14.325620174407959
1618821004.49777,12.39872,14.341240167617798
1618821004.5134,15.40709,14.356870174407959
1618821004.52903,16.86274,14.37250018119812
1618821004.54465,17.20819,14.388120174407959
1618821004.56028,16.49655,14.40375018119812
1618821004.5759,14.59586,14.419370174407959
1618821004.59153,11.55892,14.43500018119812
1618821004.60715,7.917902,14.450620174407959
1618821004.62278,4.55698,14.46625018119812
1618821004.63841,2.355978,14.481880187988281
1618821004.65403,1.699604,14.49750018119812
1618821004.66966,2.347723,14.513130187988281
1618821004.68528,3.554701,14.52875018119812
1618821004.70091,4.487059,14.544380187988281
1618821004.71653,4.697252,14.56000018119812
1618821004.73216,4.207039,14.575630187988281
1618821004.74779,3.41848,14.591260194778442
1618821004.76341,2.752636,14.606880187988281
1618821004.77904,2.419361,14.622510194778442
1618821004.79466,2.301884,14.638130187988281
1618821004.81029,2.06448,14.653760194778442
1618821004.82591,1.371841,14.669380187988281
1618821004.84154,-0.01918602,14.685010194778442
1618821004.85717,-2.100452,14.700640201568604
1618821004.87279,-4.772854,14.716260194778442
1618821004.88842,-7.887654,14.731890201568604
1618821004.90404,-11.26749,14.747510194778442
1618821004.91967,-14.63535,14.763140201568604
1618821004.93529,-17.44966,14.778760194778442
1618821004.95092,-18.94584,14.794390201568604
1618821004.96655,-18.23155,14.810020208358765
1618821004.98217,-14.63757,14.825640201568604
1618821004.9978,-7.996118,14.841270208358765
1618821005.01342,1.093321,14.856890201568604
1618821005.02905,11.32705,14.872520208358765
1618821005.04467,21.11983,14.888140201568604
1618821005.0603,29.04995,14.903770208358765
1618821005.07593,34.34657,14.919400215148926
1618821005.09155,36.97623,14.935020208358765
1618821005.10718,37.48382,14.950650215148926
1618821005.1228,36.58106,14.966270208358765
1618821005.13843,34.91057,14.981900215148926
1618821005.15405,32.83337,14.997520208358765
1618821005.16968,30.55171,15.013150215148926
1618821005.18531,28.29238,15.028779983520508
1618821005.20093,26.26061,15.044400215148926
1618821005.21656,24.6255,15.060029983520508
1618821005.23218,23.29184,15.075650215148926
1618821005.24781,21.91719,15.091279983520508
1618821005.26343,19.95034,15.106900215148926
1618821005.27906,16.94661,15.122529983520508
1618821005.29469,12.90175,15.138159990310669
1618821005.31031,8.331284,15.153779983520508
1618821005.32594,4.132313,15.169409990310669
1618821005.34156,1.146311,15.185029983520508
1618821005.35719,-0.1284351,15.200659990310669
1618821005.37281,0.2178173,15.216279983520508
1618821005.38844,1.617437,15.231909990310669
1618821005.40407,3.238535,15.24753999710083
1618821005.41969,4.208435,15.263159990310669
1618821005.43532,3.834064,15.27878999710083
1618821005.45094,1.661083,15.294409990310669
1618821005.46657,-2.431412,15.31003999710083
1618821005.48219,-8.226303,15.325659990310669
1618821005.49782,-15.0908,15.34128999710083
1618821005.51345,-21.97938,15.356920003890991
1618821005.52907,-27.6058,15.37253999710083
1618821005.5447,-30.7191,15.388170003890991
1618821005.56032,-30.47408,15.40378999710083
1618821005.57595,-26.69044,15.419420003890991
1618821005.59157,-19.96448,15.43503999710083
1618821005.6072,-11.39226,15.450670003890991
1618821005.62283,-2.312775,15.466300010681152
1618821005.63845,6.088627,15.481920003890991
1618821005.65408,12.97849,15.497550010681152
1618821005.6697,17.95909,15.513170003890991
1618821005.68533,20.98367,15.528800010681152
1618821005.70095,22.18526,15.544420003890991
1618821005.71658,21.78772,15.560050010681152
1618821005.73221,20.0669,15.575680017471313
1618821005.74783,17.42093,15.591300010681152
1618821005.76346,14.34179,15.606930017471313
1618821005.77908,11.39758,15.622550010681152
1618821005.79471,9.075294,15.638180017471313
1618821005.81033,7.737907,15.653800010681152
1618821005.82596,7.533707,15.669430017471313
1618821005.84159,8.299866,15.685060024261475
1618821005.85721,9.705391,15.700680017471313
1618821005.87284,11.28149,15.716310024261475
1618821005.88846,12.52467,15.731930017471313
1618821005.90409,13.01551,15.747560024261475
1618821005.91971,12.54052,15.763180017471313
1618821005.93534,11.07867,15.778810024261475
1618821005.95097,8.809593,15.794440031051636
1618821005.96659,5.992218,15.810060024261475
1618821005.98222,2.851166,15.825690031051636
1618821005.99784,-0.4840317,15.841310024261475
1618821006.01347,-3.988632,15.856940031051636
1618821006.02909,-7.659485,15.872560024261475
1618821006.04472,-11.5017,15.888190031051636
1618821006.06035,-15.51169,15.903820037841797
1618821006.07597,-19.6291,15.919440031051636
1618821006.0916,-23.81356,15.935070037841797
1618821006.10722,-27.92278,15.950690031051636
1618821006.12285,-31.55437,15.966320037841797
1618821006.13847,-34.03098,15.981940031051636
1618821006.1541,-34.52335,15.997570037841797
1618821006.16973,-32.26251,16.013200044631958
1618821006.18535,-26.95193,16.028820037841797
1618821006.20098,-19.00961,16.044450044631958
1618821006.2166,-9.531113,16.060070037841797
1618821006.23223,-0.001823425,16.075700044631958
1618821006.24785,8.176125,16.091320037841797
1618821006.26348,14.13081,16.106950044631958
1618821006.27911,17.66109,16.12258005142212
1618821006.29473,19.1172,16.138200044631958
1618821006.31036,19.09705,16.15383005142212
1618821006.32598,18.16069,16.169450044631958
1618821006.34161,16.60416,16.18508005142212
1618821006.35723,14.56947,16.200700044631958
1618821006.37286,12.17352,16.21633005142212
1618821006.38849,9.703842,16.23196005821228
1618821006.40411,7.576981,16.24758005142212
1618821006.41974,6.226151,16.26321005821228
1618821006.43536,5.84201,16.27883005142212
1618821006.45099,6.26088,16.29446005821228
1618821006.46661,6.964035,16.31008005142212
1618821006.48224,7.265564,16.32571005821228
1618821006.49787,6.684769,16.34134006500244
1618821006.51349,5.073822,16.35696005821228
1618821006.52912,2.707397,16.37259006500244
1618821006.54474,0.04725647,16.38821005821228
1618821006.56037,-2.458969,16.40384006500244
1618821006.57599,-4.544937,16.41946005821228
1618821006.59162,-6.246292,16.43509006500244
1618821006.60725,-7.788437,16.450720071792603
1618821006.62287,-9.523636,16.46634006500244
1618821006.6385,-11.72923,16.481970071792603
1618821006.65412,-14.6044,16.49759006500244
1618821006.66975,-18.18938,16.513220071792603
1618821006.68537,-22.34846,16.52884006500244
1618821006.701,-26.67305,16.544470071792603
1618821006.71663,-30.45042,16.560100078582764
1618821006.73225,-32.75586,16.575720071792603
1618821006.74788,-32.71773,16.591350078582764
1618821006.7635,-29.80357,16.606970071792603
1618821006.77913,-24.08575,16.622600078582764
1618821006.79476,-16.27429,16.638230085372925
1618821006.81038,-7.503372,16.653850078582764
1618821006.82601,1.062836,16.669480085372925
1618821006.84163,8.523865,16.685100078582764
1618821006.85726,14.438,16.700730085372925
1618821006.87288,18.76392,16.716350078582764
1618821006.88851,21.59937,16.731980085372925
1618821006.90414,23.09494,16.747610092163086
1618821006.91976,23.35611,16.763230085372925
1618821006.93539,22.52815,16.778860092163086
1618821006.95101,20.92923,16.794480085372925
1618821006.96664,19.11436,16.810110092163086
1618821006.98226,17.69962,16.825730085372925
1618821006.99789,17.16487,16.841360092163086
1618821007.01352,17.66888,16.856990098953247
1618821007.02914,18.95761,16.872610092163086
1618821007.04477,20.4391,16.888240098953247
1618821007.06039,21.42334,16.903860092163086
1618821007.07602,21.3502,16.919490098953247
1618821007.09164,20.02133,16.935110092163086
1618821007.10727,17.60747,16.950740098953247
1618821007.1229,14.57115,16.966370105743408
1618821007.13852,11.41852,16.981990098953247
1618821007.15415,8.549286,16.997620105743408
1618821007.16977,6.105576,17.013240098953247
1618821007.1854,3.942474,17.028870105743408
1618821007.20102,1.68689,17.044490098953247
1618821007.21665,-1.200058,17.060120105743408
1618821007.23228,-5.230286,17.07575011253357
1618821007.2479,-10.7155,17.091370105743408
1618821007.26353,-17.62592,17.10700011253357
1618821007.27915,-25.43916,17.122620105743408
1618821007.29478,-33.0976,17.13825011253357
1618821007.3104,-39.22476,17.153870105743408
1618821007.32603,-42.4093,17.16950011253357
1618821007.34166,-41.66678,17.18513011932373
1618821007.35728,-36.84668,17.20075011253357
1618821007.37291,-28.68953,17.21638011932373
1618821007.38853,-18.69391,17.23200011253357
1618821007.40416,-8.637238,17.24763011932373
1618821007.41978,-0.009124756,17.26325011253357
1618821007.43541,6.345566,17.27888011932373
1618821007.45104,10.3475,17.29451012611389
1618821007.46666,12.43925,17.31013011932373
1618821007.48229,13.24007,17.32576012611389
1618821007.49791,13.18123,17.34138011932373
1618821007.51354,12.43686,17.35701012611389
1618821007.52916,11.06543,17.37263011932373
1618821007.54479,9.157654,17.38826012611389
1618821007.56042,7.067764,17.403890132904053
1618821007.57604,5.306671,17.41951012611389
1618821007.59167,4.402405,17.435140132904053
1618821007.60729,4.603333,17.45076012611389
1618821007.62292,5.730865,17.466390132904053
1618821007.63854,7.231567,17.48201012611389
1618821007.65417,8.388763,17.497640132904053
1618821007.6698,8.71225,17.513270139694214
1618821007.68542,8.005219,17.528890132904053
1618821007.70105,6.560059,17.544520139694214
1618821007.71667,4.834808,17.560140132904053
1618821007.7323,3.276947,17.575770139694214
1618821007.74792,2.064484,17.591390132904053
1618821007.76355,1.129639,17.607020139694214
1618821007.77918,0.2485962,17.622650146484375
1618821007.7948,-0.7444763,17.638270139694214
1618821007.81043,-1.839874,17.653900146484375
1618821007.82605,-3.07019,17.669520139694214
1618821007.84168,-4.47757,17.685150146484375
1618821007.8573,-6.263611,17.700770139694214
1618821007.87293,-8.519348,17.716400146484375
1618821007.88856,-10.92603,17.732030153274536
1618821007.90418,-12.54633,17.747650146484375
1618821007.91981,-11.91757,17.763280153274536
1618821007.93543,-7.629913,17.778900146484375
1618821007.95106,1.128937,17.794530153274536
1618821007.96668,13.99448,17.810150146484375
1618821007.98231,29.54712,17.825780153274536
1618821007.99794,45.72095,17.841410160064697
1618821008.01356,60.6171,17.857030153274536
1618821008.02919,73.12061,17.872660160064697
1618821008.04481,83.10641,17.888280153274536
1618821008.06044,91.27313,17.903910160064697
1618821008.07606,98.52869,17.919530153274536
1618821008.09169,105.5826,17.935160160064697
1618821008.10732,112.6306,17.95079016685486
1618821008.12294,119.4858,17.966410160064697
1618821008.13857,125.7534,17.98204016685486
1618821008.15419,131.1143,17.997660160064697
1618821008.16982,135.6159,18.01329016685486
1618821008.18544,139.5141,18.028910160064697
1618821008.20107,143.2543,18.04454016685486
1618821008.2167,147.2648,18.06017017364502
1618821008.23232,151.878,18.07579016685486
1618821008.24795,157.1828,18.09142017364502
1618821008.26357,162.9429,18.10704016685486
1618821008.2792,168.3388,18.12267017364502
1618821008.29482,171.7586,18.13829016685486
1618821008.31045,170.9419,18.15392017364502
1618821008.32608,163.3365,18.16955018043518
1618821008.3417,147.0712,18.18517017364502
1618821008.35733,121.7416,18.20080018043518
1618821008.37295,88.84784,18.21642017364502
1618821008.38858,51.49207,18.23205018043518
1618821008.4042,13.34424,18.24767017364502
1618821008.41983,-22.44385,18.26330018043518
1618821008.43546,-54.07892,18.278930187225342
1618821008.45108,-81.04651,18.29455018043518
1618821008.46671,-103.5399,18.310180187225342
1618821008.48233,-121.5424,18.32580018043518
1618821008.49796,-134.4091,18.341430187225342
1618821008.51358,-141.0132,18.35705018043518
1618821008.52921,-140.4235,18.372680187225342
1618821008.54484,-132.6031,18.388310194015503
1618821008.56046,-118.6002,18.403930187225342
1618821008.57609,-100.2299,18.419560194015503
1618821008.59171,-79.27167,18.435180187225342
1618821008.60734,-56.79279,18.450810194015503
1618821008.62296,-32.7431,18.466430187225342
1618821008.63859,-6.235046,18.482060194015503
1618821008.65422,23.80267,18.497690200805664
1618821008.66984,57.83038,18.513310194015503
1618821008.68547,95.04272,18.528940200805664
1618821008.70109,133.3182,18.544560194015503
1618821008.71672,169.6467,18.560190200805664
1618821008.73234,200.9794,18.575810194015503
1618821008.74797,224.9404,18.591440200805664
1618821008.7636,240.2321,18.607070207595825
1618821008.77922,246.3796,18.622690200805664
1618821008.79485,243.1771,18.638320207595825
1618821008.81047,230.0964,18.653940200805664
1618821008.8261,205.911,18.669570207595825
1618821008.84172,169.0846,18.685190200805664
1618821008.85735,118.4343,18.700820207595825
1618821008.87298,53.88263,18.716450214385986
1618821008.8886,-23.3764,18.732070207595825
1618821008.90423,-110.9621,18.747700214385986
1618821008.91985,-205.4871,18.763320207595825
1618821008.93548,-302.3031,18.778950214385986
1618821008.95111,-395.1199,18.79457998275757
1618821008.96673,-476.1644,18.810200214385986
1618821008.98236,-537.2211,18.82582998275757
1618821008.99798,-571.7544,18.841450214385986
1618821009.01361,-577.0564,18.85707998275757
1618821009.02923,-555.4683,18.872700214385986
1618821009.04486,-513.7119,18.88832998275757
1618821009.06049,-460.6396,18.90395998954773
1618821009.07611,-404.3982,18.91957998275757
1618821009.09174,-350.3491,18.93520998954773
1618821009.10736,-300.8102,18.95082998275757
1618821009.12299,-256.2709,18.96645998954773
1618821009.13861,-217.1066,18.98207998275757
1618821009.15424,-184.5106,18.99770998954773
1618821009.16987,-160.1638,19.01333999633789
1618821009.18549,-144.7552,19.02895998954773
1618821009.20112,-136.708,19.04458999633789
1618821009.21674,-131.905,19.06020998954773
1618821009.23237,-124.8417,19.07583999633789
1618821009.24799,-110.8671,19.09145998954773
1618821009.26362,-88.17029,19.10708999633789
1618821009.27925,-58.86646,19.12272000312805
1618821009.29487,-28.32373,19.13833999633789
1618821009.3105,-2.963745,19.15397000312805
1618821009.32612,12.41687,19.16958999633789
1618821009.34175,16.41077,19.18522000312805
1618821009.35737,11.38074,19.20083999633789
1618821009.373,2.077393,19.21647000312805
1618821009.38863,-6.583374,19.232100009918213
1618821009.40425,-11.30408,19.24772000312805
1618821009.41988,-11.20703,19.263350009918213
1618821009.4355,-7.388306,19.27897000312805
1618821009.45113,-1.749573,19.294600009918213
1618821009.46675,4.098267,19.31022000312805
1618821009.48238,9.29541,19.325850009918213
1618821009.49801,13.59656,19.341480016708374
1618821009.51363,16.89789,19.357100009918213
1618821009.52926,18.92273,19.372730016708374
1618821009.54488,19.24158,19.388350009918213
1618821009.56051,17.58545,19.403980016708374
1618821009.57613,14.10571,19.419600009918213
1618821009.59176,9.536011,19.435230016708374
1618821009.60739,4.931396,19.450860023498535
1618821009.62301,1.229614,19.466480016708374
1618821009.63864,-1.081543,19.482110023498535
1618821009.65426,-2.209229,19.497730016708374
1618821009.66989,-2.999634,19.513360023498535
1618821009.68551,-4.575378,19.528980016708374
1618821009.70114,-7.871643,19.544610023498535
1618821009.71677,-13.02899,19.560240030288696
1618821009.73239,-19.05182,19.575860023498535
1618821009.74802,-23.99469,19.591490030288696
1618821009.76364,-25.60797,19.607110023498535
1618821009.77927,-22.21002,19.622740030288696
1618821009.79489,-13.53497,19.638360023498535
1618821009.81052,-0.9345703,19.653990030288696
1618821009.82615,13.11993,19.669620037078857
1618821009.84177,25.91882,19.685240030288696
1618821009.8574,35.50452,19.700870037078857
1618821009.87302,41.23792,19.716490030288696
1618821009.88865,43.57312,19.732120037078857
1618821009.90427,43.47595,19.747740030288696
1618821009.9199,41.74835,19.763370037078857
1618821009.93553,38.72894,19.77900004386902
1618821009.95115,34.45984,19.794620037078857
1618821009.96678,29.17249,19.81025004386902
1618821009.9824,23.57111,19.825870037078857
1618821009.99803,18.77252,19.84150004386902
1618821010.01365,15.92474,19.857120037078857
1618821010.02928,15.49652,19.87275004386902
1618821010.04491,17.04437,19.88838005065918
1618821010.06053,19.31964,19.90400004386902
1618821010.07616,20.85205,19.91963005065918
1618821010.09178,20.59467,19.93525004386902
1618821010.10741,18.40567,19.95088005065918
1618821010.12303,14.98611,19.96650004386902
1618821010.13866,11.48526,19.98213005065918
1618821010.15429,8.917175,19.99776005744934
1618821010.16991,7.656647,20.01338005065918
1618821010.18554,7.354889,20.02901005744934
1618821010.20116,7.102509,20.04463005065918
1618821010.21679,5.865356,20.06026005744934
1618821010.23241,2.833618,20.07588005065918
1618821010.24804,-2.305481,20.09151005744934
1618821010.26367,-9.35733,20.107140064239502
1618821010.27929,-17.65222,20.12276005744934
1618821010.29492,-26.11551,20.138390064239502
1618821010.31054,-33.38376,20.15401005744934
1618821010.32617,-37.94836,20.169640064239502
1618821010.34179,-38.40283,20.18526005744934
1618821010.35742,-33.8616,20.200890064239502
1618821010.37305,-24.27206,20.216520071029663
1618821010.38867,-10.64612,20.232140064239502
1618821010.4043,5.076233,20.247770071029663
1618821010.41992,20.50595,20.263390064239502
1618821010.43555,33.44812,20.279020071029663
1618821010.45117,42.44342,20.294640064239502
1618821010.4668,46.98801,20.310270071029663
1618821010.48243,47.46602,20.325900077819824
1618821010.49805,44.7307,20.341520071029663
1618821010.51368,39.84541,20.357150077819824
1618821010.5293,33.88976,20.372770071029663
1618821010.54493,27.77803,20.388400077819824
1618821010.56055,22.27481,20.404020071029663
1618821010.57618,17.90387,20.419650077819824
1618821010.59181,14.87933,20.435280084609985
1618821010.60743,13.09213,20.450900077819824
1618821010.62306,12.27074,20.466530084609985
1618821010.63868,12.05599,20.482150077819824
1618821010.65431,12.13329,20.497780084609985
1618821010.66993,12.27975,20.513400077819824
1618821010.68556,12.19476,20.529030084609985
1618821010.70119,11.50948,20.544660091400146
1618821010.71681,9.883644,20.560280084609985
1618821010.73244,7.118755,20.575910091400146
1618821010.74806,3.340767,20.591530084609985
1618821010.76369,-0.9898186,20.607160091400146
1618821010.77931,-5.359243,20.622780084609985
1618821010.79494,-9.473402,20.638410091400146
1618821010.81057,-13.42426,20.654040098190308
1618821010.82619,-17.67306,20.669660091400146
1618821010.84182,-22.68396,20.685290098190308
1618821010.85744,-28.49862,20.700910091400146
1618821010.87307,-34.49369,20.716540098190308
1618821010.88869,-39.40834,20.732160091400146
1618821010.90432,-41.63694,20.747790098190308
1618821010.91995,-39.81813,20.76342010498047
1618821010.93557,-33.23118,20.779040098190308
1618821010.9512,-22.05084,20.79467010498047
1618821010.96682,-7.380646,20.810290098190308
1618821010.98245,9.028053,20.82592010498047
1618821010.99807,25.24209,20.841540098190308
1618821011.0137,39.5251,20.85717010498047
1618821011.02933,50.73045,20.87280011177063
1618821011.04495,58.48949,20.88842010498047
1618821011.06058,63.06038,20.90405011177063
1618821011.0762,65.14252,20.91967010498047
1618821011.09183,65.51239,20.93530011177063
1618821011.10745,64.79597,20.95092010498047
1618821011.12308,63.33368,20.96655011177063
1618821011.13871,61.39806,20.98218011856079
1618821011.15433,59.20808,20.99780011177063
1618821011.16996,57.08406,21.01343011856079
1618821011.18558,55.38528,21.02905011177063
1618821011.20121,54.22047,21.04468011856079
1618821011.21684,53.41856,21.060310125350952
1618821011.23246,52.45367,21.07593011856079
1618821011.24809,50.73033,21.091560125350952
1618821011.26371,47.86047,21.10718011856079
1618821011.27934,43.89017,21.122810125350952
1618821011.29496,39.2804,21.13843011856079
1618821011.31059,34.69293,21.154060125350952
1618821011.32622,30.76151,21.169690132141113
1618821011.34184,27.73331,21.185310125350952
1618821011.35747,25.45758,21.200940132141113
1618821011.37309,23.44147,21.216560125350952
1618821011.38872,20.9711,21.232190132141113
1618821011.40434,17.44736,21.247810125350952
1618821011.41997,12.46469,21.263440132141113
1618821011.4356,5.930908,21.279070138931274
1618821011.45122,-1.911377,21.294690132141113
1618821011.46685,-10.44949,21.310320138931274
1618821011.48247,-18.74658,21.325940132141113
1618821011.4981,-25.51794,21.341570138931274
1618821011.51372,-29.41177,21.357190132141113
1618821011.52935,-29.29788,21.372820138931274
1618821011.54498,-24.61224,21.388450145721436
1618821011.5606,-15.64917,21.404070138931274
1618821011.57623,-3.519073,21.419700145721436
1618821011.59185,10.04642,21.435320138931274
1618821011.60748,23.25031,21.450950145721436
1618821011.6231,34.57275,21.466570138931274
1618821011.63873,43.1897,21.482200145721436
1618821011.65436,48.88577,21.497830152511597
1618821011.66998,51.93826,21.513450145721436
1618821011.68561,52.86963,21.529080152511597
1618821011.70123,52.22177,21.544700145721436
1618821011.71686,50.52472,21.560330152511597
1618821011.73248,48.2258,21.575950145721436
1618821011.74811,45.79568,21.591580152511597
1618821011.76374,43.62976,21.607210159301758
1618821011.77936,42.07269,21.622830152511597
1618821011.79499,41.31326,21.638460159301758
1618821011.81061,41.25635,21.654080152511597
1618821011.82624,41.56787,21.669710159301758
1618821011.84186,41.7132,21.685330152511597
1618821011.85749,41.16721,21.700960159301758
1618821011.87312,39.59201,21.71659016609192
1618821011.88874,36.96307,21.732210159301758
1618821011.90437,33.52222,21.74784016609192
1618821011.91999,29.57416,21.763460159301758
1618821011.93562,25.26697,21.77909016609192
1618821011.95124,20.50732,21.794710159301758
1618821011.96687,15.026,21.81034016609192
1618821011.9825,8.547363,21.82597017288208
1618821011.99812,1.094543,21.84159016609192
1618821012.01375,-7.059631,21.85722017288208
1618821012.02937,-15.4187,21.87284016609192
1618821012.045,-23.46478,21.88847017288208
1618821012.06062,-30.77063,21.90409016609192
1618821012.07625,-36.96808,21.91972017288208
1618821012.09188,-41.5462,21.93535017967224
1618821012.1075,-43.69989,21.95097017288208
1618821012.12313,-42.51703,21.96660017967224
1618821012.13875,-37.21777,21.98222017288208
1618821012.15438,-27.73303,21.99785017967224
1618821012.17,-14.93225,22.01347017288208
1618821012.18563,-0.5530396,22.02910017967224
1618821012.20126,13.29388,22.044730186462402
1618821012.21688,24.71967,22.06035017967224
1618821012.23251,32.65479,22.075980186462402
1618821012.24813,37.02301,22.09160017967224
1618821012.26376,38.49365,22.107230186462402
1618821012.27938,38.12115,22.12285017967224
1618821012.29501,36.87347,22.138480186462402
1618821012.31064,35.42273,22.154110193252563
1618821012.32626,34.09882,22.169730186462402
1618821012.34189,33.00909,22.185360193252563
1618821012.35751,32.15045,22.200980186462402
1618821012.37314,31.47729,22.216610193252563
1618821012.38876,30.91058,22.232230186462402
1618821012.40439,30.4024,22.247860193252563
1618821012.42002,29.89081,22.263490200042725
1618821012.43564,29.24561,22.279110193252563
1618821012.45127,28.31342,22.294740200042725
1618821012.46689,26.89435,22.310360193252563
1618821012.48252,24.78583,22.325990200042725
1618821012.49814,21.96936,22.341610193252563
1618821012.51377,18.59479,22.357240200042725
1618821012.5294,14.94708,22.372870206832886
1618821012.54502,11.3205,22.388490200042725
1618821012.56065,7.933533,22.404120206832886
1618821012.57627,4.791748,22.419740200042725
1618821012.5919,1.774658,22.435370206832886
1618821012.60752,-1.381165,22.450990200042725
1618821012.62315,-4.980408,22.466620206832886
1618821012.63878,-9.316345,22.482250213623047
1618821012.6544,-14.65497,22.497870206832886
1618821012.67003,-21.08649,22.513500213623047
1618821012.68565,-28.34204,22.529120206832886
1618821012.70128,-35.55365,22.544750213623047
1618821012.7169,-41.28638,22.560370206832886
1618821012.73253,-43.84204,22.576000213623047
1618821012.74816,-41.83722,22.59162998199463
1618821012.76378,-34.78937,22.607250213623047
1618821012.77941,-23.4552,22.62287998199463
1618821012.79503,-9.604675,22.638500213623047
1618821012.81066,4.584717,22.65412998199463
1618821012.82628,17.21716,22.669750213623047
1618821012.84191,27.18188,22.68537998199463
1618821012.85754,34.2326,22.70100998878479
1618821012.87316,38.74988,22.71662998199463
1618821012.88879,41.31934,22.73225998878479
1618821012.90441,42.53467,22.74787998199463
1618821012.92004,42.87781,22.76350998878479
1618821012.93566,42.73004,22.77912998199463
1618821012.95129,42.4317,22.79475998878479
1618821012.96692,42.19177,22.81038999557495
1618821012.98254,41.9859,22.82600998878479
1618821012.99817,41.61359,22.84163999557495
1618821013.01379,40.84186,22.85725998878479
1618821013.02942,39.53894,22.87288999557495
1618821013.04504,37.8175,22.88850998878479
1618821013.06067,35.94171,22.90413999557495
1618821013.0763,34.08179,22.919770002365112
1618821013.09192,32.20001,22.93538999557495
1618821013.10755,29.99945,22.951020002365112
1618821013.12317,27.12885,22.96663999557495
1618821013.1388,23.36017,22.982270002365112
1618821013.15442,18.73981,22.99788999557495
1618821013.17005,13.57251,23.013520002365112
1618821013.18568,8.227722,23.029150009155273
1618821013.2013,3.000977,23.044770002365112
1618821013.21693,-1.995789,23.060400009155273
1618821013.23255,-6.81366,23.076020002365112
1618821013.24818,-11.573,23.091650009155273
1618821013.2638,-16.34155,23.107270002365112
1618821013.27943,-21.21289,23.122900009155273
1618821013.29506,-26.27411,23.138530015945435
1618821013.31068,-31.54156,23.154150009155273
1618821013.32631,-36.75165,23.169780015945435
1618821013.34193,-41.19153,23.185400009155273
1618821013.35756,-43.69153,23.201030015945435
1618821013.37318,-42.96973,23.216650009155273
1618821013.38881,-38.10217,23.232280015945435
1618821013.40444,-29.07007,23.247910022735596
1618821013.42006,-16.836,23.263530015945435
1618821013.43569,-3.230774,23.279160022735596
1618821013.45131,9.746338,23.294780015945435
1618821013.46694,20.49066,23.310410022735596
1618821013.48256,28.25891,23.326030015945435
1618821013.49819,33.11218,23.341660022735596
1618821013.51382,35.66211,23.357290029525757
1618821013.52944,36.66357,23.372910022735596
1618821013.54507,36.68665,23.388540029525757
1618821013.56069,36.16315,23.404160022735596
1618821013.57632,35.29504,23.419790029525757
1618821013.59194,34.28699,23.435410022735596
1618821013.60757,33.33899,23.451040029525757
1618821013.6232,32.65619,23.466670036315918
1618821013.63882,32.31305,23.482290029525757
1618821013.65445,32.2334,23.497920036315918
1618821013.67007,32.20953,23.513540029525757
1618821013.6857,31.89862,23.529170036315918
1618821013.70132,31.03387,23.544790029525757
1618821013.71695,29.43878,23.560420036315918
1618821013.73258,27.1427,23.57605004310608
1618821013.7482,24.30817,23.591670036315918
1618821013.76383,21.1817,23.60730004310608
1618821013.77945,17.97223,23.622920036315918
1618821013.79508,14.78687,23.63855004310608
1618821013.81071,11.65967,23.65418004989624
1618821013.82633,8.549561,23.66980004310608
1618821013.84196,5.51416,23.68543004989624
1618821013.85758,2.659302,23.70105004310608
1618821013.87321,0.1269531,23.71668004989624
1618821013.88883,-2.060852,23.73230004310608
1618821013.90446,-4.080811,23.74793004989624
1618821013.92009,-6.245544,23.7635600566864
1618821013.93571,-8.952942,23.77918004989624
1618821013.95134,-12.44611,23.7948100566864
1618821013.96696,-16.61438,23.81043004989624
1618821013.98259,-20.75562,23.8260600566864
1618821013.99821,-23.61877,23.84168004989624
1618821014.01384,-23.68774,23.8573100566864
1618821014.02947,-19.66284,23.872940063476562
1618821014.04509,-11.05157,23.8885600566864
1618821014.06072,1.586609,23.904190063476562
1618821014.07634,16.68036,23.9198100566864
1618821014.09197,32.20398,23.935440063476562
1618821014.10759,46.28583,23.9510600566864
1618821014.12322,57.82538,23.966690063476562
1618821014.13885,66.61084,23.982320070266724
1618821014.15447,73.11307,23.997940063476562
1618821014.1701,78.12143,24.013570070266724
1618821014.18572,82.37912,24.029190063476562
1618821014.20135,86.465,24.044820070266724
1618821014.21697,90.80225,24.060440063476562
1618821014.2326,95.70117,24.076070070266724
1618821014.24823,101.3552,24.091700077056885
1618821014.26385,107.84,24.107320070266724
1618821014.27948,115.0405,24.122950077056885
1618821014.2951,122.7898,24.138570070266724
1618821014.31073,130.8281,24.154200077056885
1618821014.32635,138.8639,24.169820070266724
1618821014.34198,146.6047,24.185450077056885
1618821014.35761,153.7201,24.201080083847046
1618821014.37323,159.9912,24.216700077056885
1618821014.38886,165.383,24.232330083847046
1618821014.40448,170.0954,24.247950077056885
1618821014.42011,174.4506,24.263580083847046
1618821014.43573,178.7663,24.279200077056885
1618821014.45136,183.0619,24.294830083847046
1618821014.46699,187.0661,24.310460090637207
1618821014.48261,190.2727,24.326080083847046
1618821014.49824,192.115,24.341710090637207
1618821014.51386,191.961,24.357330083847046
1618821014.52949,189.0089,24.372960090637207
1618821014.54511,182.218,24.388580083847046
1618821014.56074,170.3604,24.404210090637207
1618821014.57637,152.5477,24.419840097427368
1618821014.59199,128.6912,24.435460090637207
1618821014.60762,99.93207,24.451090097427368
1618821014.62324,68.63216,24.466710090637207
1618821014.63887,37.81924,24.482340097427368
1618821014.65449,10.4417,24.497960090637207
1618821014.67012,-11.38075,24.513590097427368
1618821014.68575,-26.65642,24.52922010421753
1618821014.70137,-35.47998,24.544840097427368
1618821014.717,-38.62387,24.56047010421753
1618821014.73262,-37.31389,24.576090097427368
1618821014.74825,-33.00734,24.59172010421753
1618821014.76387,-27.2739,24.607340097427368
1618821014.7795,-21.73697,24.62297010421753
1618821014.79513,-17.7561,24.63860011100769
1618821014.81075,-16.17502,24.65422010421753
1618821014.82638,-17.14105,24.66985011100769
1618821014.842,-20.13722,24.68547010421753
1618821014.85763,-24.22368,24.70110011100769
1618821014.87325,-28.59906,24.71672010421753
1618821014.88888,-32.85236,24.73235011100769
1618821014.90451,-37.05289,24.74798011779785
1618821014.92013,-41.54144,24.76360011100769
1618821014.93576,-46.42566,24.77923011779785
1618821014.95138,-51.25192,24.79485011100769
1618821014.96701,-54.91467,24.81048011779785
1618821014.98263,-55.99036,24.82610011100769
1618821014.99826,-53.2395,24.84173011779785
1618821015.01389,-46.30463,24.857360124588013
1618821015.02951,-35.95291,24.87298011779785
1618821015.04514,-23.90363,24.888610124588013
1618821015.06076,-12.35675,24.90423011779785
1618821015.07639,-3.116394,24.919860124588013
1618821015.09201,2.81897,24.93548011779785
1618821015.10764,5.268311,24.951110124588013
1618821015.12327,4.360779,24.966740131378174
1618821015.13889,0.005249023,24.982360124588013
1618821015.15452,-8.598206,24.997990131378174
1618821015.17014,-22.93146,25.013610124588013
1618821015.18577,-44.59241,25.029240131378174
1618821015.20139,-75.04559,25.044860124588013
1618821015.21702,-115.2037,25.060490131378174
1618821015.23265,-165.528,25.076120138168335
1618821015.24827,-225.6982,25.091740131378174
1618821015.2639,-293.804,25.107370138168335
1618821015.27952,-365.3568,25.122990131378174
1618821015.29515,-433.043,25.138620138168335
1618821015.31077,-487.9076,25.154240131378174
1618821015.3264,-521.7985,25.169870138168335
1618821015.34203,-530.3682,25.185500144958496
1618821015.35765,-514.631,25.201120138168335
1618821015.37328,-480.5782,25.216750144958496
1618821015.3889,-436.6739,25.232370138168335
1618821015.40453,-390.6799,25.248000144958496
1618821015.42015,-347.5231,25.263620138168335
1618821015.43578,-308.9349,25.279250144958496
1618821015.45141,-274.7569,25.294880151748657
1618821015.46703,-244.4366,25.310500144958496
1618821015.48266,-217.9828,25.326130151748657
1618821015.49828,-195.5038,25.341750144958496
1618821015.51391,-176.3105,25.357380151748657
1618821015.52953,-158.2748,25.373000144958496
1618821015.54516,-138.1232,25.388630151748657
1618821015.56079,-112.842,25.40426015853882
1618821015.57641,-81.2077,25.419880151748657
1618821015.59204,-44.80463,25.43551015853882
1618821015.60766,-7.81427,25.451130151748657
1618821015.62329,24.14923,25.46676015853882
1618821015.63891,46.31982,25.482380151748657
1618821015.65454,56.65405,25.49801015853882
1618821015.67017,56.66223,25.51364016532898
1618821015.68579,50.79047,25.52926015853882
1618821015.70142,44.35626,25.54489016532898
1618821015.71704,41.36127,25.56051015853882
1618821015.73267,42.91473,25.57614016532898
1618821015.74829,47.33362,25.59176015853882
1618821015.76392,51.39386,25.60739016532898
1618821015.77955,52.35956,25.62302017211914
1618821015.79517,49.36011,25.63864016532898
1618821015.8108,43.54663,25.65427017211914
1618821015.82642,37.16333,25.66989016532898
1618821015.84205,32.07849,25.68552017211914
1618821015.85767,28.91809,25.70114016532898
1618821015.8733,26.9082,25.71677017211914
1618821015.88893,24.69489,25.7324001789093
1618821015.90455,21.17627,25.74802017211914
1618821015.92018,16.23962,25.7636501789093
1618821015.9358,10.69891,25.77927017211914
1618821015.95143,5.582642,25.7949001789093
1618821015.96705,1.477905,25.81052017211914
1618821015.98268,-1.856018,25.8261501789093
1618821015.99831,-5.101807,25.841780185699463
1618821016.01393,-8.711609,25.8574001789093
1618821016.02956,-12.2121,25.873030185699463
1618821016.04518,-14.19788,25.8886501789093
1618821016.06081,-12.93011,25.904280185699463
1618821016.07644,-7.311646,25.919910192489624
1618821016.09206,2.31134,25.935530185699463
1618821016.10769,14.14215,25.951160192489624
1618821016.12331,25.58179,25.966780185699463
1618821016.13894,34.34564,25.982410192489624
1618821016.15456,39.29077,25.998030185699463
1618821016.17019,40.80621,26.013660192489624
1618821016.18582,40.32254,26.029290199279785
1618821016.20144,39.50885,26.044910192489624
1618821016.21707,39.47433,26.060540199279785
1618821016.23269,40.32462,26.076160192489624
1618821016.24832,41.39383,26.091790199279785
1618821016.26394,41.79428,26.107410192489624
1618821016.27957,40.97321,26.123040199279785
1618821016.2952,39.07861,26.138670206069946
1618821016.31082,36.80988,26.154290199279785
1618821016.32645,35.06366,26.169920206069946
1618821016.34207,34.3736,26.185540199279785
1618821016.3577,34.67542,26.201170206069946
1618821016.37332,35.32254,26.216790199279785
1618821016.38895,35.48712,26.232420206069946
1618821016.40458,34.50858,26.248050212860107
1618821016.4202,32.15021,26.263670206069946
1618821016.43583,28.59363,26.279300212860107
1618821016.45145,24.21652,26.294920206069946
1618821016.46708,19.34778,26.310550212860107
1618821016.4827,14.22177,26.326170206069946
1618821016.49833,9.046783,26.341800212860107
1618821016.51396,4.053528,26.35742998123169
1618821016.52958,-0.4937744,26.373050212860107
1618821016.54521,-4.517029,26.38867998123169
1618821016.56083,-8.167267,26.404300212860107
1618821016.57646,-11.978,26.41992998123169
1618821016.59208,-16.59674,26.435550212860107
1618821016.60771,-22.35205,26.45117998123169
1618821016.62334,-28.87238,26.46680998802185
1618821016.63896,-34.97971,26.48242998123169
1618821016.65459,-38.94104,26.49805998802185
1618821016.67021,-39.15033,26.51367998123169
1618821016.68584,-34.77863,26.52930998802185
1618821016.70146,-26.08072,26.54492998123169
1618821016.71709,-14.41061,26.56055998802185
1618821016.73272,-1.777328,26.57618999481201
1618821016.74834,9.901581,26.59180998802185
1618821016.76397,19.2449,26.60743999481201
1618821016.77959,25.69261,26.62305998802185
1618821016.79522,29.40067,26.63868999481201
1618821016.81084,30.92563,26.65430998802185
1618821016.82647,30.8781,26.66993999481201
1618821016.8421,29.74385,26.685570001602173
1618821016.85772,27.87105,26.70118999481201
1618821016.87335,25.57526,26.716820001602173
1618821016.88897,23.28268,26.73243999481201
1618821016.9046,21.40686,26.748070001602173
1618821016.92022,20.28424,26.76368999481201
1618821016.93585,20.02345,26.779320001602173
1618821016.95148,20.46289,26.794950008392334
1618821016.9671,21.245,26.810570001602173
1618821016.98273,21.95743,26.826200008392334
1618821016.99835,22.20984,26.841820001602173
1618821017.01398,21.7564,26.857450008392334
1618821017.0296,20.528,26.873070001602173
1618821017.04523,18.47793,26.888700008392334
1618821017.06086,15.71918,26.904330015182495
1618821017.07648,12.44055,26.919950008392334
1618821017.09211,8.841385,26.935580015182495
1618821017.10773,5.136917,26.951200008392334
1618821017.12336,1.442802,26.966830015182495
1618821017.13898,-2.324013,26.982450008392334
1618821017.15461,-6.384956,26.998080015182495
1618821017.17024,-10.988,27.013710021972656
1618821017.18586,-16.41409,27.029330015182495
1618821017.20149,-22.69956,27.044960021972656
1618821017.21711,-29.45282,27.060580015182495
1618821017.23274,-35.99776,27.076210021972656
1618821017.24836,-41.27636,27.091830015182495
1618821017.26399,-44.17949,27.107460021972656
1618821017.27962,-43.81451,27.123090028762817
1618821017.29524,-39.76928,27.138710021972656
1618821017.31087,-32.27583,27.154340028762817
1618821017.32649,-22.28166,27.169960021972656
1618821017.34212,-11.15183,27.185590028762817
1618821017.35774,-0.3043785,27.201210021972656
1618821017.37337,9.108051,27.216840028762817
1618821017.389,16.47958,27.23247003555298
1618821017.40462,21.75304,27.248090028762817
1618821017.42025,25.22657,27.26372003555298
1618821017.43587,27.37263,27.279340028762817
1618821017.4515,28.61053,27.29497003555298
1618821017.46712,29.19974,27.310590028762817
1618821017.48275,29.39418,27.32622003555298
1618821017.49838,29.4918,27.34185004234314
1618821017.514,29.91634,27.35747003555298
1618821017.52963,31.04673,27.37310004234314
1618821017.54525,33.07832,27.38872003555298
1618821017.56088,35.74195,27.40435004234314
1618821017.5765,38.41391,27.41997003555298
1618821017.59213,40.21645,27.43560004234314
1618821017.60776,40.35913,27.4512300491333
1618821017.62338,38.46043,27.46685004234314
1618821017.63901,34.60352,27.4824800491333
1618821017.65463,29.26775,27.49810004234314
1618821017.67026,23.13649,27.5137300491333
1618821017.68588,16.82588,27.52935004234314
1618821017.70151,10.7088,27.5449800491333
1618821017.71714,5.031235,27.560610055923462
1618821017.73276,-0.143158,27.5762300491333
1618821017.74839,-4.765732,27.591860055923462
1618821017.76401,-8.766403,27.6074800491333
1618821017.77964,-12.20309,27.623110055923462
1618821017.79526,-15.35413,27.6387300491333
1618821017.81089,-18.7,27.654360055923462
1618821017.82652,-22.867,27.669990062713623
1618821017.84214,-28.20641,27.685610055923462
1618821017.85777,-34.33966,27.701240062713623
1618821017.87339,-40.03691,27.716860055923462
1618821017.88902,-43.41785,27.732490062713623
1618821017.90464,-42.62489,27.748110055923462
1618821017.92027,-36.6277,27.763740062713623
1618821017.9359,-25.7926,27.779370069503784
1618821017.95152,-11.79771,27.794990062713623
1618821017.96715,2.94014,27.810620069503784
1618821017.98277,16.18509,27.826240062713623
1618821017.9984,26.61832,27.841870069503784
1618821018.01402,34.01276,27.857490062713623
1618821018.02965,38.91388,27.873120069503784
1618821018.04528,42.06461,27.888750076293945
1618821018.0609,44.00729,27.904370069503784
1618821018.07653,44.91006,27.920000076293945
1618821018.09215,44.76709,27.935620069503784
1618821018.10778,43.65939,27.951250076293945
1618821018.1234,41.88934,27.966870069503784
1618821018.13903,39.94821,27.982500076293945
1618821018.15466,38.32526,27.998130083084106
1618821018.17028,37.35526,28.013750076293945
1618821018.18591,37.06473,28.029380083084106
1618821018.20153,37.20316,28.045000076293945
1618821018.21716,37.33261,28.060630083084106
1618821018.23278,36.94159,28.076250076293945
1618821018.24841,35.6062,28.091880083084106
1618821018.26404,33.11066,28.107510089874268
1618821018.27966,29.47806,28.123130083084106
1618821018.29529,24.99295,28.138760089874268
1618821018.31091,20.08624,28.154380083084106
1618821018.32654,15.20673,28.170010089874268
1618821018.34216,10.60266,28.185630083084106
1618821018.35779,6.326263,28.201260089874268
1618821018.37342,2.246918,28.21689009666443
1618821018.38904,-1.908997,28.232510089874268
1618821018.40467,-6.445099,28.24814009666443
1618821018.42029,-11.686,28.263760089874268
1618821018.43592,-17.7854,28.27939009666443
1618821018.45155,-24.65186,28.29502010345459
1618821018.46717,-31.79123,28.31064009666443
1618821018.4828,-38.31824,28.32627010345459
1618821018.49842,-42.96912,28.34189009666443
1618821018.51405,-44.38812,28.35752010345459
1618821018.52967,-41.55185,28.37314009666443
1618821018.5453,-34.17673,28.38877010345459
1618821018.56093,-23.00186,28.40440011024475
1618821018.57655,-9.605377,28.42002010345459
1618821018.59218,4.030487,28.43565011024475
1618821018.6078,16.13474,28.45127010345459
1618821018.62343,25.6333,28.46690011024475
1618821018.63905,32.30612,28.48252010345459
1618821018.65468,36.58511,28.49815011024475
1618821018.67031,39.1579,28.513780117034912
1618821018.68593,40.60654,28.52940011024475
1618821018.70156,41.22318,28.545030117034912
1618821018.71718,41.18799,28.56065011024475
1618821018.73281,40.6889,28.576280117034912
1618821018.74843,40.05161,28.59190011024475
1618821018.76406,39.63608,28.607530117034912
1618821018.77969,39.67551,28.623160123825073
1618821018.79531,40.07837,28.638780117034912
1618821018.81094,40.48773,28.654410123825073
1618821018.82656,40.48181,28.670030117034912
1618821018.84219,39.70618,28.685660123825073
1618821018.85781,38.05173,28.701280117034912
1618821018.87344,35.61063,28.716910123825073
1618821018.88907,32.57779,28.732540130615234
1618821018.90469,29.13055,28.748160123825073
1618821018.92032,25.39584,28.763790130615234
1618821018.93594,21.39041,28.779410123825073
1618821018.95157,17.08905,28.795040130615234
1618821018.96719,12.52307,28.810660123825073
1618821018.98282,7.705902,28.826290130615234
1618821018.99845,2.657898,28.841920137405396
1618821019.01407,-2.555145,28.857540130615234
1618821019.0297,-7.917572,28.873170137405396
1618821019.04532,-13.42542,28.888790130615234
1618821019.06095,-19.06433,28.904420137405396
1618821019.07657,-24.83942,28.920040130615234
1618821019.0922,-30.64783,28.935670137405396
1618821019.10783,-36.21936,28.951300144195557
1618821019.12345,-41.11258,28.966920137405396
1618821019.13908,-44.70889,28.982550144195557
1618821019.1547,-46.29581,28.998170137405396
1618821019.17033,-45.29962,29.013800144195557
1618821019.18595,-41.36511,29.029420137405396
1618821019.20158,-34.50891,29.045050144195557
1618821019.21721,-25.20172,29.060680150985718
1618821019.23283,-14.31558,29.076300144195557
1618821019.24846,-2.9021,29.091930150985718
1618821019.26408,7.88974,29.107550144195557
1618821019.27971,17.1315,29.123180150985718
1618821019.29533,24.28622,29.138800144195557
1618821019.31096,29.17191,29.154430150985718
1618821019.32659,32.00314,29.17006015777588
1618821019.34221,33.27011,29.185680150985718
1618821019.35784,33.51434,29.20131015777588
1618821019.37346,33.23044,29.216930150985718
1618821019.38909,32.88116,29.23256015777588
1618821019.40471,32.82672,29.248180150985718
1618821019.42034,33.34259,29.26381015777588
1618821019.43597,34.57687,29.27944016456604
1618821019.45159,36.40997,29.29506015777588
1618821019.46722,38.41263,29.31069016456604
1618821019.48284,39.90988,29.32631015777588
1618821019.49847,40.11838,29.34194016456604
1618821019.51409,38.4548,29.35756015777588
1618821019.52972,34.87073,29.37319016456604
1618821019.54535,29.76923,29.3888201713562
1618821019.56097,23.96396,29.40444016456604
1618821019.5766,18.31616,29.4200701713562
1618821019.59222,13.38986,29.43569016456604
1618821019.60785,9.33252,29.4513201713562
1618821019.62347,5.950043,29.46694016456604
1618821019.6391,2.846344,29.4825701713562
1618821019.65473,-0.1938171,29.498200178146362
1618821019.67035,-3.149597,29.5138201713562
1618821019.68598,-5.85791,29.529450178146362
1618821019.7016,-8.252838,29.5450701713562
1618821019.71723,-10.57059,29.560700178146362
1618821019.73285,-13.43616,29.5763201713562
1618821019.74848,-17.61108,29.591950178146362
1618821019.76411,-23.42438,29.607580184936523
1618821019.77973,-30.4805,29.623200178146362
1618821019.79536,-37.38443,29.638830184936523
1618821019.81098,-42.1973,29.654450178146362
1618821019.82661,-43.14572,29.670080184936523
1618821019.84223,-39.35306,29.685700178146362
1618821019.85786,-31.2157,29.701330184936523
1618821019.87349,-20.30719,29.716960191726685
1618821019.88911,-8.702423,29.732580184936523
1618821019.90474,1.82135,29.748210191726685
1618821019.92036,10.29663,29.763830184936523
1618821019.93599,16.6774,29.779460191726685
1618821019.95161,21.45331,29.795080184936523
1618821019.96724,25.14969,29.810710191726685
1618821019.98287,28.07541,29.826340198516846
1618821019.99849,30.22559,29.841960191726685
1618821020.01412,31.57843,29.857590198516846
1618821020.02974,32.25513,29.873210191726685
1618821020.04537,32.59338,29.888840198516846
1618821020.06099,32.85843,29.904460191726685
1618821020.07662,33.10858,29.920090198516846
1618821020.09225,33.06699,29.935720205307007
1618821020.10787,32.32056,29.951340198516846
1618821020.1235,30.67267,29.966970205307007
1618821020.13912,28.23526,29.982590198516846
1618821020.15475,25.58887,29.998220205307007
1618821020.17037,23.37802,30.013840198516846
1618821020.186,22.00797,30.029470205307007
1618821020.20163,21.37207,30.045100212097168
1618821020.21725,20.96674,30.060720205307007
1618821020.23288,20.06897,30.076350212097168
1618821020.2485,18.13705,30.091970205307007
1618821020.26413,15.01172,30.107600212097168
1618821020.27975,10.82217,30.123220205307007
1618821020.29538,5.994659,30.138850212097168
1618821020.31101,0.9617004,30.15447998046875
1618821020.32663,-3.906464,30.170100212097168
1618821020.34226,-8.345184,30.18572998046875
1618821020.35788,-12.26843,30.201350212097168
1618821020.37351,-15.80679,30.21697998046875
1618821020.38913,-19.37735,30.232600212097168
1618821020.40476,-23.46204,30.24822998046875
1618821020.42039,-28.46729,30.26385998725891
1618821020.43601,-34.23419,30.27947998046875
1618821020.45164,-39.93344,30.29510998725891
1618821020.46726,-44.09747,30.31072998046875
1618821020.48289,-45.06195,30.32635998725891
1618821020.49851,-41.71698,30.34197998046875
1618821020.51414,-33.98743,30.35760998725891
1618821020.52977,-23.06876,30.373239994049072
1618821020.54539,-10.92468,30.38885998725891
1618821020.56102,0.3556824,30.404489994049072
1618821020.57664,9.325623,30.42010998725891
1618821020.59227,15.46429,30.435739994049072
1618821020.60789,19.10632,30.45135998725891
1618821020.62352,21.02573,30.466989994049072
1618821020.63915,21.89639,30.482620000839233
1618821020.65477,22.13654,30.498239994049072
1618821020.6704,21.89438,30.513870000839233
1618821020.68602,21.2934,30.529489994049072
1618821020.70165,20.53107,30.545120000839233
1618821020.71727,19.94965,30.560739994049072
1618821020.7329,19.79785,30.576370000839233
1618821020.74853,20.14352,30.592000007629395
1618821020.76415,20.83163,30.607620000839233
1618821020.77978,21.49155,30.623250007629395
1618821020.7954,21.78577,30.638870000839233
1618821020.81103,21.51471,30.654500007629395
1618821020.82665,20.72409,30.670120000839233
1618821020.84228,19.60437,30.685750007629395
1618821020.85791,18.44366,30.701380014419556
1618821020.87353,17.40442,30.717000007629395
1618821020.88916,16.40399,30.732630014419556
1618821020.90478,15.10507,30.748250007629395
1618821020.92041,12.94235,30.763880014419556
1618821020.93604,9.4711,30.779510021209717
1618821020.95166,4.532349,30.795130014419556
1618821020.96729,-1.508301,30.810760021209717
1618821020.98291,-7.831848,30.826380014419556
1618821020.99854,-13.4285,30.842010021209717
1618821021.01416,-17.53598,30.857630014419556
1618821021.02979,-19.98657,30.873260021209717
1618821021.04542,-21.37863,30.888890027999878
1618821021.06104,-22.81534,30.904510021209717
1618821021.07667,-25.42953,30.920140027999878
1618821021.09229,-29.87396,30.935760021209717
1618821021.10792,-35.94611,30.951390027999878
1618821021.12354,-42.56189,30.967010021209717
1618821021.13917,-48.03256,30.982640027999878
1618821021.1548,-50.63574,30.99827003479004
1618821021.17042,-49.20285,31.013890027999878
1618821021.18605,-43.49597,31.02952003479004
1618821021.20167,-34.32861,31.045140027999878
1618821021.2173,-23.2067,31.06077003479004
1618821021.23292,-11.86325,31.076390027999878
1618821021.24855,-1.65448,31.09202003479004
1618821021.26418,6.71524,31.1076500415802
1618821021.2798,13.22156,31.12327003479004
1618821021.29543,18.18594,31.1389000415802
1618821021.31105,21.84207,31.15452003479004
1618821021.32668,24.21286,31.1701500415802
1618821021.3423,25.159,31.18577003479004
1618821021.35793,24.69131,31.2014000415802
1618821021.37356,23.23526,31.21703004837036
1618821021.38918,21.61697,31.2326500415802
1618821021.40481,20.75565,31.24828004837036
1618821021.42043,21.2189,31.2639000415802
1618821021.43606,22.89365,31.27953004837036
1618821021.45168,25.02139,31.2951500415802
1618821021.46731,26.62393,31.31078004837036
1618821021.48294,26.93475,31.326410055160522
1618821021.49856,25.77859,31.34203004837036
1618821021.51419,23.58643,31.357660055160522
1618821021.52981,21.08368,31.37328004837036
1618821021.54544,18.89578,31.388910055160522
1618821021.56106,17.24533,31.40453004837036
1618821021.57669,15.88034,31.420160055160522
1618821021.59232,14.29739,31.435790061950684
1618821021.60794,12.07999,31.451410055160522
1618821021.62357,9.085388,31.467040061950684
1618821021.63919,5.541779,31.482660055160522
1618821021.65482,1.908478,31.498290061950684
1618821021.67044,-1.421631,31.513910055160522
1618821021.68607,-4.259949,31.529540061950684
1618821021.7017,-6.741638,31.545170068740845
1618821021.71732,-9.213745,31.560790061950684
1618821021.73295,-12.10458,31.576420068740845
1618821021.74857,-15.6377,31.592040061950684
1618821021.7642,-19.88617,31.607670068740845
1618821021.77982,-24.69574,31.623290061950684
1618821021.79545,-29.75385,31.638920068740845
1618821021.81108,-34.62326,31.654550075531006
1618821021.8267,-38.70062,31.670170068740845
1618821021.84233,-41.2135,31.685800075531006
1618821021.85795,-41.35388,31.701420068740845
1618821021.87358,-38.53802,31.717050075531006
1618821021.8892,-32.58635,31.732670068740845
1618821021.90483,-23.96588,31.748300075531006
1618821021.92046,-13.67279,31.763930082321167
1618821021.93608,-3.015244,31.779550075531006
1618821021.95171,6.684128,31.795180082321167
1618821021.96733,14.49734,31.810800075531006
1618821021.98296,20.00575,31.826430082321167
1618821021.99858,23.25134,31.842050075531006
1618821022.01421,24.66017,31.857680082321167
1618821022.02984,24.79355,31.873310089111328
1618821022.04546,24.19598,31.888930082321167
1618821022.06109,23.30916,31.904560089111328
1618821022.07671,22.38869,31.920180082321167
1618821022.09234,21.46945,31.935810089111328
1618821022.10796,20.53139,31.951430082321167
1618821022.12359,19.51945,31.967060089111328
1618821022.13922,18.50659,31.98269009590149
1618821022.15484,17.69266,31.998310089111328
1618821022.17047,17.26222,32.01394009590149
1618821022.18609,17.22116,32.02956008911133
1618821022.20172,17.30626,32.04519009590149
1618821022.21734,17.03526,32.06081008911133
1618821022.23297,15.83128,32.07644009590149
1618821022.2486,13.45087,32.09207010269165
1618821022.26422,10.0125,32.10769009590149
1618821022.27985,6.032562,32.12332010269165
1618821022.29547,2.195511,32.13894009590149
1618821022.3111,-1.029388,32.15457010269165
1618821022.32672,-3.550629,32.17019009590149
1618821022.34235,-5.631378,32.18582010269165
1618821022.35798,-7.694809,32.20145010948181
1618821022.3736,-10.12173,32.21707010269165
1618821022.38923,-13.0544,32.23270010948181
1618821022.40485,-16.56593,32.24832010269165
1618821022.42048,-20.68373,32.26395010948181
1618821022.4361,-25.46646,32.27957010269165
1618821022.45173,-30.96498,32.29520010948181
1618821022.46736,-36.97691,32.31083011627197
1618821022.48298,-42.83426,32.32645010948181
1618821022.49861,-47.49638,32.34208011627197
1618821022.51423,-49.76561,32.35770010948181
1618821022.52986,-48.64908,32.37333011627197
1618821022.54548,-43.89545,32.38895010948181
1618821022.56111,-35.98328,32.40458011627197
1618821022.57674,-26.03865,32.420210123062134
1618821022.59236,-15.53064,32.43583011627197
1618821022.60799,-5.82605,32.451460123062134
1618821022.62361,2.058075,32.46708011627197
1618821022.63924,7.577591,32.482710123062134
1618821022.65486,10.6627,32.49833011627197
1618821022.67049,11.67123,32.513960123062134
1618821022.68612,11.20409,32.529590129852295
1618821022.70174,10.00215,32.545210123062134
1618821022.71737,8.723938,32.560840129852295
1618821022.73299,7.726776,32.576460123062134
1618821022.74862,7.062347,32.592090129852295
1618821022.76424,6.592438,32.607710123062134
1618821022.77987,6.158188,32.623340129852295
1618821022.7955,5.804733,32.638970136642456
1618821022.81112,5.740845,32.654590129852295
1618821022.82675,6.149368,32.670220136642456
1618821022.84237,6.982101,32.685840129852295
1618821022.858,7.783066,32.701470136642456
1618821022.87362,7.919769,32.717090129852295
1618821022.88925,6.861237,32.732720136642456
1618821022.90488,4.556412,32.74835014343262
1618821022.9205,1.485916,32.763970136642456
1618821022.93613,-1.571014,32.77960014343262
1618821022.95175,-3.891998,32.795220136642456
1618821022.96738,-5.285667,32.81085014343262
1618821022.983,-6.109642,32.826470136642456
1618821022.99863,-7.095436,32.84210014343262
1618821023.01426,-8.92408,32.85773015022278
1618821023.02988,-11.89327,32.87335014343262
1618821023.04551,-15.90855,32.88898015022278
1618821023.06113,-20.5731,32.90460014343262
1618821023.07676,-25.45008,32.92023015022278
1618821023.09239,-30.10104,32.93586015701294
1618821023.10801,-34.04141,32.95148015022278
1618821023.12364,-36.64575,32.96711015701294
1618821023.13926,-37.1633,32.98273015022278
1618821023.15489,-34.91954,32.99836015701294
1618821023.17051,-29.62038,33.01398015022278
1618821023.18614,-21.64811,33.02961015701294
1618821023.20177,-12.01078,33.0452401638031
1618821023.21739,-2.094017,33.06086015701294
1618821023.23302,6.841743,33.0764901638031
1618821023.24864,13.93644,33.09211015701294
1618821023.26427,18.86815,33.1077401638031
1618821023.27989,21.75277,33.12336015701294
1618821023.29552,22.93226,33.1389901638031
1618821023.31115,22.76003,33.15462017059326
1618821023.32677,21.56568,33.1702401638031
1618821023.3424,19.74438,33.18587017059326
1618821023.35802,17.67543,33.2014901638031
1618821023.37365,15.80991,33.21712017059326
1618821023.38927,14.44817,33.2327401638031
1618821023.4049,13.69468,33.24837017059326
1618821023.42053,13.37752,33.26400017738342
1618821023.43615,13.22133,33.27962017059326
1618821023.45178,12.98441,33.29525017738342
1618821023.4674,12.51363,33.31087017059326
1618821023.48303,11.82607,33.32650017738342
1618821023.49865,10.86644,33.34212017059326
1618821023.51428,9.507515,33.35775017738342
1618821023.52991,7.466789,33.373380184173584
1618821023.54553,4.486626,33.38900017738342
1618821023.56116,0.5481796,33.404630184173584
1618821023.57678,-3.992149,33.42025017738342
1618821023.59241,-8.425285,33.435880184173584
1618821023.60803,-12.01705,33.45150017738342
1618821023.62366,-14.34338,33.467130184173584
1618821023.63929,-15.53622,33.482760190963745
1618821023.65491,-16.30927,33.498380184173584
1618821023.67054,-17.66906,33.514010190963745
1618821023.68616,-20.45363,33.529630184173584
1618821023.70179,-24.94018,33.545260190963745
1618821023.71741,-30.69357,33.560880184173584
1618821023.73304,-36.60273,33.576510190963745
1618821023.74867,-41.22337,33.592140197753906
1618821023.76429,-43.26305,33.607760190963745
1618821023.77992,-41.93759,33.623390197753906
1618821023.79554,-37.18533,33.639010190963745
1618821023.81117,-29.64701,33.654640197753906
1618821023.82679,-20.43002,33.670260190963745
1618821023.84242,-10.77261,33.685890197753906
1618821023.85805,-1.742508,33.70152020454407
1618821023.87367,5.897774,33.717140197753906
1618821023.8893,11.73176,33.73277020454407
1618821023.90492,15.69141,33.748390197753906
1618821023.92055,17.91925,33.76402020454407
1618821023.93617,18.78171,33.779640197753906
1618821023.9518,18.78886,33.79527020454407
1618821023.96743,18.50622,33.81090021133423
1618821023.98305,18.37106,33.82652020454407
1618821023.99868,18.60347,33.84215021133423
1618821024.0143,19.14719,33.85777020454407
1618821024.02993,19.75167,33.87340021133423
1618821024.04555,20.15333,33.88902020454407
1618821024.06118,20.20674,33.90465021133423
1618821024.07681,19.90125,33.92027997970581
1618821024.09243,19.25697,33.93590021133423
1618821024.10806,18.2666,33.95152997970581
1618821024.12368,16.76863,33.96715021133423
1618821024.13931,14.5745,33.98277997970581
1618821024.15493,11.59762,33.99840021133423
1618821024.17056,7.986122,34.01402997970581
1618821024.18619,4.08699,34.02965998649597
1618821024.20181,0.2984772,34.04527997970581
1618821024.21744,-3.121689,34.06090998649597
1618821024.23306,-6.126884,34.07652997970581
1618821024.24869,-8.839508,34.09215998649597
1618821024.26431,-11.44693,34.10777997970581
1618821024.27994,-14.06068,34.12340998649597
1618821024.29557,-16.72753,34.13903999328613
1618821024.31119,-19.50204,34.15465998649597
1618821024.32682,-22.4723,34.17028999328613
1618821024.34244,-25.77321,34.18590998649597
1618821024.35807,-29.40907,34.20153999328613
1618821024.37369,-33.02012,34.21715998649597
1618821024.38932,-35.86681,34.23278999328613
1618821024.40495,-36.98512,34.248420000076294
1618821024.42057,-35.44665,34.26403999328613
1618821024.4362,-30.81403,34.279670000076294
1618821024.45182,-23.3347,34.29528999328613
1618821024.46745,-13.91405,34.310920000076294
1618821024.48307,-3.92144,34.32653999328613
1618821024.4987,5.230446,34.342170000076294
1618821024.51433,12.4789,34.357800006866455
1618821024.52995,17.3344,34.373420000076294
1618821024.54558,19.86415,34.389050006866455
1618821024.5612,20.59126,34.404670000076294
1618821024.57683,20.15348,34.420300006866455
1618821024.59245,19.06693,34.435920000076294
1618821024.60808,17.64476,34.451550006866455
1618821024.62371,16.01256,34.467180013656616
1618821024.63933,14.23988,34.482800006866455
1618821024.65496,12.48004,34.498430013656616
1618821024.67058,10.95773,34.514050006866455
1618821024.68621,9.898361,34.529680013656616
1618821024.70183,9.418915,34.545300006866455
1618821024.71746,9.40638,34.560930013656616
1618821024.73309,9.511978,34.57656002044678
1618821024.74871,9.328423,34.592180013656616
1618821024.76434,8.474831,34.60781002044678
1618821024.77996,6.805191,34.623430013656616
1618821024.79559,4.525925,34.63906002044678
1618821024.81121,2.00103,34.654680013656616
1618821024.82684,-0.3679962,34.67031002044678
1618821024.84247,-2.324638,34.68594002723694
1618821024.85809,-3.8853,34.70156002044678
1618821024.87372,-5.297173,34.71719002723694
1618821024.88934,-6.788788,34.73281002044678
1618821024.90497,-8.486137,34.74844002723694
1618821024.92059,-10.32919,34.76406002044678
1618821024.93622,-12.23911,34.77969002723694
1618821024.95185,-14.26528,34.7953200340271
1618821024.96747,-16.6854,34.81094002723694
1618821024.9831,-19.78333,34.8265700340271
1618821024.99872,-23.48617,34.84219002723694
1618821025.01435,-27.17828,34.8578200340271
1618821025.02997,-29.69222,34.87344002723694
1618821025.0456,-29.72906,34.8890700340271
1618821025.06123,-26.43781,34.90470004081726
1618821025.07685,-19.91651,34.9203200340271
1618821025.09248,-11.26234,34.93595004081726
1618821025.1081,-2.207115,34.9515700340271
1618821025.12373,5.593887,34.96720004081726
1618821025.13935,11.14913,34.9828200340271
1618821025.15498,14.36168,34.99845004081726
1618821025.17061,15.78941,35.01408004760742
1618821025.18623,16.2169,35.02970004081726
1618821025.20186,16.24618,35.04533004760742
1618821025.21748,16.0877,35.06095004081726
1618821025.23311,15.6973,35.07658004760742
1618821025.24873,14.93072,35.09220004081726
1618821025.26436,13.83839,35.10783004760742
1618821025.27999,12.64721,35.12346005439758
1618821025.29561,11.69875,35.13908004760742
1618821025.31124,11.23361,35.15471005439758
1618821025.32686,11.26429,35.17033004760742
1618821025.34249,11.56182,35.18596005439758
1618821025.35811,11.73811,35.20158004760742
1618821025.37374,11.39323,35.21721005439758
1618821025.38937,10.2291,35.232840061187744
1618821025.40499,8.209557,35.24846005439758
1618821025.42062,5.526146,35.264090061187744
1618821025.43624,2.516754,35.27971005439758
1618821025.45187,-0.4445801,35.295340061187744
1618821025.46749,-3.156708,35.31096005439758
1618821025.48312,-5.728561,35.326590061187744
1618821025.49875,-8.474602,35.342220067977905
1618821025.51437,-11.74993,35.357840061187744
1618821025.53,-15.79099,35.373470067977905
1618821025.54562,-20.52505,35.389090061187744
1618821025.56125,-25.63701,35.404720067977905
1618821025.57687,-30.77425,35.420340061187744
1618821025.5925,-35.59859,35.435970067977905
1618821025.60813,-39.83894,35.451600074768066
1618821025.62375,-43.16699,35.467220067977905
1618821025.63938,-45.0485,35.482850074768066
1618821025.655,-44.68972,35.498470067977905
1618821025.67063,-41.34615,35.514100074768066
1618821025.68625,-34.71432,35.529720067977905
1618821025.70188,-25.2308,35.545350074768066
1618821025.71751,-14.20031,35.56098008155823
1618821025.73313,-3.290466,35.576600074768066
1618821025.74876,5.901993,35.59223008155823
1618821025.76438,12.40837,35.607850074768066
1618821025.78001,16.08293,35.62348008155823
1618821025.79564,17.45931,35.63911008834839
1618821025.81126,17.36398,35.65473008155823
1618821025.82689,16.52017,35.67036008834839
1618821025.84251,15.31947,35.68598008155823
1618821025.85814,13.84052,35.70161008834839
1618821025.87376,12.06121,35.71723008155823
1618821025.88939,10.02346,35.73286008834839
1618821025.90502,7.924973,35.74849009513855
1618821025.92064,6.101051,35.76411008834839
1618821025.93627,4.806992,35.77974009513855
1618821025.95189,4.060768,35.79536008834839
1618821025.96752,3.580765,35.81099009513855
1618821025.98314,2.879837,35.82661008834839
1618821025.99877,1.55072,35.84224009513855
1618821026.0144,-0.4269638,35.85787010192871
1618821026.03002,-2.599327,35.87349009513855
1618821026.04565,-4.262039,35.88912010192871
1618821026.06127,-4.789528,35.90474009513855
1618821026.0769,-4.150993,35.92037010192871
1618821026.09252,-3.017891,35.93599009513855
1618821026.10815,-2.559647,35.95162010192871
1618821026.12378,-3.887321,35.96725010871887
1618821026.1394,-7.623779,35.98287010192871
1618821026.15503,-13.58109,35.99850010871887
1618821026.17065,-20.99329,36.01412010192871
1618821026.18628,-28.91788,36.02975010871887
1618821026.2019,-36.38867,36.04537010192871
1618821026.21753,-42.58919,36.06100010871887
1618821026.23316,-46.64673,36.07663011550903
1618821026.24878,-47.65065,36.09225010871887
1618821026.26441,-44.79376,36.10788011550903
1618821026.28003,-37.88123,36.12350010871887
1618821026.29566,-27.59322,36.13913011550903
1618821026.31128,-15.49684,36.15475010871887
1618821026.32691,-3.560425,36.17038011550903
1618821026.34254,6.544418,36.186010122299194
1618821026.35816,13.90802,36.20163011550903
1618821026.37379,18.53554,36.217260122299194
1618821026.38941,21.02858,36.23288011550903
1618821026.40504,22.14012,36.248510122299194
1618821026.42066,22.37622,36.26413011550903
1618821026.43629,21.95538,36.279760122299194
1618821026.45192,20.88951,36.295390129089355
1618821026.46754,19.20624,36.311010122299194
1618821026.48317,17.11139,36.326640129089355
1618821026.49879,14.87611,36.342260122299194
1618821026.51442,12.80728,36.357890129089355
1618821026.53004,11.1286,36.373510122299194
1618821026.54567,9.943146,36.389140129089355
1618821026.5613,9.183289,36.40477013587952
1618821026.57692,8.680542,36.420390129089355
1618821026.59255,8.137436,36.43602013587952
1618821026.60817,7.135452,36.451640129089355
1618821026.6238,5.360703,36.46727013587952
1618821026.63942,2.545258,36.482890129089355
1618821026.65505,-1.290298,36.49852013587952
1618821026.67068,-5.90387,36.51415014266968
1618821026.6863,-10.87811,36.52977013587952
1618821026.70193,-15.80249,36.54540014266968
1618821026.71755,-20.45554,36.56102013587952
1618821026.73318,-24.8905,36.57665014266968
1618821026.7488,-29.44891,36.59227013587952
1618821026.76443,-34.43044,36.60790014266968
1618821026.78006,-40.07176,36.62353014945984
1618821026.79568,-46.3119,36.63915014266968
1618821026.81131,-52.89197,36.65478014945984
1618821026.82693,-59.42767,36.67040014266968
1618821026.84256,-65.54549,36.68603014945984
1618821026.85818,-70.74451,36.70165014266968
1618821026.87381,-74.31517,36.71728014945984
1618821026.88944,-75.3924,36.73291015625
1618821026.90506,-73.07625,36.74853014945984
1618821026.92069,-66.95094,36.76416015625
1618821026.93631,-57.40274,36.77978014945984
1618821026.95194,-45.58243,36.79541015625
1618821026.96756,-33.05835,36.81103014945984
1618821026.98319,-20.93503,36.82666015625
1618821026.99882,-9.332947,36.84229016304016
1618821027.01444,2.634247,36.85791015625
1618821027.03007,16.04926,36.87354016304016
1618821027.04569,31.32611,36.88916015625
1618821027.06132,47.50186,36.90479016304016
1618821027.07694,62.39014,36.92041015625
1618821027.09257,73.59515,36.93604016304016
1618821027.1082,79.4978,36.95167016983032
1618821027.12382,80.0654,36.96729016304016
1618821027.13945,76.62735,36.98292016983032
1618821027.15507,71.18304,36.99854016304016
1618821027.1707,65.40579,37.01417016983032
1618821027.18632,60.15347,37.02979016304016
1618821027.20195,55.50604,37.04542016983032
1618821027.21758,51.2189,37.06105017662048
1618821027.2332,47.23016,37.07667016983032
1618821027.24883,43.76602,37.09230017662048
1618821027.26445,41.19086,37.10792016983032
1618821027.28008,39.62149,37.12355017662048
1618821027.2957,38.64835,37.13917016983032
1618821027.31133,37.46417,37.15480017662048
1618821027.32696,35.2597,37.170430183410645
1618821027.34258,31.60425,37.18605017662048
1618821027.35821,26.7572,37.201680183410645
1618821027.37383,21.62103,37.21730017662048
1618821027.38946,17.2511,37.232930183410645
1618821027.40508,14.36819,37.24855017662048
1618821027.42071,12.89703,37.264180183410645
1618821027.43634,11.86267,37.279810190200806
1618821027.45196,9.856506,37.295430183410645
1618821027.46759,5.608276,37.311060190200806
1618821027.48321,-1.420715,37.326680183410645
1618821027.49884,-10.75076,37.342310190200806
1618821027.51446,-20.98059,37.357930183410645
1618821027.53009,-30.25714,37.373560190200806
1618821027.54572,-36.73651,37.38919019699097
1618821027.56134,-39.08972,37.404810190200806
1618821027.57697,-36.87482,37.42044019699097
1618821027.59259,-30.53229,37.436060190200806
1618821027.60822,-21.36945,37.45169019699097
1618821027.62384,-11.18729,37.467310190200806
1618821027.63947,-1.735138,37.48294019699097
1618821027.6551,5.76474,37.49857020378113
1618821027.67072,10.85059,37.51419019699097
1618821027.68635,13.77176,37.52982020378113
1618821027.70197,15.16028,37.54544019699097
1618821027.7176,15.54785,37.56107020378113
1618821027.73322,15.17917,37.57669019699097
1618821027.74885,14.10242,37.59232020378113
1618821027.76448,12.39014,37.60795021057129
1618821027.7801,10.36066,37.62357020378113
1618821027.79573,8.617554,37.63920021057129
1618821027.81135,7.791168,37.65482020378113
1618821027.82698,8.35025,37.67045021057129
1618821027.8426,10.45862,37.68607020378113
1618821027.85823,14.01181,37.70170021057129
1618821027.87386,18.71057,37.71732997894287
1618821027.88948,24.12982,37.73295021057129
1618821027.90511,29.75604,37.74857997894287
1618821027.92073,34.94513,37.76420021057129
1618821027.93636,39.06274,37.77982997894287
1618821027.95199,41.6622,37.79545998573303
1618821027.96761,42.64407,37.81107997894287
1618821027.98324,42.25287,37.82670998573303
1618821027.99886,40.82089,37.84232997894287
1618821028.01449,38.47131,37.85795998573303
1618821028.03011,34.78613,37.87357997894287
1618821028.04574,29.04819,37.88920998573303
1618821028.06137,20.72046,37.90483999252319
1618821028.07699,9.939758,37.92045998573303
1618821028.09262,-2.179169,37.93608999252319
1618821028.10824,-13.85577,37.95170998573303
1618821028.12387,-23.37448,37.96733999252319
1618821028.13949,-29.7955,37.98295998573303
1618821028.15512,-33.14536,37.99858999252319
1618821028.17075,-34.2392,38.014219999313354
1618821028.18637,-33.97891,38.02983999252319
1618821028.202,-32.6861,38.045469999313354
1618821028.21762,-29.94797,38.06108999252319
1618821028.23325,-25.01166,38.076719999313354
1618821028.24887,-17.45898,38.09233999252319
1618821028.2645,-7.79187,38.107969999313354
1618821028.28013,2.504913,38.123600006103516
1618821028.29575,11.5253,38.139219999313354
1618821028.31138,17.63498,38.154850006103516
1618821028.327,20.09903,38.170469999313354
1618821028.34263,19.20999,38.186100006103516
1618821028.35825,16.13461,38.201719999313354
1618821028.37388,12.31378,38.217350006103516
1618821028.38951,9.00531,38.23298001289368
1618821028.40513,6.918823,38.248600006103516
1618821028.42076,6.163177,38.26423001289368
1618821028.43638,6.381714,38.279850006103516
1618821028.45201,7.086731,38.29548001289368
1618821028.46763,7.846344,38.311100006103516
1618821028.48326,8.454132,38.32673001289368
1618821028.49889,8.902222,38.34236001968384
1618821028.51451,9.265259,38.35798001289368
1618821028.53014,9.517273,38.37361001968384
1618821028.54576,9.477203,38.38923001289368
1618821028.56139,8.886902,38.40486001968384
1618821028.57701,7.532623,38.42048001289368
1618821028.59264,5.392181,38.43611001968384
1618821028.60827,2.706421,38.451740026474
1618821028.62389,-0.1685486,38.46736001968384
1618821028.63952,-2.903351,38.482990026474
1618821028.65514,-5.287598,38.49861001968384
1618821028.67077,-7.287445,38.514240026474
1618821028.68639,-8.98111,38.52986001968384
1618821028.70202,-10.59424,38.545490026474
1618821028.71765,-12.45325,38.56112003326416
1618821028.73327,-14.98483,38.576740026474
1618821028.7489,-18.49783,38.59237003326416
1618821028.76452,-23.01932,38.607990026474
1618821028.78015,-28.03397,38.62362003326416
1618821028.79577,-32.56079,38.639240026474
1618821028.8114,-35.38852,38.65487003326416
1618821028.82703,-35.49902,38.67050004005432
1618821028.84265,-32.45499,38.68612003326416
1618821028.85828,-26.52835,38.70175004005432
1618821028.8739,-18.59793,38.71737003326416
1618821028.88953,-9.785675,38.73300004005432
1618821028.90515,-1.180023,38.74862003326416
1618821028.92078,6.402924,38.76425004005432
1618821028.93641,12.44577,38.77988004684448
1618821028.95203,16.78189,38.79550004005432
1618821028.96766,19.4845,38.81113004684448
1618821028.98328,20.86765,38.82675004005432
1618821028.99891,21.34619,38.84238004684448
1618821029.01453,21.31906,38.85800004005432
1618821029.03016,21.01218,38.87363004684448
1618821029.04579,20.45724,38.889260053634644
1618821029.06141,19.53519,38.90488004684448
1618821029.07704,18.1409,38.920510053634644
1618821029.09266,16.33432,38.93613004684448
1618821029.10829,14.37576,38.951760053634644
1618821029.12391,12.65286,38.96738004684448
1618821029.13954,11.47797,38.983010053634644
1618821029.15517,10.90024,38.998640060424805
1618821029.17079,10.60001,39.014260053634644
1618821029.18642,10.08987,39.029890060424805
1618821029.20204,8.930542,39.045510053634644
1618821029.21767,6.982422,39.061140060424805
1618821029.23329,4.485107,39.076760053634644
1618821029.24892,1.910339,39.092390060424805
1618821029.26455,-0.3258057,39.108020067214966
1618821029.28017,-2.125916,39.123640060424805
1618821029.2958,-3.708588,39.139270067214966
1618821029.31142,-5.485413,39.154890060424805
1618821029.32705,-7.706512,39.170520067214966
1618821029.34267,-10.41403,39.186140060424805
1618821029.3583,-13.44458,39.201770067214966
1618821029.37393,-16.70642,39.21740007400513
1618821029.38955,-20.39236,39.233020067214966
1618821029.40518,-24.81894,39.24865007400513
1618821029.4208,-30.10629,39.264270067214966
1618821029.43643,-35.77744,39.27990007400513
1618821029.45205,-40.64691,39.295520067214966
1618821029.46768,-43.10248,39.31115007400513
1618821029.48331,-41.79977,39.32678008079529
1618821029.49893,-36.21695,39.34240007400513
1618821029.51456,-26.99039,39.35803008079529
1618821029.53018,-15.73605,39.37365007400513
1618821029.54581,-4.424591,39.38928008079529
1618821029.56143,5.314728,39.40490007400513
1618821029.57706,12.57709,39.42053008079529
1618821029.59269,17.27081,39.43616008758545
1618821029.60831,19.90656,39.45178008079529
1618821029.62394,21.12317,39.46741008758545
1618821029.63956,21.48865,39.48303008079529
1618821029.65519,21.38312,39.49866008758545
1618821029.67081,20.99606,39.51428008079529
1618821029.68644,20.41864,39.52991008758545
1618821029.70207,19.74277,39.54554009437561
1618821029.71769,19.04297,39.56116008758545
1618821029.73332,18.4454,39.57679009437561
1618821029.74894,18.13226,39.59241008758545
1618821029.76457,18.24261,39.60804009437561
1618821029.78019,18.75677,39.62366008758545
1618821029.79582,19.48288,39.63929009437561
1618821029.81145,19.94724,39.65492010116577
1618821029.82707,19.62619,39.67054009437561
1618821029.8427,18.13406,39.68617010116577
1618821029.85832,15.44312,39.70179009437561
1618821029.87395,11.91241,39.71742010116577
1618821029.88957,8.163055,39.73304009437561
1618821029.9052,4.712128,39.74867010116577
1618821029.92083,1.742828,39.76430010795593
1618821029.93645,-0.9238281,39.77992010116577
1618821029.95208,-3.774872,39.79555010795593
1618821029.9677,-7.19046,39.81117010116577
1618821029.98333,-11.35126,39.82680010795593
1618821029.99895,-16.14581,39.84242010116577
1618821030.01458,-21.26443,39.85805010795593
1618821030.03021,-26.30316,39.873680114746094
1618821030.04583,-30.84689,39.88930010795593
1618821030.06146,-34.34204,39.904930114746094
1618821030.07708,-36.1377,39.92055010795593
1618821030.09271,-35.58313,39.936180114746094
1618821030.10833,-32.17575,39.95180010795593
1618821030.12396,-25.93704,39.967430114746094
1618821030.13959,-17.52637,39.983060121536255
1618821030.15521,-8.175323,39.998680114746094
1618821030.17084,0.6404114,40.014310121536255
1618821030.18646,7.610321,40.029930114746094
1618821030.20209,12.10452,40.045560121536255
1618821030.21772,14.26208,40.061190128326416
1618821030.23334,14.78366,40.076810121536255
1618821030.24897,14.61032,40.092440128326416
1618821030.26459,14.46262,40.108060121536255
1618821030.28022,14.61249,40.123690128326416
1618821030.29584,14.90579,40.139310121536255
1618821030.31147,14.96725,40.154940128326416
1618821030.3271,14.47473,40.17057013511658
1618821030.34272,13.44498,40.186190128326416
1618821030.35835,12.18787,40.20182013511658
1618821030.37397,11.07599,40.217440128326416
1618821030.3896,10.36746,40.23307013511658
1618821030.40522,9.913391,40.248690128326416
1618821030.42085,9.292938,40.26432013511658
1618821030.43648,8.058594,40.27995014190674
1618821030.4521,5.980011,40.29557013511658
1618821030.46773,3.230133,40.31120014190674
1618821030.48335,0.3203735,40.32682013511658
1618821030.49898,-2.210541,40.34245014190674
1618821030.5146,-4.095978,40.35807013511658
1618821030.53023,-5.474243,40.37370014190674
1618821030.54586,-6.833221,40.3893301486969
1618821030.56148,-8.674896,40.40495014190674
1618821030.57711,-11.32114,40.4205801486969
1618821030.59273,-14.78995,40.43620014190674
1618821030.60836,-18.8511,40.4518301486969
1618821030.62398,-23.11163,40.46745014190674
1618821030.63961,-27.12741,40.4830801486969
1618821030.65524,-30.33124,40.49871015548706
1618821030.67086,-32.04065,40.5143301486969
1618821030.68649,-31.55859,40.52996015548706
1618821030.70211,-28.40518,40.5455801486969
1618821030.71774,-22.56931,40.56121015548706
1618821030.73336,-14.6871,40.5768301486969
1618821030.74899,-5.85968,40.59246015548706
1618821030.76462,2.601929,40.60809016227722
1618821030.78024,9.619904,40.62371015548706
1618821030.79587,14.64017,40.63934016227722
1618821030.81149,17.71274,40.65496015548706
1618821030.82712,19.19131,40.67059016227722
1618821030.84274,19.57553,40.68621015548706
1618821030.85837,19.28983,40.70184016227722
1618821030.874,18.55228,40.71747016906738
1618821030.88962,17.5257,40.73309016227722
1618821030.90525,16.27475,40.74872016906738
1618821030.92087,14.96539,40.76434016227722
1618821030.9365,13.81155,40.77997016906738
1618821030.95212,13.08054,40.79559016227722
1618821030.96775,12.89255,40.81122016906738
1618821030.98338,13.15729,40.826850175857544
1618821030.999,13.60074,40.84247016906738
1618821031.01463,13.77539,40.858100175857544
1618821031.03025,13.26871,40.87372016906738
1618821031.04588,11.81421,40.889350175857544
1618821031.0615,9.426941,40.90497016906738
1618821031.07713,6.379242,40.920600175857544
1618821031.09276,3.086731,40.936230182647705
1618821031.10838,-0.04974365,40.951850175857544
1618821031.12401,-2.803894,40.967480182647705
1618821031.13963,-5.158813,40.983100175857544
1618821031.15526,-7.291809,40.998730182647705
1618821031.17088,-9.44104,41.014350175857544
1618821031.18651,-11.90341,41.029980182647705
1618821031.20214,-14.93268,41.045610189437866
1618821031.21776,-18.66992,41.061230182647705
1618821031.23339,-23.03519,41.076860189437866
1618821031.24901,-27.62195,41.092480182647705
1618821031.26464,-31.66574,41.108110189437866
1618821031.28026,-34.11273,41.123730182647705
1618821031.29589,-33.94373,41.139360189437866
1618821031.31152,-30.43674,41.15499019622803
1618821031.32714,-23.59677,41.170610189437866
1618821031.34277,-14.2291,41.18624019622803
1618821031.35839,-3.727356,41.201860189437866
1618821031.37402,6.387024,41.21749019622803
1618821031.38964,14.95227,41.233110189437866
1618821031.40527,21.41159,41.24874019622803
1618821031.4209,25.88205,41.26437020301819
1618821031.43652,28.7847,41.27999019622803
1618821031.45215,30.59821,41.29562020301819
1618821031.46777,31.62418,41.31124019622803
1618821031.4834,31.89047,41.32687020301819
1618821031.49902,31.37436,41.34249019622803
1618821031.51465,30.10184,41.35812020301819
1618821031.53028,28.2402,41.37375020980835
1618821031.5459,26.04269,41.38937020301819
1618821031.56153,23.74576,41.40500020980835
1618821031.57715,21.47809,41.42062020301819
1618821031.59278,19.28894,41.43625020980835
1618821031.6084,17.17279,41.45187020301819
1618821031.62403,15.09753,41.46750020980835
1618821031.63966,13.05386,41.48312997817993
1618821031.65528,10.97452,41.49875020980835
1618821031.67091,8.856628,41.51437997817993
1618821031.68653,6.702209,41.53000020980835
1618821031.70216,4.556854,41.54562997817993
1618821031.71778,2.484985,41.56125020980835
1618821031.73341,0.4904175,41.57687997817993
1618821031.74904,-1.530182,41.59250998497009
1618821031.76466,-3.754791,41.60812997817993
1618821031.78029,-6.348969,41.62375998497009
1618821031.79591,-9.435333,41.63937997817993
1618821031.81154,-12.96188,41.65500998497009
1618821031.82716,-16.79501,41.67062997817993
1618821031.84279,-20.7959,41.68625998497009
1618821031.85842,-24.7738,41.701889991760254
1618821031.87404,-28.37921,41.71750998497009
1618821031.88967,-31.03387,41.733139991760254
1618821031.90529,-31.95386,41.74875998497009
1618821031.92092,-30.37845,41.764389991760254
1618821031.93654,-25.95111,41.78000998497009
1618821031.95217,-18.93729,41.795639991760254
1618821031.9678,-10.2572,41.811269998550415
1618821031.98342,-1.257996,41.826889991760254
1618821031.99905,6.78891,41.842519998550415
1618821032.01467,13.08121,41.858139991760254
1618821032.0303,17.43463,41.873769998550415
1618821032.04592,20.16187,41.889389991760254
1618821032.06155,21.79346,41.905019998550415
1618821032.07718,22.72549,41.920650005340576
1618821032.0928,23.15613,41.936269998550415
1618821032.10843,23.14948,41.951900005340576
1618821032.12405,22.67203,41.967519998550415
1618821032.13968,21.81445,41.983150005340576
1618821032.1553,20.67661,41.998769998550415
1618821032.17093,19.39328,42.014400005340576
1618821032.18656,18.06781,42.03003001213074
1618821032.20218,16.70911,42.045650005340576
1618821032.21781,15.29761,42.06128001213074
1618821032.23343,13.77496,42.076900005340576
1618821032.24906,12.1459,42.09253001213074
1618821032.26468,10.3551,42.108150005340576
1618821032.28031,8.456146,42.12378001213074
1618821032.29594,6.421692,42.1394100189209
1618821032.31156,4.243469,42.15503001213074
1618821032.32719,1.912079,42.1706600189209
1618821032.34281,-0.5918884,42.18628001213074
1618821032.35844,-3.270233,42.2019100189209
1618821032.37406,-6.094666,42.21753001213074
1618821032.38969,-8.980103,42.2331600189209
1618821032.40532,-11.9166,42.24879002571106
1618821032.42094,-14.89951,42.2644100189209
1618821032.43657,-18.04242,42.28004002571106
1618821032.45219,-21.49103,42.2956600189209
1618821032.46782,-25.33807,42.31129002571106
1618821032.48344,-29.52557,42.3269100189209
1618821032.49907,-33.6579,42.34254002571106
1618821032.5147,-36.98685,42.35817003250122
1618821032.53032,-38.51596,42.37379002571106
1618821032.54595,-37.36548,42.38942003250122
1618821032.56157,-33.03973,42.40504002571106
1618821032.5772,-25.81036,42.42067003250122
1618821032.59282,-16.65924,42.43629002571106
1618821032.60845,-6.972809,42.45192003250122
1618821032.62408,1.795654,42.46755003929138
1618821032.6397,8.69043,42.48317003250122
