timestamp,value,norm_ts
1618935304.64464,0.7335968,4.967059850692749
1618935304.66027,-2.516998,4.98268985748291
1618935304.6759,-5.47406,4.998319864273071
1618935304.69152,-8.0,5.01393985748291
1618935304.70715,-10.13875,5.029569864273071
1618935304.72277,-12.10989,5.04518985748291
1618935304.7384,-14.20213,5.060819864273071
1618935304.75402,-16.65701,5.07643985748291
1618935304.76965,-19.62163,5.092069864273071
1618935304.78528,-23.15387,5.107699871063232
1618935304.8009,-27.17485,5.123319864273071
1618935304.81653,-31.4232,5.138949871063232
1618935304.83215,-35.38383,5.154569864273071
1618935304.84778,-38.28067,5.170199871063232
1618935304.8634,-39.23824,5.185819864273071
1618935304.87903,-37.57001,5.201449871063232
1618935304.89466,-33.0582,5.2170798778533936
1618935304.91028,-26.09964,5.232699871063232
1618935304.92591,-17.60353,5.2483298778533936
1618935304.94153,-8.661407,5.263949871063232
1618935304.95716,-0.2223358,5.2795798778533936
1618935304.97278,7.122803,5.295199871063232
1618935304.98841,13.12778,5.3108298778533936
1618935305.00404,17.78775,5.326459884643555
1618935305.01966,21.13435,5.3420798778533936
1618935305.03529,23.19136,5.357709884643555
1618935305.05091,23.99631,5.3733298778533936
1618935305.06654,23.72195,5.388959884643555
1618935305.08216,22.71701,5.4045798778533936
1618935305.09779,21.43788,5.420209884643555
1618935305.11342,20.3145,5.435839891433716
1618935305.12904,19.57977,5.451459884643555
1618935305.14467,19.19176,5.467089891433716
1618935305.16029,18.89613,5.482709884643555
1618935305.17592,18.39847,5.498339891433716
1618935305.19154,17.52872,5.513959884643555
1618935305.20717,16.31761,5.529589891433716
1618935305.2228,14.97646,5.545219898223877
1618935305.23842,13.69333,5.560839891433716
1618935305.25405,12.53384,5.576469898223877
1618935305.26967,11.33899,5.592089891433716
1618935305.2853,9.820374,5.607719898223877
1618935305.30092,7.708099,5.623339891433716
1618935305.31655,4.933441,5.638969898223877
1618935305.33218,1.694977,5.654599905014038
1618935305.3478,-1.646973,5.670219898223877
1618935305.36343,-4.718842,5.685849905014038
1618935305.37905,-7.287537,5.701469898223877
1618935305.39468,-9.34552,5.717099905014038
1618935305.4103,-11.0394,5.732719898223877
1618935305.42593,-12.56335,5.748349905014038
1618935305.44156,-14.14307,5.763979911804199
1618935305.45718,-15.97443,5.779599905014038
1618935305.47281,-18.24115,5.795229911804199
1618935305.48843,-21.08606,5.810849905014038
1618935305.50406,-24.49643,5.826479911804199
1618935305.51968,-28.19345,5.842099905014038
1618935305.53531,-31.59833,5.857729911804199
1618935305.55094,-33.91736,5.87335991859436
1618935305.56656,-34.3869,5.888979911804199
1618935305.58219,-32.54605,5.90460991859436
1618935305.59781,-28.37766,5.920229911804199
1618935305.61344,-22.33218,5.93585991859436
1618935305.62906,-15.13171,5.951479911804199
1618935305.64469,-7.550232,5.96710991859436
1618935305.66032,-0.2099915,5.9827399253845215
1618935305.67594,6.434418,5.99835991859436
1618935305.69157,12.04779,6.0139899253845215
1618935305.70719,16.33582,6.02960991859436
1618935305.72282,19.05765,6.0452399253845215
1618935305.73844,20.11234,6.06085991859436
1618935305.75407,19.68311,6.0764899253845215
1618935305.7697,18.24045,6.092119932174683
1618935305.78532,16.46497,6.1077399253845215
1618935305.80095,15.01001,6.123369932174683
1618935305.81657,14.27707,6.1389899253845215
1618935305.8322,14.28851,6.154619932174683
1618935305.84782,14.77042,6.1702399253845215
1618935305.86345,15.29642,6.185869932174683
1618935305.87908,15.51929,6.201499938964844
1618935305.8947,15.27802,6.217119932174683
1618935305.91033,14.59021,6.232749938964844
1618935305.92595,13.61115,6.248369932174683
1618935305.94158,12.49811,6.263999938964844
1618935305.9572,11.33603,6.279619932174683
1618935305.97283,10.11774,6.295249938964844
1618935305.98846,8.792999,6.310879945755005
1618935306.00408,7.24884,6.326499938964844
1618935306.01971,5.365662,6.342129945755005
1618935306.03533,3.031952,6.357749938964844
1618935306.05096,0.2214966,6.373379945755005
1618935306.06658,-2.99649,6.388999938964844
1618935306.08221,-6.400604,6.404629945755005
1618935306.09784,-9.693695,6.420259952545166
1618935306.11346,-12.62067,6.435879945755005
1618935306.12909,-15.0625,6.451509952545166
1618935306.14471,-17.14392,6.467129945755005
1618935306.16034,-19.17026,6.482759952545166
1618935306.17596,-21.52145,6.498379945755005
1618935306.19159,-24.47104,6.514009952545166
1618935306.20722,-28.02277,6.529639959335327
1618935306.22284,-31.84259,6.545259952545166
1618935306.23847,-35.2869,6.560889959335327
1618935306.25409,-37.57797,6.576509952545166
1618935306.26972,-38.01758,6.592139959335327
1618935306.28534,-36.16727,6.607759952545166
1618935306.30097,-31.97119,6.623389959335327
1618935306.3166,-25.77292,6.639019966125488
1618935306.33222,-18.1958,6.654639959335327
1618935306.34785,-10.02228,6.670269966125488
1618935306.36347,-2.017731,6.685889959335327
1618935306.3791,5.185333,6.701519966125488
1618935306.39473,11.12137,6.717149972915649
1618935306.41035,15.51147,6.732769966125488
1618935306.42598,18.24576,6.748399972915649
1618935306.4416,19.41476,6.764019966125488
1618935306.45723,19.25287,6.779649972915649
1618935306.47285,18.17691,6.795269966125488
1618935306.48848,16.67889,6.810899972915649
1618935306.50411,15.22781,6.8265299797058105
1618935306.51973,14.13992,6.842149972915649
1618935306.53536,13.49893,6.8577799797058105
1618935306.55098,13.17203,6.873399972915649
1618935306.56661,12.89148,6.8890299797058105
1618935306.58223,12.40619,6.904649972915649
1618935306.59786,11.59369,6.9202799797058105
1618935306.61349,10.51157,6.935909986495972
1618935306.62911,9.319366,6.9515299797058105
1618935306.64474,8.138977,6.967159986495972
1618935306.66036,6.98468,6.9827799797058105
1618935306.67599,5.72644,6.998409986495972
1618935306.69161,4.177612,7.0140299797058105
1618935306.70724,2.219849,7.029659986495972
1618935306.72287,-0.1161804,7.045289993286133
1618935306.73849,-2.655212,7.060909986495972
1618935306.75412,-5.138885,7.076539993286133
1618935306.76974,-7.382446,7.092159986495972
1618935306.78537,-9.338928,7.107789993286133
1618935306.80099,-11.11859,7.123409986495972
1618935306.81662,-12.96909,7.139039993286133
1618935306.83225,-15.18393,7.154670000076294
1618935306.84787,-18.00146,7.170289993286133
1618935306.8635,-21.50946,7.185920000076294
1618935306.87912,-25.59476,7.201539993286133
1618935306.89475,-29.88812,7.217170000076294
1618935306.91037,-33.77994,7.232789993286133
1618935306.926,-36.53461,7.248420000076294
1618935306.94163,-37.4451,7.264049768447876
1618935306.95725,-36.03995,7.279670000076294
1618935306.97288,-32.21494,7.295299768447876
1618935306.9885,-26.26184,7.310920000076294
1618935307.00413,-18.79929,7.326549768447876
1618935307.01975,-10.6326,7.342170000076294
1618935307.03538,-2.602966,7.357799768447876
1618935307.05101,4.578339,7.373429775238037
1618935307.06663,10.37988,7.389049768447876
1618935307.08226,14.52863,7.404679775238037
1618935307.09788,17.0076,7.420299768447876
1618935307.11351,18.04132,7.435929775238037
1618935307.12913,18.02057,7.451549768447876
1618935307.14476,17.41019,7.467179775238037
1618935307.16039,16.62433,7.482809782028198
1618935307.17601,15.94833,7.498429775238037
1618935307.19164,15.54044,7.514059782028198
1618935307.20726,15.38461,7.529679775238037
1618935307.22289,15.40143,7.545309782028198
1618935307.23851,15.44696,7.560929775238037
1618935307.25414,15.40128,7.576559782028198
1618935307.26977,15.14566,7.592189788818359
1618935307.28539,14.60321,7.607809782028198
1618935307.30102,13.73816,7.623439788818359
1618935307.31664,12.52032,7.639059782028198
1618935307.33227,10.97171,7.654689788818359
1618935307.34789,9.099487,7.670309782028198
1618935307.36352,6.950348,7.685939788818359
1618935307.37915,4.601837,7.7015697956085205
1618935307.39477,2.132355,7.717189788818359
1618935307.4104,-0.4098816,7.7328197956085205
1618935307.42602,-3.013184,7.748439788818359
1618935307.44165,-5.668823,7.7640697956085205
1618935307.45727,-8.382355,7.779689788818359
1618935307.4729,-11.11215,7.7953197956085205
1618935307.48853,-13.85236,7.810949802398682
1618935307.50415,-16.66751,7.8265697956085205
1618935307.51978,-19.67966,7.842199802398682
1618935307.5354,-23.01978,7.8578197956085205
1618935307.55103,-26.62518,7.873449802398682
1618935307.56665,-30.07578,7.8890697956085205
1618935307.58228,-32.58322,7.904699802398682
1618935307.59791,-33.23203,7.920329809188843
1618935307.61353,-31.30066,7.935949802398682
1618935307.62916,-26.6814,7.951579809188843
1618935307.64478,-19.92636,7.967199802398682
1618935307.66041,-12.07471,7.982829809188843
1618935307.67603,-4.26239,7.998449802398682
1618935307.69166,2.683563,8.014079809188843
1618935307.70729,8.401794,8.029709815979004
1618935307.72291,12.94043,8.045329809188843
1618935307.73854,16.46585,8.060959815979004
1618935307.75416,19.07574,8.076579809188843
1618935307.76979,20.69931,8.092209815979004
1618935307.78541,21.22049,8.107829809188843
1618935307.80104,20.63257,8.123459815979004
1618935307.81667,19.14798,8.139089822769165
1618935307.83229,17.16257,8.154709815979004
1618935307.84792,15.1171,8.170339822769165
1618935307.86354,13.37375,8.185959815979004
1618935307.87917,12.1048,8.201589822769165
1618935307.89479,11.29947,8.217209815979004
1618935307.91042,10.82565,8.232839822769165
1618935307.92605,10.49966,8.248469829559326
1618935307.94167,10.14142,8.264089822769165
1618935307.9573,9.605835,8.279719829559326
1618935307.97292,8.769623,8.295339822769165
1618935307.98855,7.558533,8.310969829559326
1618935308.00417,5.911194,8.326589822769165
1618935308.0198,3.84903,8.342219829559326
1618935308.03543,1.468109,8.357849836349487
1618935308.05105,-1.0755,8.373469829559326
1618935308.06668,-3.617371,8.389099836349487
1618935308.0823,-6.109894,8.404719829559326
1618935308.09793,-8.603027,8.420349836349487
1618935308.11355,-11.28659,8.435969829559326
1618935308.12918,-14.38385,8.451599836349487
1618935308.14481,-18.03928,8.467229843139648
1618935308.16043,-22.20795,8.482849836349487
1618935308.17606,-26.5556,8.498479843139648
1618935308.19168,-30.53577,8.514099836349487
1618935308.20731,-33.4819,8.529729843139648
1618935308.22293,-34.72357,8.545349836349487
1618935308.23856,-33.77487,8.560979843139648
1618935308.25419,-30.47052,8.57660984992981
1618935308.26981,-25.00699,8.592229843139648
1618935308.28544,-17.96652,8.60785984992981
1618935308.30106,-10.16321,8.623479843139648
1618935308.31669,-2.474396,8.63910984992981
1618935308.33231,4.407776,8.654729843139648
1618935308.34794,10.06894,8.67035984992981
1618935308.36357,14.40475,8.68598985671997
1618935308.37919,17.49103,8.70160984992981
1618935308.39482,19.4129,8.71723985671997
1618935308.41044,20.22147,8.73285984992981
1618935308.42607,19.95068,8.74848985671997
1618935308.44169,18.72665,8.76410984992981
1618935308.45732,16.85605,8.77973985671997
1618935308.47295,14.82202,8.795369863510132
1618935308.48857,13.11429,8.81098985671997
1618935308.5042,12.05176,8.826619863510132
1618935308.51982,11.68228,8.84223985671997
1618935308.53545,11.76309,8.857869863510132
1618935308.55107,11.94626,8.87348985671997
1618935308.5667,11.93774,8.889119863510132
1618935308.58233,11.58994,8.904749870300293
1618935308.59795,10.87469,8.920369863510132
1618935308.61358,9.815674,8.935999870300293
1618935308.6292,8.378571,8.951619863510132
1618935308.64483,6.492889,8.967249870300293
1618935308.66045,4.113373,8.982869863510132
1618935308.67608,1.317383,8.998499870300293
1618935308.69171,-1.690125,9.014129877090454
1618935308.70733,-4.675568,9.029749870300293
1618935308.72296,-7.501312,9.045379877090454
1618935308.73858,-10.24011,9.060999870300293
1618935308.75421,-13.13968,9.076629877090454
1618935308.76984,-16.51004,9.092259883880615
1618935308.78546,-20.48883,9.107879877090454
1618935308.80109,-24.88071,9.123509883880615
1618935308.81671,-29.121,9.139129877090454
1618935308.83234,-32.35809,9.154759883880615
1618935308.84796,-33.71945,9.170379877090454
1618935308.86359,-32.58176,9.186009883880615
1618935308.87922,-28.7735,9.201639890670776
1618935308.89484,-22.6377,9.217259883880615
1618935308.91047,-14.94327,9.232889890670776
1618935308.92609,-6.650848,9.248509883880615
1618935308.94172,1.328949,9.264139890670776
1618935308.95734,8.317596,9.279759883880615
1618935308.97297,13.94894,9.295389890670776
1618935308.9886,18.09485,9.311019897460938
1618935309.00422,20.77966,9.326639890670776
1618935309.01985,22.12508,9.342269897460938
1618935309.03547,22.29297,9.357889890670776
1618935309.0511,21.58537,9.373519897460938
1618935309.06672,20.38379,9.389139890670776
1618935309.08235,19.08478,9.404769897460938
1618935309.09798,17.97675,9.420399904251099
1618935309.1136,17.17255,9.436019897460938
1618935309.12923,16.5647,9.451649904251099
1618935309.14485,15.98914,9.467269897460938
1618935309.16048,15.29117,9.482899904251099
1618935309.1761,14.43565,9.498519897460938
1618935309.19173,13.48495,9.514149904251099
1618935309.20736,12.50681,9.52977991104126
1618935309.22298,11.47302,9.545399904251099
1618935309.23861,10.2558,9.56102991104126
1618935309.25423,8.713959,9.576649904251099
1618935309.26986,6.754028,9.59227991104126
1618935309.28548,4.436401,9.607899904251099
1618935309.30111,1.918518,9.62352991104126
1618935309.31674,-0.6341553,9.639159917831421
1618935309.33236,-3.14798,9.65477991104126
1618935309.34799,-5.669922,9.670409917831421
1618935309.36361,-8.358917,9.68602991104126
1618935309.37924,-11.41882,9.701659917831421
1618935309.39486,-14.96249,9.71727991104126
1618935309.41049,-18.98706,9.732909917831421
1618935309.42612,-23.2341,9.748539924621582
1618935309.44174,-27.21106,9.764159917831421
1618935309.45737,-30.19858,9.779789924621582
1618935309.47299,-31.39639,9.795409917831421
1618935309.48862,-30.16132,9.811039924621582
1618935309.50424,-26.21948,9.826659917831421
1618935309.51987,-19.82651,9.842289924621582
1618935309.5355,-11.74944,9.857919931411743
1618935309.55112,-3.041794,9.873539924621582
1618935309.56675,5.265793,9.889169931411743
1618935309.58237,12.38403,9.904789924621582
1618935309.598,17.92273,9.920419931411743
1618935309.61362,21.7928,9.936039924621582
1618935309.62925,24.10669,9.951669931411743
1618935309.64488,25.05589,9.967299938201904
1618935309.6605,24.83798,9.982919931411743
1618935309.67613,23.73669,9.998549938201904
1618935309.69175,22.10536,10.014169931411743
1618935309.70738,20.38896,10.029799938201904
1618935309.723,18.96036,10.045419931411743
1618935309.73863,18.06546,10.061049938201904
1618935309.75426,17.7171,10.076679944992065
1618935309.76988,17.73572,10.092299938201904
1618935309.78551,17.84804,10.107929944992065
1618935309.80113,17.79819,10.123549938201904
1618935309.81676,17.4366,10.139179944992065
1618935309.83238,16.68602,10.154799938201904
1618935309.84801,15.52737,10.170429944992065
1618935309.86364,13.93808,10.186059951782227
1618935309.87926,11.91788,10.201679944992065
1618935309.89489,9.50502,10.217309951782227
1618935309.91051,6.833664,10.232929944992065
1618935309.92614,4.104645,10.248559951782227
1618935309.94176,1.492722,10.264179944992065
1618935309.95739,-0.9173584,10.279809951782227
1618935309.97302,-3.158325,10.295439958572388
1618935309.98864,-5.404037,10.311059951782227
1618935310.00427,-7.866501,10.326689958572388
1618935310.01989,-10.72932,10.342309951782227
1618935310.03552,-14.08052,10.357939958572388
1618935310.05114,-17.83215,10.373559951782227
1618935310.06677,-21.67175,10.389189958572388
1618935310.0824,-25.04187,10.404819965362549
1618935310.09802,-27.22707,10.420439958572388
1618935310.11365,-27.52791,10.436069965362549
1618935310.12927,-25.48605,10.451689958572388
1618935310.1449,-21.09555,10.467319965362549
1618935310.16052,-14.83118,10.482939958572388
1618935310.17615,-7.518066,10.498569965362549
1618935310.19178,-0.08337402,10.51419997215271
1618935310.2074,6.740692,10.529819965362549
1618935310.22303,12.48404,10.54544997215271
1618935310.23865,16.92851,10.561069965362549
1618935310.25428,20.00636,10.57669997215271
1618935310.2699,21.72668,10.592319965362549
1618935310.28553,22.14,10.60794997215271
1618935310.30116,21.42696,10.623579978942871
1618935310.31678,19.88379,10.63919997215271
1618935310.33241,17.9192,10.654829978942871
1618935310.34803,15.92728,10.67044997215271
1618935310.36366,14.21613,10.686079978942871
1618935310.37928,12.97997,10.70169997215271
1618935310.39491,12.21576,10.717329978942871
1618935310.41054,11.81136,10.732959985733032
1618935310.42616,11.53673,10.748579978942871
1618935310.44179,11.1188,10.764209985733032
1618935310.45741,10.29036,10.779829978942871
1618935310.47304,8.930206,10.795459985733032
1618935310.48866,7.071594,10.811079978942871
1618935310.50429,4.911865,10.826709985733032
1618935310.51992,2.688629,10.842339992523193
1618935310.53554,0.5469971,10.857959985733032
1618935310.55117,-1.52832,10.873589992523193
1618935310.56679,-3.686035,10.889209985733032
1618935310.58242,-6.073669,10.904839992523193
1618935310.59804,-8.744354,10.920459985733032
1618935310.61367,-11.651,10.936089992523193
1618935310.6293,-14.70087,10.951719999313354
1618935310.64492,-17.86377,10.967339992523193
1618935310.66055,-21.18256,10.982969999313354
1618935310.67617,-24.65756,10.998589992523193
1618935310.6918,-28.1077,11.014219999313354
1618935310.70742,-31.04993,11.029839992523193
1618935310.72305,-32.76004,11.045469999313354
1618935310.73868,-32.4921,11.061099767684937
1618935310.7543,-29.78769,11.076719999313354
1618935310.76993,-24.68216,11.092349767684937
1618935310.78555,-17.75244,11.107969999313354
1618935310.80118,-9.915375,11.123599767684937
1618935310.8168,-2.162323,11.139219999313354
1618935310.83243,4.747009,11.154849767684937
1618935310.84806,10.38498,11.170479774475098
1618935310.86368,14.64468,11.186099767684937
1618935310.87931,17.59631,11.201729774475098
1618935310.89493,19.34308,11.217349767684937
1618935310.91056,19.96481,11.232979774475098
1618935310.92618,19.53737,11.248599767684937
1618935310.94181,18.22267,11.264229774475098
1618935310.95744,16.27094,11.279859781265259
1618935310.97306,14.0435,11.295479774475098
1618935310.98869,11.8918,11.311109781265259
1618935311.00431,10.07372,11.326729774475098
1618935311.01994,8.709473,11.342359781265259
1618935311.03556,7.783539,11.357979774475098
1618935311.05119,7.212585,11.373609781265259
1618935311.06682,6.889008,11.38923978805542
1618935311.08244,6.683014,11.404859781265259
1618935311.09807,6.41922,11.42048978805542
1618935311.11369,5.869598,11.436109781265259
1618935311.12932,4.768127,11.45173978805542
1618935311.14494,2.917145,11.467359781265259
1618935311.16057,0.2979736,11.48298978805542
1618935311.1762,-2.912598,11.498619794845581
1618935311.19182,-6.365784,11.51423978805542
1618935311.20745,-9.7005,11.529869794845581
1618935311.22307,-12.68604,11.54548978805542
1618935311.2387,-15.30893,11.561119794845581
1618935311.25433,-17.75391,11.576749801635742
1618935311.26995,-20.33624,11.592369794845581
1618935311.28558,-23.31851,11.607999801635742
1618935311.3012,-26.80209,11.623619794845581
1618935311.31683,-30.64679,11.639249801635742
1618935311.33245,-34.42062,11.654869794845581
1618935311.34808,-37.48129,11.670499801635742
1618935311.36371,-39.05457,11.686129808425903
1618935311.37933,-38.42236,11.701749801635742
1618935311.39496,-35.13632,11.717379808425903
1618935311.41058,-29.23663,11.732999801635742
1618935311.42621,-21.26315,11.748629808425903
1618935311.44183,-12.17203,11.764249801635742
1618935311.45746,-3.059204,11.779879808425903
1618935311.47309,5.148529,11.795509815216064
1618935311.48871,11.91925,11.811129808425903
1618935311.50434,17.12018,11.826759815216064
1618935311.51996,20.88904,11.842379808425903
1618935311.53559,23.45079,11.858009815216064
1618935311.55121,24.94408,11.873629808425903
1618935311.56684,25.46564,11.889259815216064
1618935311.58247,25.13597,11.904889822006226
1618935311.59809,24.17567,11.920509815216064
1618935311.61372,22.90842,11.936139822006226
1618935311.62934,21.68248,11.951759815216064
1618935311.64497,20.7242,11.967389822006226
1618935311.66059,20.0817,11.983009815216064
1618935311.67622,19.62309,11.998639822006226
1618935311.69185,19.15421,12.014269828796387
1618935311.70747,18.54277,12.029889822006226
1618935311.7231,17.74724,12.045519828796387
1618935311.73872,16.78262,12.061139822006226
1618935311.75435,15.67491,12.076769828796387
1618935311.76997,14.33821,12.092389822006226
1618935311.7856,12.61375,12.108019828796387
1618935311.80123,10.34805,12.123649835586548
1618935311.81685,7.503876,12.139269828796387
1618935311.83248,4.210953,12.154899835586548
1618935311.8481,0.7543335,12.170519828796387
1618935311.86373,-2.586166,12.186149835586548
1618935311.87935,-5.664993,12.201769828796387
1618935311.89498,-8.533722,12.217399835586548
1618935311.91061,-11.44897,12.233029842376709
1618935311.92623,-14.7124,12.248649835586548
1618935311.94186,-18.54666,12.264279842376709
1618935311.95748,-22.9359,12.279899835586548
1618935311.97311,-27.58276,12.295529842376709
1618935311.98873,-31.89215,12.311149835586548
1618935312.00436,-35.08069,12.326779842376709
1618935312.01999,-36.35722,12.34240984916687
1618935312.03561,-35.11888,12.358029842376709
1618935312.05124,-31.17062,12.37365984916687
1618935312.06686,-24.81158,12.389279842376709
1618935312.08249,-16.78862,12.40490984916687
1618935312.09811,-8.092712,12.420529842376709
1618935312.11374,0.3228455,12.43615984916687
1618935312.12937,7.804596,12.451789855957031
1618935312.14499,14.06029,12.46740984916687
1618935312.16062,19.08319,12.483039855957031
1618935312.17624,22.97221,12.49865984916687
1618935312.19187,25.78386,12.514289855957031
1618935312.20749,27.5172,12.52990984916687
1618935312.22312,28.1671,12.545539855957031
1618935312.23875,27.86041,12.561169862747192
1618935312.25437,26.88892,12.576789855957031
1618935312.27,25.64703,12.592419862747192
1618935312.28562,24.48315,12.608039855957031
1618935312.30125,23.57169,12.623669862747192
1618935312.31687,22.8779,12.639289855957031
1618935312.3325,22.22607,12.654919862747192
1618935312.34813,21.48672,12.670549869537354
1618935312.36375,20.59763,12.686169862747192
1618935312.37938,19.61388,12.701799869537354
1618935312.395,18.56393,12.717419862747192
1618935312.41063,17.37604,12.733049869537354
1618935312.42625,15.84354,12.748669862747192
1618935312.44188,13.715,12.764299869537354
1618935312.45751,10.85727,12.779929876327515
1618935312.47313,7.353867,12.795549869537354
1618935312.48876,3.496918,12.811179876327515
1618935312.50438,-0.3303833,12.826799869537354
1618935312.52001,-3.827621,12.842429876327515
1618935312.53563,-6.928711,12.858049869537354
1618935312.55126,-9.766846,12.873679876327515
1618935312.56689,-12.62228,12.889309883117676
1618935312.58251,-15.78143,12.904929876327515
1618935312.59814,-19.48923,12.920559883117676
1618935312.61376,-23.85091,12.936179876327515
1618935312.62939,-28.77399,12.951809883117676
1618935312.64501,-33.93408,12.967429876327515
1618935312.66064,-38.7151,12.983059883117676
1618935312.67627,-42.26205,12.998689889907837
1618935312.69189,-43.66359,13.014309883117676
1618935312.70752,-42.22699,13.029939889907837
1618935312.72314,-37.75839,13.045559883117676
1618935312.73877,-30.64677,13.061189889907837
1618935312.75439,-21.77777,13.076809883117676
1618935312.77002,-12.25952,13.092439889907837
1618935312.78565,-3.092667,13.108069896697998
1618935312.80127,5.035507,13.123689889907837
1618935312.8169,11.75726,13.139319896697998
1618935312.83252,16.91095,13.154939889907837
1618935312.84815,20.40817,13.170569896697998
1618935312.86377,22.21974,13.186189889907837
1618935312.8794,22.43552,13.201819896697998
1618935312.89503,21.41013,13.21744990348816
1618935312.91065,19.74969,13.233069896697998
1618935312.92628,18.1734,13.24869990348816
1618935312.9419,17.27454,13.264319896697998
1618935312.95753,17.26193,13.27994990348816
1618935312.97315,17.94307,13.295569896697998
1618935312.98878,18.82173,13.31119990348816
1618935313.00441,19.37454,13.32682991027832
1618935313.02003,19.25209,13.34244990348816
1618935313.03566,18.38989,13.35807991027832
1618935313.05128,16.9584,13.37369990348816
1618935313.06691,15.21466,13.38932991027832
1618935313.08253,13.39342,13.40494990348816
1618935313.09816,11.57671,13.42057991027832
1618935313.11379,9.722321,13.436209917068481
1618935313.12941,7.700928,13.45182991027832
1618935313.14504,5.370758,13.467459917068481
1618935313.16066,2.6521,13.48307991027832
1618935313.17629,-0.4230042,13.498709917068481
1618935313.19191,-3.69986,13.51432991027832
1618935313.20754,-6.948273,13.529959917068481
1618935313.22317,-9.953094,13.545589923858643
1618935313.23879,-12.61649,13.561209917068481
1618935313.25442,-15.00769,13.576839923858643
1618935313.27004,-17.35745,13.592459917068481
1618935313.28567,-19.9455,13.608089923858643
1618935313.30129,-23.01709,13.623709917068481
1618935313.31692,-26.64407,13.639339923858643
1618935313.33255,-30.63824,13.654969930648804
1618935313.34817,-34.52945,13.670589923858643
1618935313.3638,-37.60626,13.686219930648804
1618935313.37942,-39.05075,13.701839923858643
1618935313.39505,-38.18008,13.717469930648804
1618935313.41067,-34.68088,13.733089923858643
1618935313.4263,-28.77545,13.748719930648804
1618935313.44193,-21.16037,13.764349937438965
1618935313.45755,-12.7738,13.779969930648804
1618935313.47318,-4.480957,13.795599937438965
1618935313.4888,3.144958,13.811219930648804
1618935313.50443,9.844681,13.826849937438965
1618935313.52006,15.52243,13.842479944229126
1618935313.53568,20.05548,13.858099937438965
1618935313.55131,23.26611,13.873729944229126
1618935313.56693,25.009,13.889349937438965
1618935313.58256,25.35544,13.904979944229126
1618935313.59818,24.6808,13.920599937438965
1618935313.61381,23.57068,13.936229944229126
1618935313.62944,22.5914,13.951859951019287
1618935313.64506,22.05927,13.967479944229126
1618935313.66069,21.95715,13.983109951019287
1618935313.67631,21.99969,13.998729944229126
1618935313.69194,21.82703,14.014359951019287
1618935313.70756,21.19339,14.029979944229126
1618935313.72319,20.04266,14.045609951019287
1618935313.73882,18.51079,14.061239957809448
1618935313.75444,16.81058,14.076859951019287
1618935313.77007,15.16182,14.092489957809448
1618935313.78569,13.67003,14.108109951019287
1618935313.80132,12.30595,14.123739957809448
1618935313.81694,10.88168,14.139359951019287
1618935313.83257,9.143677,14.154989957809448
1618935313.8482,6.905762,14.17061996459961
1618935313.86382,4.159958,14.186239957809448
1618935313.87945,1.131561,14.20186996459961
1618935313.89507,-1.831696,14.217489957809448
1618935313.9107,-4.433075,14.23311996459961
1618935313.92632,-6.596405,14.248739957809448
1618935313.94195,-8.513092,14.26436996459961
1618935313.95758,-10.54453,14.27999997138977
1618935313.9732,-13.05963,14.29561996459961
1618935313.98883,-16.311,14.31124997138977
1618935314.00445,-20.34363,14.32686996459961
1618935314.02008,-25.01532,14.34249997138977
1618935314.0357,-29.98187,14.35811996459961
1618935314.05133,-34.70047,14.37374997138977
1618935314.06696,-38.44958,14.389379978179932
1618935314.08258,-40.41071,14.40499997138977
1618935314.09821,-39.87439,14.420629978179932
1618935314.11383,-36.49673,14.43624997138977
1618935314.12946,-30.4306,14.451879978179932
1618935314.14508,-22.32355,14.46749997138977
1618935314.16071,-13.11398,14.483129978179932
1618935314.17634,-3.743591,14.498759984970093
1618935314.19196,5.049896,14.514379978179932
1618935314.20759,12.77499,14.530009984970093
1618935314.22321,19.14273,14.545629978179932
1618935314.23884,23.93365,14.561259984970093
1618935314.25446,27.00751,14.576879978179932
1618935314.27009,28.34503,14.592509984970093
1618935314.28572,28.15164,14.608139991760254
1618935314.30134,26.88982,14.623759984970093
1618935314.31697,25.16388,14.639389991760254
1618935314.33259,23.55615,14.655009984970093
1618935314.34822,22.46143,14.670639991760254
1618935314.36384,21.95729,14.686259984970093
1618935314.37947,21.86258,14.701889991760254
1618935314.3951,21.82111,14.717519998550415
1618935314.41072,21.4837,14.733139991760254
1618935314.42635,20.65598,14.748769998550415
1618935314.44197,19.34756,14.764389991760254
1618935314.4576,17.74741,14.780019998550415
1618935314.47322,16.09998,14.795639991760254
1618935314.48885,14.58244,14.811269998550415
1618935314.50448,13.19604,14.826899766921997
1618935314.5201,11.71121,14.842519998550415
1618935314.53573,9.803192,14.858149766921997
1618935314.55135,7.15979,14.873769998550415
1618935314.56698,3.667358,14.889399766921997
1618935314.5826,-0.5167236,14.905019998550415
1618935314.59823,-4.984161,14.920649766921997
1618935314.61386,-9.250977,14.936279773712158
1618935314.62948,-12.94077,14.951899766921997
1618935314.64511,-15.92014,14.967529773712158
1618935314.66073,-18.35956,14.983149766921997
1618935314.67636,-20.64777,14.998779773712158
1618935314.69198,-23.25974,15.014399766921997
1618935314.70761,-26.55368,15.030029773712158
1618935314.72324,-30.55774,15.04565978050232
1618935314.73886,-34.88913,15.061279773712158
1618935314.75449,-38.7803,15.07690978050232
1618935314.77011,-41.26828,15.092529773712158
1618935314.78574,-41.52029,15.10815978050232
1618935314.80136,-39.08521,15.123779773712158
1618935314.81699,-34.05637,15.13940978050232
1618935314.83262,-27.00565,15.15503978729248
1618935314.84824,-18.74615,15.17065978050232
1618935314.86387,-10.1123,15.18628978729248
1618935314.87949,-1.770386,15.20190978050232
1618935314.89512,5.805634,15.21753978729248
1618935314.91074,12.27454,15.23315978050232
1618935314.92637,17.32083,15.24878978729248
1618935314.942,20.68842,15.264419794082642
1618935314.95762,22.26669,15.28003978729248
1618935314.97325,22.22855,15.295669794082642
1618935314.98887,21.04913,15.31128978729248
1618935315.0045,19.4184,15.326919794082642
1618935315.02012,17.97488,15.34253978729248
1618935315.03575,17.11594,15.358169794082642
1618935315.05138,16.87152,15.373799800872803
1618935315.067,16.93866,15.389419794082642
1618935315.08263,16.90622,15.405049800872803
1618935315.09825,16.47571,15.420669794082642
1618935315.11388,15.60858,15.436299800872803
1618935315.1295,14.50443,15.451919794082642
1618935315.14513,13.45734,15.467549800872803
1618935315.16076,12.61014,15.483179807662964
1618935315.17638,11.83575,15.498799800872803
1618935315.19201,10.80399,15.514429807662964
1618935315.20763,9.138275,15.530049800872803
1618935315.22326,6.662872,15.545679807662964
1618935315.23888,3.543213,15.561299800872803
1618935315.25451,0.2054138,15.576929807662964
1618935315.27014,-2.864319,15.592559814453125
1618935315.28576,-5.347931,15.608179807662964
1618935315.30139,-7.226105,15.623809814453125
1618935315.31701,-8.727875,15.639429807662964
1618935315.33264,-10.20813,15.655059814453125
1618935315.34826,-12.01151,15.670679807662964
1618935315.36389,-14.40182,15.686309814453125
1618935315.37952,-17.53473,15.701939821243286
1618935315.39514,-21.43817,15.717559814453125
1618935315.41077,-25.92102,15.733189821243286
1618935315.42639,-30.47046,15.748809814453125
1618935315.44202,-34.27347,15.764439821243286
1618935315.45764,-36.37753,15.780059814453125
1618935315.47327,-35.99094,15.795689821243286
1618935315.4889,-32.79205,15.811319828033447
1618935315.50452,-27.05084,15.826939821243286
1618935315.52015,-19.52911,15.842569828033447
1618935315.53577,-11.20782,15.858189821243286
1618935315.5514,-2.970062,15.873819828033447
1618935315.56702,4.595581,15.889439821243286
1618935315.58265,11.18591,15.905069828033447
1618935315.59828,16.67139,15.920699834823608
1618935315.6139,20.95139,15.936319828033447
1618935315.62953,23.94717,15.951949834823608
1618935315.64515,25.62167,15.967569828033447
1618935315.66078,26.05542,15.983199834823608
1618935315.6764,25.46179,15.998819828033447
1618935315.69203,24.17206,16.01444983482361
1618935315.70766,22.58392,16.03007984161377
1618935315.72328,21.08371,16.04569983482361
1618935315.73891,19.98352,16.06132984161377
1618935315.75453,19.45636,16.07694983482361
1618935315.77016,19.48886,16.09257984161377
1618935315.78578,19.86429,16.10819983482361
1618935315.80141,20.22845,16.12382984161377
1618935315.81704,20.20865,16.13945984840393
1618935315.83266,19.54385,16.15507984161377
1618935315.84829,18.18051,16.17070984840393
1618935315.86391,16.22937,16.18632984161377
1618935315.87954,13.88678,16.20195984840393
1618935315.89516,11.32263,16.21757984161377
1618935315.91079,8.591431,16.23320984840393
1618935315.92642,5.650299,16.248839855194092
1618935315.94204,2.438202,16.26445984840393
1618935315.95767,-1.009064,16.280089855194092
1618935315.97329,-4.52774,16.29570984840393
1618935315.98892,-7.872101,16.311339855194092
1618935316.00454,-10.85818,16.32695984840393
1618935316.02017,-13.52081,16.342589855194092
1618935316.0358,-16.14398,16.358219861984253
1618935316.05142,-19.16971,16.373839855194092
1618935316.06705,-22.98041,16.389469861984253
1618935316.08267,-27.58099,16.405089855194092
1618935316.0983,-32.46722,16.420719861984253
1618935316.11393,-36.66406,16.436349868774414
1618935316.12955,-38.98184,16.451969861984253
1618935316.14518,-38.47879,16.467599868774414
1618935316.1608,-34.80368,16.483219861984253
1618935316.17643,-28.34607,16.498849868774414
1618935316.19205,-20.0787,16.514469861984253
1618935316.20768,-11.19626,16.530099868774414
1618935316.22331,-2.7565,16.545729875564575
1618935316.23893,4.576691,16.561349868774414
1618935316.25456,10.48843,16.576979875564575
1618935316.27018,14.9122,16.592599868774414
1618935316.28581,17.84402,16.608229875564575
1618935316.30143,19.31775,16.623849868774414
1618935316.31706,19.4472,16.639479875564575
1618935316.33269,18.50528,16.655109882354736
1618935316.34831,16.9371,16.670729875564575
1618935316.36394,15.26779,16.686359882354736
1618935316.37956,13.9458,16.701979875564575
1618935316.39519,13.21011,16.717609882354736
1618935316.41081,13.03909,16.733229875564575
1618935316.42644,13.216,16.748859882354736
1618935316.44207,13.45944,16.764489889144897
1618935316.45769,13.51892,16.780109882354736
1618935316.47332,13.25299,16.795739889144897
1618935316.48894,12.60257,16.811359882354736
1618935316.50457,11.57913,16.826989889144897
1618935316.52019,10.21509,16.842609882354736
1618935316.53582,8.539398,16.858239889144897
1618935316.55145,6.604401,16.87386989593506
1618935316.56707,4.451843,16.889489889144897
1618935316.5827,2.153717,16.90511989593506
1618935316.59832,-0.2466431,16.920739889144897
1618935316.61395,-2.716187,16.93636989593506
1618935316.62957,-5.217194,16.951989889144897
1618935316.6452,-7.731598,16.96761989593506
1618935316.66083,-10.23846,16.98324990272522
1618935316.67645,-12.78287,16.99886989593506
1618935316.69208,-15.44983,17.01449990272522
1618935316.7077,-18.40561,17.03011989593506
1618935316.72333,-21.78287,17.04574990272522
1618935316.73895,-25.55249,17.06136989593506
1618935316.75458,-29.33942,17.07699990272522
1618935316.77021,-32.42554,17.09262990951538
1618935316.78583,-33.89288,17.10824990272522
1618935316.80146,-32.94403,17.12387990951538
1618935316.81708,-29.21985,17.13949990272522
1618935316.83271,-22.98611,17.15512990951538
1618935316.84833,-15.0484,17.17074990272522
1618935316.86396,-6.490997,17.18637990951538
1618935316.87959,1.68158,17.202009916305542
1618935316.89521,8.775421,17.21762990951538
1618935316.91084,14.41348,17.233259916305542
1618935316.92646,18.47247,17.24887990951538
1618935316.94209,20.93262,17.264509916305542
1618935316.95771,21.81967,17.28012990951538
1618935316.97334,21.29294,17.295759916305542
1618935316.98897,19.66678,17.311389923095703
1618935317.00459,17.44754,17.327009916305542
1618935317.02022,15.21121,17.342639923095703
1618935317.03584,13.45187,17.358259916305542
1618935317.05147,12.39685,17.373889923095703
1618935317.06709,11.99808,17.389509916305542
1618935317.08272,11.99826,17.405139923095703
1618935317.09835,12.04822,17.420769929885864
1618935317.11397,11.85623,17.436389923095703
1618935317.1296,11.24347,17.452019929885864
1618935317.14522,10.15182,17.467639923095703
1618935317.16085,8.612915,17.483269929885864
1618935317.17647,6.69281,17.498889923095703
1618935317.1921,4.48349,17.514519929885864
1618935317.20773,2.092346,17.530149936676025
1618935317.22335,-0.3878784,17.545769929885864
1618935317.23898,-2.905457,17.561399936676025
1618935317.2546,-5.436829,17.577019929885864
1618935317.27023,-8.000549,17.592649936676025
1618935317.28585,-10.66504,17.608269929885864
1618935317.30148,-13.53537,17.623899936676025
1618935317.31711,-16.75385,17.639529943466187
1618935317.33273,-20.4606,17.655149936676025
1618935317.34836,-24.65308,17.670779943466187
1618935317.36398,-29.07455,17.686399936676025
1618935317.37961,-33.09424,17.702029943466187
1618935317.39523,-35.78223,17.717649936676025
1618935317.41086,-36.15576,17.733279943466187
1618935317.42649,-33.55002,17.748909950256348
1618935317.44211,-27.92273,17.764529943466187
1618935317.45774,-19.95145,17.780159950256348
1618935317.47336,-10.84882,17.795779943466187
1618935317.48899,-1.922546,17.811409950256348
1618935317.50461,5.81427,17.827029943466187
1618935317.52024,11.9053,17.842659950256348
1618935317.53587,16.35797,17.85828995704651
1618935317.55149,19.4136,17.873909950256348
1618935317.56712,21.2536,17.88953995704651
1618935317.58274,21.90594,17.905159950256348
1618935317.59837,21.31326,17.92078995704651
1618935317.61399,19.5246,17.936409950256348
1618935317.62962,16.85123,17.95203995704651
1618935317.64525,13.84235,17.96766996383667
1618935317.66087,11.14322,17.98328995704651
1618935317.6765,9.258026,17.99891996383667
1618935317.69212,8.364807,18.01453995704651
1618935317.70775,8.280518,18.03016996383667
1618935317.72337,8.545563,18.04578995704651
1618935317.739,8.631653,18.06141996383667
1618935317.75463,8.152069,18.07704997062683
1618935317.77025,6.980743,18.09266996383667
1618935317.78588,5.22818,18.10829997062683
1618935317.8015,3.123138,18.12391996383667
1618935317.81713,0.8713379,18.13954997062683
1618935317.83275,-1.441376,18.15516996383667
1618935317.84838,-3.836304,18.17079997062683
1618935317.86401,-6.394989,18.186429977416992
1618935317.87963,-9.117828,18.20204997062683
1618935317.89526,-11.97327,18.217679977416992
1618935317.91088,-14.95395,18.23329997062683
1618935317.92651,-18.20065,18.248929977416992
1618935317.94213,-21.94519,18.26454997062683
1618935317.95776,-26.35373,18.280179977416992
1618935317.97339,-31.24747,18.295809984207153
1618935317.98901,-35.94095,18.311429977416992
1618935318.00464,-39.35571,18.327059984207153
1618935318.02026,-40.3627,18.342679977416992
1618935318.03589,-38.2225,18.358309984207153
1618935318.05151,-32.92645,18.373929977416992
1618935318.06714,-25.1972,18.389559984207153
1618935318.08277,-16.1933,18.405189990997314
1618935318.09839,-7.098724,18.420809984207153
1618935318.11402,1.183533,18.436439990997314
1618935318.12964,8.165192,18.452059984207153
1618935318.14527,13.6658,18.467689990997314
1618935318.16089,17.66754,18.483309984207153
1618935318.17652,20.19949,18.498939990997314
1618935318.19215,21.32452,18.514569997787476
1618935318.20777,21.18738,18.530189990997314
1618935318.2234,20.06253,18.545819997787476
1618935318.23902,18.34723,18.561439990997314
1618935318.25465,16.47614,18.577069997787476
1618935318.27027,14.83057,18.592689990997314
1618935318.2859,13.65729,18.608319997787476
1618935318.30153,13.01331,18.623949766159058
1618935318.31715,12.76898,18.639569997787476
1618935318.33278,12.6774,18.655199766159058
1618935318.3484,12.45541,18.670819997787476
1618935318.36403,11.875,18.686449766159058
1618935318.37966,10.80441,18.70207977294922
1618935318.39528,9.242249,18.717699766159058
1618935318.41091,7.280701,18.73332977294922
1618935318.42653,5.046326,18.748949766159058
1618935318.44216,2.662781,18.76457977294922
1618935318.45778,0.1883545,18.780199766159058
1618935318.47341,-2.365143,18.79582977294922
1618935318.48904,-5.061035,18.81145977973938
1618935318.50466,-7.998413,18.82707977294922
1618935318.52029,-11.3075,18.84270977973938
1618935318.53591,-15.08963,18.85832977294922
1618935318.55154,-19.36807,18.87395977973938
1618935318.56716,-24.05667,18.88957977294922
1618935318.58279,-28.87436,18.90520977973938
1618935318.59842,-33.31577,18.92083978652954
1618935318.61404,-36.66049,18.93645977973938
1618935318.62967,-38.08365,18.95208978652954
1618935318.64529,-36.87778,18.96770977973938
1618935318.66092,-32.70093,18.98333978652954
1618935318.67654,-25.789,18.99895977973938
1618935318.69217,-16.92239,19.01458978652954
1618935318.7078,-7.254669,19.030219793319702
1618935318.72342,2.033203,19.04583978652954
1618935318.73905,10.07294,19.061469793319702
1618935318.75467,16.45428,19.07708978652954
1618935318.7703,21.18123,19.092719793319702
1618935318.78592,24.47408,19.10833978652954
1618935318.80155,26.58238,19.123969793319702
1618935318.81718,27.64217,19.139599800109863
1618935318.8328,27.74019,19.155219793319702
1618935318.84843,26.97646,19.170849800109863
1618935318.86405,25.5799,19.186469793319702
1618935318.87968,23.89314,19.202099800109863
1618935318.8953,22.2868,19.217719793319702
1618935318.91093,21.04202,19.233349800109863
1618935318.92656,20.2122,19.248979806900024
1618935318.94218,19.65889,19.264599800109863
1618935318.95781,19.08553,19.280229806900024
1618935318.97343,18.22079,19.295849800109863
1618935318.98906,16.89145,19.311479806900024
1618935319.00468,15.09894,19.327099800109863
1618935319.02031,12.95303,19.342729806900024
1618935319.03594,10.59857,19.358359813690186
1618935319.05156,8.14064,19.373979806900024
1618935319.06719,5.599792,19.389609813690186
1618935319.08281,2.94014,19.405229806900024
1618935319.09844,0.1054077,19.420859813690186
1618935319.11406,-2.965683,19.436479806900024
1618935319.12969,-6.332214,19.452109813690186
1618935319.14532,-10.08783,19.467739820480347
1618935319.16094,-14.35683,19.483359813690186
1618935319.17657,-19.23035,19.498989820480347
1618935319.19219,-24.60715,19.514609813690186
1618935319.20782,-30.08139,19.530239820480347
1618935319.22344,-34.89124,19.545859813690186
1618935319.23907,-38.06053,19.561489820480347
1618935319.2547,-38.69081,19.577119827270508
1618935319.27032,-36.2773,19.592739820480347
1618935319.28595,-30.92392,19.608369827270508
1618935319.30157,-23.3214,19.623989820480347
1618935319.3172,-14.49661,19.639619827270508
1618935319.33282,-5.459213,19.655239820480347
1618935319.34845,3.021225,19.670869827270508
1618935319.36408,10.49995,19.68649983406067
1618935319.3797,16.75531,19.702119827270508
1618935319.39533,21.65057,19.71774983406067
1618935319.41095,25.08362,19.733369827270508
1618935319.42658,27.02556,19.74899983406067
1618935319.4422,27.61282,19.764619827270508
1618935319.45783,27.17659,19.78024983406067
1618935319.47346,26.16676,19.79587984085083
1618935319.48908,24.99197,19.81149983406067
1618935319.50471,23.90901,19.82712984085083
1618935319.52033,23.00557,19.84274983406067
1618935319.53596,22.23026,19.85837984085083
1618935319.55158,21.5222,19.87399983406067
1618935319.56721,20.86176,19.88962984085083
1618935319.58284,20.24326,19.90525984764099
1618935319.59846,19.62109,19.92087984085083
1618935319.61409,18.87001,19.93650984764099
1618935319.62971,17.75276,19.95212984085083
1618935319.64534,16.07431,19.96775984764099
1618935319.66096,13.72018,19.98337984085083
1618935319.67659,10.75992,19.99900984764099
1618935319.69222,7.40152,20.014639854431152
1618935319.70784,3.924911,20.03025984764099
1618935319.72347,0.539032,20.045889854431152
1618935319.73909,-2.681259,20.06150984764099
1618935319.75472,-5.821869,20.077139854431152
1618935319.77034,-9.038498,20.09275984764099
1618935319.78597,-12.4828,20.108389854431152
1618935319.8016,-16.2695,20.124019861221313
1618935319.81722,-20.4798,20.139639854431152
1618935319.83285,-25.11026,20.155269861221313
1618935319.84847,-30.01353,20.170889854431152
1618935319.8641,-34.78477,20.186519861221313
1618935319.87972,-38.66821,20.202139854431152
1618935319.89535,-40.69475,20.217769861221313
1618935319.91098,-39.94701,20.233399868011475
1618935319.9266,-35.93753,20.249019861221313
1618935319.94223,-28.85118,20.264649868011475
1618935319.95785,-19.55539,20.280269861221313
1618935319.97348,-9.28952,20.295899868011475
1618935319.9891,0.6913147,20.311519861221313
1618935320.00473,9.477386,20.327149868011475
1618935320.02036,16.60199,20.342779874801636
1618935320.03598,21.92657,20.358399868011475
1618935320.05161,25.46127,20.374029874801636
1618935320.06723,27.2796,20.389649868011475
1618935320.08286,27.50569,20.405279874801636
1618935320.09848,26.39165,20.420899868011475
1618935320.11411,24.39322,20.436529874801636
1618935320.12974,22.06618,20.452159881591797
1618935320.14536,19.96805,20.467779874801636
1618935320.16099,18.47884,20.483409881591797
1618935320.17661,17.67398,20.499029874801636
1618935320.19224,17.37653,20.514659881591797
1618935320.20786,17.22951,20.530279874801636
1618935320.22349,16.86874,20.545909881591797
1618935320.23912,16.0799,20.561539888381958
1618935320.25474,14.79039,20.577159881591797
1618935320.27037,13.10043,20.592789888381958
1618935320.28599,11.15855,20.608409881591797
1618935320.30162,9.077591,20.624039888381958
1618935320.31724,6.817062,20.639659881591797
1618935320.33287,4.284485,20.655289888381958
1618935320.3485,1.374557,20.67091989517212
1618935320.36412,-1.923691,20.686539888381958
1618935320.37975,-5.526016,20.70216989517212
1618935320.39537,-9.220367,20.717789888381958
1618935320.411,-12.82857,20.73341989517212
1618935320.42662,-16.23045,20.749039888381958
1618935320.44225,-19.47479,20.76466989517212
1618935320.45788,-22.75844,20.78029990196228
1618935320.4735,-26.38283,20.79591989517212
1618935320.48913,-30.59253,20.81154990196228
1618935320.50475,-35.40973,20.82716989517212
1618935320.52038,-40.45747,20.84279990196228
1618935320.53601,-44.92894,20.85842990875244
1618935320.55163,-47.74179,20.87404990196228
1618935320.56726,-47.86653,20.88967990875244
1618935320.58288,-44.7282,20.90529990196228
1618935320.59851,-38.43172,20.92092990875244
1618935320.61413,-29.79424,20.93654990196228
1618935320.62976,-20.06346,20.95217990875244
1618935320.64539,-10.52003,20.967809915542603
1618935320.66101,-2.064957,20.98342990875244
1618935320.67664,4.917313,20.999059915542603
1618935320.69226,10.46608,21.01467990875244
1618935320.70789,14.79688,21.030309915542603
1618935320.72351,18.07335,21.04592990875244
1618935320.73914,20.37686,21.061559915542603
1618935320.75477,21.76405,21.077189922332764
1618935320.77039,22.4299,21.092809915542603
1618935320.78602,22.73734,21.108439922332764
1618935320.80164,23.15959,21.124059915542603
1618935320.81727,24.06679,21.139689922332764
1618935320.83289,25.58781,21.155309915542603
1618935320.84852,27.56096,21.170939922332764
1618935320.86415,29.60555,21.186569929122925
1618935320.87977,31.29639,21.202189922332764
1618935320.8954,32.33264,21.217819929122925
1618935320.91102,32.54803,21.233439922332764
1618935320.92665,31.88414,21.249069929122925
1618935320.94227,30.30199,21.264689922332764
1618935320.9579,27.73553,21.280319929122925
1618935320.97353,24.16023,21.295949935913086
1618935320.98915,19.69112,21.311569929122925
1618935321.00478,14.60533,21.327199935913086
1618935321.0204,9.321335,21.342819929122925
1618935321.03603,4.265503,21.358449935913086
1618935321.05165,-0.2113647,21.374069929122925
1618935321.06728,-3.948441,21.389699935913086
1618935321.08291,-6.92308,21.405329942703247
1618935321.09853,-9.258713,21.420949935913086
1618935321.11416,-11.1541,21.436579942703247
1618935321.12978,-12.92218,21.452199935913086
1618935321.14541,-14.97035,21.467829942703247
1618935321.16103,-17.70842,21.483449935913086
1618935321.17666,-21.38306,21.499079942703247
1618935321.19229,-25.82739,21.514709949493408
1618935321.20791,-30.37187,21.530329942703247
1618935321.22354,-33.86147,21.545959949493408
1618935321.23916,-35.02917,21.561579942703247
1618935321.25479,-32.91432,21.577209949493408
1618935321.27041,-27.29932,21.592829942703247
1618935321.28604,-18.80589,21.608459949493408
1618935321.30167,-8.688034,21.62408995628357
1618935321.31729,1.614532,21.639709949493408
1618935321.33292,10.93912,21.65533995628357
1618935321.34854,18.61198,21.670959949493408
1618935321.36417,24.44687,21.68658995628357
1618935321.37979,28.48175,21.702209949493408
1618935321.39542,30.84065,21.71783995628357
1618935321.41105,31.61688,21.73346996307373
1618935321.42667,30.93623,21.74908995628357
1618935321.4423,29.10674,21.76471996307373
1618935321.45792,26.57153,21.78033995628357
1618935321.47355,23.87086,21.79596996307373
1618935321.48917,21.446,21.81158995628357
1618935321.5048,19.52109,21.82721996307373
1618935321.52043,18.05237,21.84284996986389
1618935321.53605,16.90941,21.85846996307373
1618935321.55168,15.97101,21.87409996986389
1618935321.5673,15.25003,21.88971996307373
1618935321.58293,14.82883,21.90534996986389
1618935321.59855,14.7135,21.92096996307373
1618935321.61418,14.7601,21.93659996986389
1618935321.62981,14.65048,21.952229976654053
1618935321.64543,14.02734,21.96784996986389
1618935321.66106,12.62695,21.983479976654053
1618935321.67668,10.42784,21.99909996986389
1618935321.69231,7.613144,22.014729976654053
1618935321.70793,4.483521,22.03034996986389
1618935321.72356,1.316269,22.045979976654053
1618935321.73919,-1.740341,22.061609983444214
1618935321.75481,-4.687668,22.077229976654053
1618935321.77044,-7.650345,22.092859983444214
1618935321.78606,-10.77325,22.108479976654053
1618935321.80169,-14.23085,22.124109983444214
1618935321.81731,-18.16046,22.139729976654053
1618935321.83294,-22.62875,22.155359983444214
1618935321.84857,-27.57533,22.170989990234375
1618935321.86419,-32.67273,22.186609983444214
1618935321.87982,-37.339,22.202239990234375
1618935321.89544,-40.72627,22.217859983444214
1618935321.91107,-41.93723,22.233489990234375
1618935321.92669,-40.28224,22.249109983444214
1618935321.94232,-35.56723,22.264739990234375
1618935321.95795,-28.19089,22.280369997024536
1618935321.97357,-19.04343,22.295989990234375
1618935321.9892,-9.298096,22.311619997024536
1618935322.00482,0.01412964,22.327239990234375
1618935322.02045,8.190247,22.342869997024536
1618935322.03607,14.94376,22.358489990234375
1618935322.0517,20.20973,22.374119997024536
1618935322.06733,23.99063,22.389749765396118
1618935322.08295,26.21541,22.405369997024536
1618935322.09858,26.84212,22.420999765396118
1618935322.1142,26.02733,22.436619997024536
1618935322.12983,24.2428,22.452249765396118
1618935322.14545,22.20152,22.467869997024536
1618935322.16108,20.58395,22.483499765396118
1618935322.17671,19.78676,22.49912977218628
1618935322.19233,19.73924,22.514749765396118
1618935322.20796,20.039,22.53037977218628
1618935322.22358,20.1544,22.545999765396118
1618935322.23921,19.76384,22.56162977218628
1618935322.25483,18.79707,22.577249765396118
1618935322.27046,17.37512,22.59287977218628
1618935322.28609,15.65817,22.60850977897644
1618935322.30171,13.71698,22.62412977218628
1618935322.31734,11.55374,22.63975977897644
1618935322.33296,9.144211,22.65537977218628
1618935322.34859,6.538086,22.67100977897644
1618935322.36421,3.815979,22.68662977218628
1618935322.37984,1.054153,22.70225977897644
1618935322.39547,-1.76474,22.7178897857666
1618935322.41109,-4.728088,22.73350977897644
1618935322.42672,-7.938675,22.7491397857666
1618935322.44234,-11.48787,22.76475977897644
1618935322.45797,-15.40302,22.7803897857666
1618935322.47359,-19.64307,22.79600977897644
1618935322.48922,-24.06779,22.8116397857666
1618935322.50485,-28.35504,22.827269792556763
1618935322.52047,-31.95972,22.8428897857666
1618935322.5361,-34.17839,22.858519792556763
1618935322.55172,-34.32863,22.8741397857666
1618935322.56735,-32.0087,22.889769792556763
1618935322.58297,-27.28926,22.9053897857666
1618935322.5986,-20.70641,22.921019792556763
1618935322.61423,-13.11119,22.936649799346924
1618935322.62985,-5.350449,22.952269792556763
1618935322.64548,1.898804,22.967899799346924
1618935322.6611,8.247528,22.983519792556763
1618935322.67673,13.48631,22.999149799346924
1618935322.69235,17.48361,23.014769792556763
1618935322.70798,20.07751,23.030399799346924
1618935322.72361,21.19144,23.046029806137085
1618935322.73923,20.90622,23.061649799346924
1618935322.75486,19.53757,23.077279806137085
1618935322.77048,17.61118,23.092899799346924
1618935322.78611,15.63438,23.108529806137085
1618935322.80173,13.96968,23.124149799346924
1618935322.81736,12.68535,23.139779806137085
1618935322.83299,11.62772,23.155409812927246
1618935322.84861,10.51236,23.171029806137085
1618935322.86424,9.117279,23.186659812927246
1618935322.87986,7.416809,23.202279806137085
1618935322.89549,5.552734,23.217909812927246
1618935322.91111,3.767914,23.233529806137085
1618935322.92674,2.242676,23.249159812927246
1618935322.94237,1.008209,23.264789819717407
1618935322.95799,-0.08508301,23.280409812927246
1618935322.97362,-1.293854,23.296039819717407
1618935322.98924,-2.850891,23.311659812927246
1618935323.00487,-4.89389,23.327289819717407
1618935323.02049,-7.416077,23.342909812927246
1618935323.03612,-10.31686,23.358539819717407
1618935323.05175,-13.45651,23.37416982650757
1618935323.06737,-16.71375,23.389789819717407
1618935323.083,-19.88461,23.40541982650757
1618935323.09862,-22.63864,23.421039819717407
1618935323.11425,-24.45538,23.43666982650757
1618935323.12987,-24.69788,23.452289819717407
1618935323.1455,-22.8912,23.46791982650757
1618935323.16113,-18.9025,23.48354983329773
1618935323.17675,-13.12494,23.49916982650757
1618935323.19238,-6.371155,23.51479983329773
1618935323.208,0.3667908,23.53041982650757
1618935323.22363,6.319489,23.54604983329773
1618935323.23926,11.06433,23.56167984008789
1618935323.25488,14.58005,23.57729983329773
1618935323.27051,16.98071,23.59292984008789
1618935323.28613,18.31003,23.60854983329773
1618935323.30176,18.46048,23.62417984008789
1618935323.31738,17.25372,23.63979983329773
1618935323.33301,14.70383,23.65542984008789
1618935323.34864,11.17902,23.67105984687805
1618935323.36426,7.366455,23.68667984008789
1618935323.37989,4.029694,23.70230984687805
1618935323.39551,1.672791,23.71792984008789
1618935323.41114,0.359375,23.73355984687805
1618935323.42676,-0.2939758,23.74917984008789
1618935323.44239,-0.8529358,23.76480984687805
1618935323.45802,-1.799591,23.780439853668213
1618935323.47364,-3.277954,23.79605984687805
1618935323.48927,-5.098755,23.811689853668213
1618935323.50489,-6.908691,23.82730984687805
1618935323.52052,-8.396149,23.842939853668213
1618935323.53614,-9.468292,23.85855984687805
1618935323.55177,-10.27341,23.874189853668213
1618935323.5674,-11.18323,23.889819860458374
1618935323.58302,-12.62915,23.905439853668213
1618935323.59865,-15.02612,23.921069860458374
1618935323.61427,-18.62592,23.936689853668213
1618935323.6299,-23.4166,23.952319860458374
1618935323.64552,-29.0275,23.967939853668213
1618935323.66115,-34.67969,23.983569860458374
1618935323.67678,-39.27707,23.999199867248535
1618935323.6924,-41.66165,24.014819860458374
1618935323.70803,-40.96066,24.030449867248535
1618935323.72365,-36.87122,24.046069860458374
1618935323.73928,-29.8252,24.061699867248535
1618935323.7549,-20.83118,24.077319860458374
1618935323.77053,-11.18625,24.092949867248535
1618935323.78616,-2.099213,24.108579874038696
1618935323.80178,5.631256,24.124199867248535
1618935323.81741,11.65158,24.139829874038696
1618935323.83303,15.96609,24.155449867248535
1618935323.84866,18.74649,24.171079874038696
1618935323.86428,20.16727,24.186699867248535
1618935323.87991,20.32489,24.202329874038696
1618935323.89554,19.34238,24.217959880828857
1618935323.91116,17.4299,24.233579874038696
1618935323.92679,14.94821,24.249209880828857
1618935323.94241,12.36874,24.264829874038696
1618935323.95804,10.09903,24.280459880828857
1618935323.97366,8.387329,24.296079874038696
1618935323.98929,7.218323,24.311709880828857
1618935324.00492,6.348846,24.32733988761902
1618935324.02054,5.422729,24.342959880828857
1618935324.03617,4.141724,24.35858988761902
1618935324.05179,2.366669,24.374209880828857
1618935324.06742,0.1784363,24.38983988761902
1618935324.08304,-2.200104,24.405459880828857
1618935324.09867,-4.574554,24.42108988761902
1618935324.1143,-6.879974,24.43671989440918
1618935324.12992,-9.27951,24.45233988761902
1618935324.14555,-12.06393,24.46796989440918
1618935324.16117,-15.54044,24.48358988761902
1618935324.1768,-19.8476,24.49921989440918
1618935324.19242,-24.93298,24.51483988761902
1618935324.20805,-30.56607,24.53046989440918
1618935324.22368,-36.40826,24.54609990119934
1618935324.2393,-42.03104,24.56171989440918
1618935324.25493,-46.86591,24.57734990119934
1618935324.27055,-50.22388,24.59296989440918
1618935324.28618,-51.35834,24.60859990119934
1618935324.3018,-49.66232,24.62421989440918
1618935324.31743,-44.92633,24.63984990119934
1618935324.33306,-37.52362,24.655479907989502
1618935324.34868,-28.30896,24.67109990119934
1618935324.36431,-18.34103,24.686729907989502
1618935324.37993,-8.552643,24.70234990119934
1618935324.39556,0.4925537,24.717979907989502
1618935324.41118,8.53186,24.73359990119934
1618935324.42681,15.44141,24.749229907989502
1618935324.44244,21.02454,24.764859914779663
1618935324.45806,25.02454,24.780479907989502
1618935324.47369,27.20706,24.796109914779663
1618935324.48931,27.62543,24.811729907989502
1618935324.50494,26.70415,24.827359914779663
1618935324.52056,25.06662,24.842979907989502
1618935324.53619,23.37836,24.858609914779663
1618935324.55182,22.03339,24.874239921569824
1618935324.56744,21.09726,24.889859914779663
1618935324.58307,20.34084,24.905489921569824
1618935324.59869,19.44873,24.921109914779663
1618935324.61432,18.16632,24.936739921569824
1618935324.62994,16.40497,24.952359914779663
1618935324.64557,14.24405,24.967989921569824
1618935324.6612,11.81593,24.983619928359985
1618935324.67682,9.236176,24.999239921569824
1618935324.69245,6.575455,25.014869928359985
1618935324.70807,3.82724,25.030489921569824
1618935324.7237,0.9662933,25.046119928359985
1618935324.73932,-2.029587,25.061739921569824
1618935324.75495,-5.200653,25.077369928359985
1618935324.77058,-8.583557,25.092999935150146
1618935324.7862,-12.26227,25.108619928359985
1618935324.80183,-16.37042,25.124249935150146
1618935324.81745,-21.0553,25.139869928359985
1618935324.83308,-26.3869,25.155499935150146
1618935324.8487,-32.26207,25.171119928359985
1618935324.86433,-38.29472,25.186749935150146
1618935324.87996,-43.80569,25.202379941940308
1618935324.89558,-47.96898,25.217999935150146
1618935324.91121,-49.96674,25.233629941940308
1618935324.92683,-49.21117,25.249249935150146
1618935324.94246,-45.5228,25.264879941940308
1618935324.95808,-39.1292,25.280499935150146
1618935324.97371,-30.62822,25.296129941940308
1618935324.98934,-20.82239,25.31175994873047
1618935325.00496,-10.53279,25.327379941940308
1618935325.02059,-0.4632874,25.34300994873047
1618935325.03621,8.821106,25.358629941940308
1618935325.05184,16.92209,25.37425994873047
1618935325.06746,23.56314,25.389879941940308
1618935325.08309,28.57014,25.40550994873047
1618935325.09872,31.93689,25.42113995552063
1618935325.11434,33.83702,25.43675994873047
1618935325.12997,34.59793,25.45238995552063
1618935325.14559,34.62628,25.46800994873047
1618935325.16122,34.31844,25.48363995552063
1618935325.17684,33.87801,25.49925994873047
1618935325.19247,33.37193,25.51488995552063
1618935325.2081,32.74069,25.53051996231079
1618935325.22372,31.90564,25.54613995552063
1618935325.23935,30.88007,25.56176996231079
1618935325.25497,29.7406,25.57738995552063
1618935325.2706,28.5451,25.59301996231079
1618935325.28622,27.23718,25.60863995552063
1618935325.30185,25.62601,25.62426996231079
1618935325.31748,23.36856,25.639899969100952
1618935325.3331,20.2041,25.65551996231079
1618935325.34873,16.02663,25.671149969100952
1618935325.36435,11.03925,25.68676996231079
1618935325.37998,5.659546,25.702399969100952
1618935325.39561,0.4215393,25.718029975891113
1618935325.41123,-4.279861,25.733649969100952
1618935325.42686,-8.317429,25.749279975891113
1618935325.44248,-11.87088,25.764899969100952
1618935325.45811,-15.38548,25.780529975891113
1618935325.47373,-19.35236,25.796149969100952
1618935325.48936,-24.14189,25.811779975891113
1618935325.50499,-29.81554,25.827409982681274
1618935325.52061,-36.06364,25.843029975891113
1618935325.53624,-42.20828,25.858659982681274
1618935325.55186,-47.34264,25.874279975891113
1618935325.56749,-50.4938,25.889909982681274
1618935325.58311,-50.85571,25.905529975891113
1618935325.59874,-48.02429,25.921159982681274
1618935325.61437,-42.06511,25.936789989471436
1618935325.62999,-33.54448,25.952409982681274
1618935325.64562,-23.35266,25.968039989471436
1618935325.66124,-12.45589,25.983659982681274
1618935325.67687,-1.656906,25.999289989471436
1618935325.69249,8.482681,26.014909982681274
1618935325.70812,17.63345,26.030539989471436
1618935325.72375,25.56245,26.046169996261597
1618935325.73937,32.05045,26.061789989471436
1618935325.755,36.91404,26.077419996261597
1618935325.77062,40.0611,26.093039989471436
1618935325.78625,41.61909,26.108669996261597
1618935325.80187,41.9296,26.124289989471436
1618935325.8175,41.46519,26.139919996261597
1618935325.83313,40.6432,26.15554976463318
1618935325.84875,39.7158,26.171169996261597
1618935325.86438,38.7326,26.18679976463318
1618935325.88,37.59017,26.202419996261597
1618935325.89563,36.20448,26.21804976463318
1618935325.91125,34.5935,26.233669996261597
1618935325.92688,32.91472,26.24929976463318
1618935325.94251,31.34292,26.26492977142334
1618935325.95813,29.96787,26.28054976463318
1618935325.97376,28.66557,26.29617977142334
1618935325.98938,27.15524,26.31179976463318
1618935326.00501,25.11958,26.32742977142334
1618935326.02063,22.30493,26.34304976463318
1618935326.03626,18.7057,26.35867977142334
1618935326.05189,14.49519,26.3743097782135
1618935326.06751,9.991547,26.38992977142334
1618935326.08314,5.497757,26.4055597782135
1618935326.09876,1.213135,26.42117977142334
1618935326.11439,-2.850876,26.4368097782135
1618935326.13001,-6.816261,26.45242977142334
1618935326.14564,-10.87618,26.4680597782135
1618935326.16127,-15.24178,26.483689785003662
1618935326.17689,-20.06728,26.4993097782135
1618935326.19252,-25.44494,26.514939785003662
1618935326.20814,-31.29507,26.5305597782135
1618935326.22377,-37.31105,26.546189785003662
1618935326.23939,-42.86141,26.5618097782135
1618935326.25502,-47.04086,26.577439785003662
1618935326.27065,-48.86507,26.593069791793823
1618935326.28627,-47.55882,26.608689785003662
1618935326.3019,-42.86728,26.624319791793823
1618935326.31752,-35.19001,26.639939785003662
1618935326.33315,-25.47155,26.655569791793823
1618935326.34877,-14.89016,26.671189785003662
1618935326.3644,-4.494766,26.686819791793823
1618935326.38003,5.068954,26.702449798583984
1618935326.39565,13.54256,26.718069791793823
1618935326.41128,20.90701,26.733699798583984
1618935326.4269,27.15613,26.749319791793823
1618935326.44253,32.15307,26.764949798583984
1618935326.45815,35.70496,26.780569791793823
1618935326.47378,37.69423,26.796199798583984
1618935326.48941,38.26178,26.811829805374146
1618935326.50503,37.79817,26.827449798583984
1618935326.52066,36.85702,26.843079805374146
1618935326.53628,35.91752,26.858699798583984
1618935326.55191,35.2375,26.874329805374146
1618935326.56753,34.77657,26.889949798583984
1618935326.58316,34.29495,26.905579805374146
1618935326.59879,33.53062,26.921209812164307
1618935326.61441,32.36074,26.936829805374146
1618935326.63004,30.89338,26.952459812164307
1618935326.64566,29.3538,26.968079805374146
1618935326.66129,27.98221,26.983709812164307
1618935326.67691,26.83693,26.999329805374146
1618935326.69254,25.72256,27.014959812164307
1618935326.70817,24.27188,27.030589818954468
1618935326.72379,22.10322,27.046209812164307
1618935326.73942,19.02643,27.061839818954468
1618935326.75504,15.1104,27.077459812164307
1618935326.77067,10.65852,27.093089818954468
1618935326.78629,6.068474,27.108709812164307
1618935326.80192,1.721703,27.124339818954468
1618935326.81755,-2.164268,27.13996982574463
1618935326.83317,-5.529289,27.155589818954468
1618935326.8488,-8.466156,27.17121982574463
1618935326.86442,-11.19314,27.186839818954468
1618935326.88005,-13.98118,27.20246982574463
1618935326.89567,-17.1229,27.218089818954468
1618935326.9113,-20.83932,27.23371982574463
1618935326.92693,-25.24705,27.24934983253479
1618935326.94255,-30.2345,27.26496982574463
1618935326.95818,-35.43713,27.28059983253479
1618935326.9738,-40.21489,27.29621982574463
1618935326.98943,-43.72207,27.31184983253479
1618935327.00505,-45.09922,27.32746982574463
1618935327.02068,-43.71469,27.34309983253479
1618935327.03631,-39.42893,27.35872983932495
1618935327.05193,-32.65054,27.37434983253479
1618935327.06756,-24.25205,27.38997983932495
1618935327.08318,-15.26128,27.40559983253479
1618935327.09881,-6.558403,27.42122983932495
1618935327.11443,1.3703,27.43684983253479
1618935327.13006,8.444221,27.45247983932495
1618935327.14569,14.76195,27.468109846115112
1618935327.16131,20.37635,27.48372983932495
1618935327.17694,25.11328,27.499359846115112
1618935327.19256,28.69454,27.51497983932495
1618935327.20819,30.8588,27.530609846115112
1618935327.22381,31.65008,27.54622983932495
1618935327.23944,31.42467,27.561859846115112
1618935327.25507,30.73491,27.577489852905273
1618935327.27069,30.09426,27.593109846115112
1618935327.28632,29.79751,27.608739852905273
1618935327.30194,29.8181,27.624359846115112
1618935327.31757,29.8614,27.639989852905273
1618935327.33319,29.56096,27.655609846115112
1618935327.34882,28.66055,27.671239852905273
1618935327.36445,27.17116,27.686869859695435
1618935327.38007,25.32967,27.702489852905273
1618935327.3957,23.46651,27.718119859695435
1618935327.41132,21.84164,27.733739852905273
1618935327.42695,20.46936,27.749369859695435
1618935327.44257,19.16792,27.764989852905273
1618935327.4582,17.62302,27.780619859695435
1618935327.47383,15.61441,27.796249866485596
1618935327.48945,13.04445,27.811869859695435
1618935327.50508,10.03256,27.827499866485596
1618935327.5207,6.794113,27.843119859695435
1618935327.53633,3.532303,27.858749866485596
1618935327.55195,0.3529968,27.874369859695435
1618935327.56758,-2.730591,27.889999866485596
1618935327.58321,-5.734055,27.905629873275757
1618935327.59883,-8.64389,27.921249866485596
1618935327.61446,-11.39392,27.936879873275757
1618935327.63008,-13.96143,27.952499866485596
1618935327.64571,-16.42255,27.968129873275757
1618935327.66133,-18.98758,27.983749866485596
1618935327.67696,-21.98611,27.999379873275757
1618935327.69259,-25.62314,28.015009880065918
1618935327.70821,-29.84999,28.030629873275757
1618935327.72384,-34.19209,28.046259880065918
1618935327.73946,-37.77654,28.061879873275757
1618935327.75509,-39.59108,28.077509880065918
1618935327.77072,-38.85214,28.09313988685608
1618935327.78634,-35.33376,28.108759880065918
1618935327.80197,-29.4678,28.12438988685608
1618935327.81759,-22.19777,28.140009880065918
1618935327.83322,-14.57439,28.15563988685608
1618935327.84884,-7.372162,28.171259880065918
1618935327.86447,-0.8901825,28.18688988685608
1618935327.8801,4.916916,28.20251989364624
1618935327.89572,10.16394,28.21813988685608
1618935327.91135,14.80969,28.23376989364624
1618935327.92697,18.58479,28.24938988685608
1618935327.9426,21.18164,28.26501989364624
1618935327.95822,22.43185,28.28063988685608
1618935327.97385,22.49976,28.29626989364624
1618935327.98948,21.83612,28.3118999004364
1618935328.0051,20.97331,28.32751989364624
1618935328.02073,20.35133,28.3431499004364
1618935328.03635,20.1355,28.35876989364624
1618935328.05198,20.2395,28.3743999004364
1618935328.0676,20.39897,28.39001989364624
1618935328.08323,20.32993,28.4056499004364
1618935328.09886,19.82365,28.421279907226562
1618935328.11448,18.83174,28.4368999004364
1618935328.13011,17.43683,28.452529907226562
1618935328.14573,15.79684,28.4681499004364
1618935328.16136,14.09151,28.483779907226562
1618935328.17698,12.4301,28.4993999004364
1618935328.19261,10.83327,28.515029907226562
1618935328.20824,9.203003,28.530659914016724
1618935328.22386,7.413208,28.546279907226562
1618935328.23949,5.325409,28.561909914016724
1618935328.25511,2.925537,28.577529907226562
1618935328.27074,0.2846069,28.593159914016724
1618935328.28636,-2.426178,28.608779907226562
1618935328.30199,-5.018204,28.624409914016724
1618935328.31762,-7.342255,28.640039920806885
1618935328.33324,-9.33783,28.655659914016724
1618935328.34887,-11.0618,28.671289920806885
1618935328.36449,-12.64429,28.686909914016724
1618935328.38012,-14.25974,28.702539920806885
1618935328.39574,-16.07114,28.718159914016724
1618935328.41137,-18.20743,28.733789920806885
1618935328.427,-20.73816,28.749419927597046
1618935328.44262,-23.65115,28.765039920806885
1618935328.45825,-26.80908,28.780669927597046
1618935328.47387,-29.88303,28.796289920806885
1618935328.4895,-32.31845,28.811919927597046
1618935328.50512,-33.43927,28.827539920806885
1618935328.52075,-32.63168,28.843169927597046
1618935328.53638,-29.59186,28.858799934387207
1618935328.552,-24.50534,28.874419927597046
1618935328.56763,-18.02658,28.890049934387207
1618935328.58325,-11.09125,28.905669927597046
1618935328.59888,-4.59082,28.921299934387207
1618935328.6145,0.8948059,28.936919927597046
1618935328.63013,5.241669,28.952549934387207
1618935328.64576,8.648499,28.968179941177368
1618935328.66138,11.39975,28.983799934387207
1618935328.67701,13.659,28.999429941177368
1618935328.69263,15.3902,29.015049934387207
1618935328.70826,16.40344,29.030679941177368
1618935328.72388,16.57358,29.046299934387207
1618935328.73951,15.979,29.061929941177368
1618935328.75514,14.93225,29.07755994796753
1618935328.77076,13.85913,29.093179941177368
1618935328.78639,13.09531,29.10880994796753
1618935328.80201,12.73355,29.124429941177368
1618935328.81764,12.61188,29.14005994796753
1618935328.83326,12.4371,29.155679941177368
1618935328.84889,11.98367,29.17130994796753
1618935328.86452,11.21335,29.18693995475769
1618935328.88014,10.2471,29.20255994796753
1618935328.89577,9.246277,29.21818995475769
1618935328.91139,8.285553,29.23380994796753
1618935328.92702,7.290649,29.24943995475769
1618935328.94264,6.132996,29.26505994796753
1618935328.95827,4.688141,29.28068995475769
1618935328.9739,2.944824,29.29631996154785
1618935328.98952,0.993927,29.31193995475769
1618935329.00515,-1.057556,29.32756996154785
1618935329.02077,-3.126434,29.34318995475769
1618935329.0364,-5.174927,29.35881996154785
1618935329.05202,-7.166718,29.37443995475769
1618935329.06765,-9.035126,29.39006996154785
1618935329.08328,-10.6702,29.405699968338013
1618935329.0989,-12.01202,29.42131996154785
1618935329.11453,-13.10324,29.436949968338013
1618935329.13015,-14.09198,29.45256996154785
1618935329.14578,-15.20453,29.468199968338013
1618935329.1614,-16.64963,29.48381996154785
1618935329.17703,-18.55399,29.499449968338013
1618935329.19266,-20.8847,29.515079975128174
1618935329.20828,-23.47961,29.530699968338013
1618935329.22391,-25.98755,29.546329975128174
1618935329.23953,-27.89716,29.561949968338013
1618935329.25516,-28.62506,29.577579975128174
1618935329.27078,-27.67334,29.593199968338013
1618935329.28641,-24.82687,29.608829975128174
1618935329.30204,-20.24048,29.624459981918335
1618935329.31766,-14.45477,29.640079975128174
1618935329.33329,-8.175903,29.655709981918335
1618935329.34891,-2.092957,29.671329975128174
1618935329.36454,3.301147,29.686959981918335
1618935329.38016,7.770844,29.702579975128174
1618935329.39579,11.2233,29.718209981918335
1618935329.41142,13.64267,29.733839988708496
1618935329.42704,15.04123,29.749459981918335
1618935329.44267,15.47998,29.765089988708496
1618935329.45829,15.11865,29.780709981918335
1618935329.47392,14.23932,29.796339988708496
1618935329.48954,13.2178,29.811959981918335
1618935329.50517,12.39169,29.827589988708496
1618935329.5208,11.94693,29.843219995498657
1618935329.53642,11.88275,29.858839988708496
1618935329.55205,12.00018,29.874469995498657
1618935329.56767,12.03958,29.890089988708496
1618935329.5833,11.80014,29.905719995498657
1618935329.59892,11.19733,29.921339988708496
1618935329.61455,10.32031,29.936969995498657
1618935329.63018,9.366272,29.95259976387024
1618935329.6458,8.540497,29.968219995498657
1618935329.66143,7.961273,29.98384976387024
1618935329.67705,7.623535,29.999469995498657
1618935329.69268,7.403961,30.01509976387024
1618935329.7083,7.146545,30.030719995498657
1618935329.72393,6.719727,30.04634976387024
1618935329.73956,6.080597,30.0619797706604
1618935329.75518,5.290131,30.07759976387024
1618935329.77081,4.463745,30.0932297706604
1618935329.78643,3.703918,30.10884976387024
1618935329.80206,3.100586,30.1244797706604
1618935329.81768,2.662628,30.14009976387024
1618935329.83331,2.377563,30.1557297706604
1618935329.84894,2.21225,30.17135977745056
1618935329.86456,2.130829,30.1869797706604
1618935329.88019,2.091003,30.20260977745056
1618935329.89581,2.002747,30.2182297706604
1618935329.91144,1.730011,30.23385977745056
1618935329.92706,1.124878,30.2494797706604
1618935329.94269,0.1503601,30.26510977745056
1618935329.95832,-1.007874,30.280739784240723
1618935329.97394,-1.894043,30.29635977745056
1618935329.98957,-1.834198,30.311989784240723
1618935330.00519,-0.199707,30.32760977745056
1618935330.02082,3.313263,30.343239784240723
1618935330.03644,8.474365,30.35885977745056
1618935330.05207,14.5336,30.374489784240723
1618935330.0677,20.47131,30.390119791030884
1618935330.08332,25.38391,30.405739784240723
1618935330.09895,28.79324,30.421369791030884
1618935330.11457,30.70505,30.436989784240723
1618935330.1302,31.51285,30.452619791030884
1618935330.14582,31.6524,30.468239784240723
1618935330.16145,31.35925,30.483869791030884
1618935330.17708,30.63239,30.499499797821045
1618935330.1927,29.34714,30.515119791030884
1618935330.20833,27.56091,30.530749797821045
1618935330.22395,25.61453,30.546369791030884
1618935330.23958,24.09698,30.561999797821045
1618935330.25521,23.52832,30.577629804611206
1618935330.27083,24.09119,30.593249797821045
1618935330.28646,25.42438,30.608879804611206
1618935330.30208,26.81857,30.624499797821045
1618935330.31771,27.6181,30.640129804611206
1618935330.33333,27.63315,30.655749797821045
1618935330.34896,27.33826,30.671379804611206
1618935330.36459,27.71289,30.687009811401367
1618935330.38021,29.77118,30.702629804611206
1618935330.39584,33.62457,30.718259811401367
1618935330.41146,38.82446,30.733879804611206
1618935330.42709,44.49756,30.749509811401367
1618935330.44271,49.65399,30.765129804611206
1618935330.45834,53.42499,30.780759811401367
1618935330.47397,55.42969,30.79638981819153
1618935330.48959,56.0741,30.812009811401367
1618935330.50522,56.3573,30.82763981819153
1618935330.52084,57.65106,30.843259811401367
1618935330.53647,60.77698,30.85888981819153
1618935330.55209,66.17645,30.874509811401367
1618935330.56772,73.8465,30.89013981819153
1618935330.58335,83.26849,30.90576982498169
1618935330.59897,93.35242,30.92138981819153
1618935330.6146,102.5904,30.93701982498169
1618935330.63022,109.5544,30.95263981819153
1618935330.64585,113.1425,30.96826982498169
1618935330.66147,113.1265,30.98388981819153
1618935330.6771,109.519,30.99951982498169
1618935330.69273,104.0491,31.01514983177185
1618935330.70835,99.95953,31.03076982498169
1618935330.72398,100.5397,31.04639983177185
1618935330.7396,107.0774,31.06201982498169
1618935330.75523,117.8151,31.07764983177185
1618935330.77085,128.6643,31.09326982498169
1618935330.78648,134.643,31.10889983177185
1618935330.80211,132.3687,31.12452983856201
1618935330.81773,118.7385,31.14014983177185
1618935330.83336,94.91113,31.15577983856201
1618935330.84898,65.90912,31.17139983177185
1618935330.86461,37.81305,31.18702983856201
1618935330.88023,14.30756,31.20264983177185
1618935330.89586,-4.434998,31.21827983856201
1618935330.91149,-20.02765,31.233909845352173
1618935330.92711,-34.87189,31.24952983856201
1618935330.94274,-49.97528,31.265159845352173
1618935330.95836,-70.48987,31.28077983856201
1618935330.97399,-98.30505,31.296409845352173
1618935330.98961,-130.9485,31.31202983856201
1618935331.00524,-163.8469,31.327659845352173
1618935331.02087,-194.2503,31.343289852142334
1618935331.03649,-222.3845,31.358909845352173
1618935331.05212,-249.0052,31.374539852142334
1618935331.06774,-275.6392,31.390159845352173
1618935331.08337,-301.9482,31.405789852142334
1618935331.09899,-335.2207,31.421409845352173
1618935331.11462,-378.2037,31.437039852142334
1618935331.13025,-426.6749,31.452669858932495
1618935331.14587,-472.5785,31.468289852142334
1618935331.1615,-510.4385,31.483919858932495
1618935331.17712,-539.93,31.499539852142334
1618935331.19275,-563.0162,31.515169858932495
1618935331.20837,-585.0435,31.530789852142334
1618935331.224,-610.3679,31.546419858932495
1618935331.23963,-652.9198,31.562049865722656
1618935331.25525,-718.2897,31.577669858932495
1618935331.27088,-798.5823,31.593299865722656
1618935331.2865,-876.1404,31.608919858932495
1618935331.30213,-933.923,31.624549865722656
1618935331.31775,-962.3356,31.640169858932495
1618935331.33338,-958.6904,31.655799865722656
1618935331.34901,-929.9704,31.671429872512817
1618935331.36463,-813.9445,31.687049865722656
1618935331.38026,-596.4758,31.702679872512817
1618935331.39588,-318.9247,31.718299865722656
1618935331.41151,-49.52551,31.733929872512817
1618935331.42713,166.7405,31.749549865722656
1618935331.44276,321.4868,31.765179872512817
1618935331.45839,416.7213,31.78080987930298
1618935331.47401,478.6166,31.796429872512817
1618935331.48964,522.0654,31.81205987930298
1618935331.50526,555.2515,31.827679872512817
1618935331.52089,571.496,31.84330987930298
1618935331.53651,567.9415,31.858929872512817
1618935331.55214,549.1296,31.87455987930298
1618935331.56777,524.324,31.89018988609314
1618935331.58339,500.5589,31.90580987930298
1618935331.59902,479.7436,31.92143988609314
1618935331.61464,462.6317,31.93705987930298
1618935331.63027,446.9328,31.95268988609314
1618935331.64589,432.1085,31.96830987930298
1618935331.66152,410.0411,31.98393988609314
1618935331.67715,377.2441,31.9995698928833
1618935331.69277,337.6509,32.01518988609314
1618935331.7084,299.8149,32.0308198928833
1618935331.72402,270.1918,32.04643988609314
1618935331.73965,250.1129,32.0620698928833
1618935331.75527,238.5693,32.07768988609314
1618935331.7709,231.254,32.0933198928833
1618935331.78653,225.2265,32.10894989967346
1618935331.80215,213.7315,32.1245698928833
1618935331.81778,193.9831,32.14019989967346
1618935331.8334,168.5117,32.1558198928833
1618935331.84903,142.9668,32.17144989967346
1618935331.86465,121.6435,32.1870698928833
1618935331.88028,105.5768,32.20269989967346
1618935331.89591,94.51791,32.21832990646362
1618935331.91153,86.3569,32.23394989967346
1618935331.92716,79.9738,32.24957990646362
1618935331.94278,72.44344,32.26519989967346
1618935331.95841,62.55998,32.28082990646362
1618935331.97403,51.41344,32.29644989967346
1618935331.98966,41.37167,32.31207990646362
1618935332.00529,34.0447,32.327709913253784
1618935332.02091,29.42655,32.34332990646362
1618935332.03654,26.89534,32.358959913253784
1618935332.05216,24.95815,32.37457990646362
1618935332.06779,22.70301,32.390209913253784
1618935332.08341,18.90909,32.40582990646362
1618935332.09904,13.39335,32.421459913253784
1618935332.11467,7.161308,32.437089920043945
1618935332.13029,1.853405,32.452709913253784
1618935332.14592,-1.239788,32.468339920043945
1618935332.16154,-1.717682,32.483959913253784
1618935332.17717,0.1783447,32.499589920043945
1618935332.19279,3.547081,32.515209913253784
1618935332.20842,7.523216,32.530839920043945
1618935332.22405,11.47515,32.546469926834106
1618935332.23967,15.03789,32.562089920043945
1618935332.2553,18.04384,32.577719926834106
1618935332.27092,20.41177,32.593339920043945
1618935332.28655,22.04605,32.608969926834106
1618935332.30217,22.79779,32.624589920043945
1618935332.3178,22.53667,32.640219926834106
1618935332.33343,21.21624,32.65584993362427
1618935332.34905,18.96249,32.671469926834106
1618935332.36468,16.04289,32.68709993362427
1618935332.3803,12.81805,32.702719926834106
1618935332.39593,9.666351,32.71834993362427
1618935332.41155,6.858826,32.733969926834106
1618935332.42718,4.623909,32.74959993362427
1618935332.44281,3.11364,32.76522994041443
1618935332.45843,2.460487,32.78084993362427
1618935332.47406,2.716354,32.79647994041443
1618935332.48968,3.835159,32.81209993362427
1618935332.50531,5.564636,32.82772994041443
1618935332.52094,7.463921,32.84335994720459
1618935332.53656,9.024265,32.85897994041443
1618935332.55219,9.845783,32.87460994720459
1618935332.56781,9.764263,32.89022994041443
1618935332.58344,8.843231,32.90585994720459
1618935332.59906,7.274902,32.92147994041443
1618935332.61469,5.231529,32.93710994720459
1618935332.63032,2.806637,32.95273995399475
1618935332.64594,0.054142,32.96835994720459
1618935332.66157,-2.889606,32.98398995399475
1618935332.67719,-5.822659,32.99960994720459
1618935332.69282,-8.493393,33.01523995399475
1618935332.70844,-10.73792,33.03085994720459
1618935332.72407,-12.55308,33.04648995399475
1618935332.7397,-14.01338,33.06211996078491
1618935332.75532,-15.17536,33.07773995399475
1618935332.77095,-15.91973,33.09336996078491
1618935332.78657,-15.98204,33.10898995399475
1618935332.8022,-15.0774,33.12461996078491
1618935332.81782,-13.08604,33.14023995399475
1618935332.83345,-10.15788,33.15586996078491
1618935332.84908,-6.686726,33.17149996757507
1618935332.8647,-3.157848,33.18711996078491
1618935332.88033,0.06311035,33.20274996757507
1618935332.89595,2.803078,33.21836996078491
1618935332.91158,5.076118,33.23399996757507
1618935332.9272,6.966583,33.24961996078491
1618935332.94283,8.513451,33.26524996757507
1618935332.95846,9.6525,33.280879974365234
1618935332.97408,10.25012,33.29649996757507
1618935332.98971,10.22683,33.312129974365234
1618935333.00533,9.656357,33.32774996757507
1618935333.02096,8.766529,33.343379974365234
1618935333.03658,7.860817,33.35899996757507
1618935333.05221,7.199429,33.374629974365234
1618935333.06784,6.848423,33.390259981155396
1618935333.08346,6.710835,33.405879974365234
1618935333.09909,6.595337,33.421509981155396
1618935333.11471,6.323326,33.437129974365234
1618935333.13034,5.813423,33.452759981155396
1618935333.14596,5.039513,33.468379974365234
1618935333.16159,3.98127,33.484009981155396
1618935333.17722,2.580734,33.49963998794556
1618935333.19284,0.7825584,33.515259981155396
1618935333.20847,-1.381428,33.53088998794556
1618935333.22409,-3.748169,33.546509981155396
1618935333.23972,-6.036869,33.56213998794556
1618935333.25534,-7.93095,33.577759981155396
1618935333.27097,-9.244785,33.59338998794556
1618935333.2866,-9.955805,33.60901999473572
1618935333.30222,-10.22795,33.62463998794556
1618935333.31785,-10.37513,33.64026999473572
1618935333.33347,-10.75022,33.65588998794556
1618935333.3491,-11.65917,33.67151999473572
1618935333.36472,-13.26679,33.68713998794556
1618935333.38035,-15.45186,33.70276999473572
1618935333.39598,-17.81503,33.7183997631073
1618935333.4116,-19.7335,33.73401999473572
1618935333.42723,-20.56177,33.7496497631073
1618935333.44285,-19.84576,33.76526999473572
1618935333.45848,-17.50191,33.7808997631073
1618935333.4741,-13.84672,33.79651999473572
1618935333.48973,-9.46212,33.8121497631073
1618935333.50536,-5.025084,33.82777976989746
1618935333.52098,-1.093884,33.8433997631073
1618935333.53661,1.951796,33.85902976989746
1618935333.55223,3.941765,33.8746497631073
1618935333.56786,4.877592,33.89027976989746
1618935333.58348,4.898142,33.9058997631073
1618935333.59911,4.219757,33.92152976989746
1618935333.61474,3.115215,33.93715977668762
1618935333.63036,1.865812,33.95277976989746
1618935333.64599,0.7168312,33.96840977668762
1618935333.66161,-0.1604404,33.98402976989746
1618935333.67724,-0.701828,33.99965977668762
1618935333.69286,-0.9807339,34.01527976989746
1618935333.70849,-1.155027,34.03090977668762
1618935333.72412,-1.39325,34.04653978347778
1618935333.73974,-1.765104,34.06215977668762
1618935333.75537,-2.19146,34.07778978347778
1618935333.77099,-2.458612,34.09340977668762
1618935333.78662,-2.373425,34.10903978347778
1618935333.80224,-1.890711,34.12465977668762
1618935333.81787,-1.21414,34.14028978347778
1618935333.8335,-0.7342453,34.155919790267944
1618935333.84912,-0.8685265,34.17153978347778
1618935333.86475,-1.853273,34.187169790267944
1618935333.88037,-3.625465,34.20278978347778
1618935333.896,-5.840733,34.218419790267944
1618935333.91162,-8.025328,34.23403978347778
1618935333.92725,-9.810875,34.249669790267944
1618935333.94288,-11.02962,34.265299797058105
1618935333.9585,-11.76186,34.280919790267944
1618935333.97413,-12.25359,34.296549797058105
1618935333.98975,-12.78506,34.312169790267944
1618935334.00538,-13.57365,34.327799797058105
1618935334.021,-14.67109,34.343419790267944
1618935334.03663,-15.89113,34.359049797058105
1618935334.05226,-16.83788,34.37467980384827
1618935334.06788,-17.0055,34.390299797058105
1618935334.08351,-15.90051,34.40592980384827
1618935334.09913,-13.27898,34.421549797058105
1618935334.11476,-9.20409,34.43717980384827
1618935334.13038,-4.128143,34.452799797058105
1618935334.14601,1.266399,34.46842980384827
1618935334.16164,6.250645,34.48405981063843
1618935334.17726,10.24213,34.49967980384827
1618935334.19289,12.9242,34.51530981063843
1618935334.20851,14.25239,34.53092980384827
1618935334.22414,14.40791,34.54655981063843
1618935334.23976,13.70124,34.56217980384827
1618935334.25539,12.48281,34.57780981063843
1618935334.27102,11.09954,34.59343981742859
1618935334.28664,9.830345,34.60905981063843
1618935334.30227,8.86504,34.62468981742859
1618935334.31789,8.318207,34.64030981063843
1618935334.33352,8.238552,34.65593981742859
1618935334.34914,8.641422,34.67155981063843
1618935334.36477,9.515755,34.68718981742859
1618935334.3804,10.81124,34.70281982421875
1618935334.39602,12.36402,34.71843981742859
1618935334.41165,13.90309,34.73406982421875
1618935334.42727,15.10436,34.74968981742859
1618935334.4429,15.74253,34.76531982421875
1618935334.45852,15.84059,34.78093981742859
1618935334.47415,15.68255,34.79656982421875
1618935334.48978,15.73933,34.81219983100891
1618935334.5054,16.47389,34.82781982421875
1618935334.52103,18.15943,34.84344983100891
1618935334.53665,20.74324,34.85906982421875
1618935334.55228,23.95283,34.87469983100891
1618935334.5679,27.41901,34.89031982421875
1618935334.58353,30.84255,34.90594983100891
1618935334.59916,34.01304,34.92157983779907
1618935334.61478,36.76135,34.93719983100891
1618935334.63041,38.84497,34.95282983779907
1618935334.64603,39.96057,34.96844983100891
1618935334.66166,39.83266,34.98407983779907
1618935334.67728,38.42342,34.99969983100891
1618935334.69291,36.07307,35.01532983779907
1618935334.70854,33.39308,35.03095984458923
1618935334.72416,31.04765,35.04657983779907
1618935334.73979,29.45956,35.06220984458923
1618935334.75541,28.69915,35.07782983779907
1618935334.77104,28.50641,35.09345984458923
1618935334.78666,28.53684,35.10907983779907
1618935334.80229,28.55318,35.12470984458923
1618935334.81792,28.50326,35.140339851379395
1618935334.83354,28.40438,35.15595984458923
1618935334.84917,28.1736,35.171589851379395
1618935334.86479,27.55629,35.18720984458923
1618935334.88042,26.26893,35.202839851379395
1618935334.89604,24.2363,35.21845984458923
1618935334.91167,21.77673,35.234089851379395
1618935334.9273,19.45347,35.249719858169556
1618935334.94292,17.80972,35.265339851379395
1618935334.95855,17.06257,35.280969858169556
1618935334.97417,16.97739,35.296589851379395
1618935334.9898,17.05134,35.312219858169556
1618935335.00542,16.82866,35.327839851379395
1618935335.02105,16.14169,35.343469858169556
1618935335.03668,15.11042,35.35909986495972
1618935335.0523,13.92995,35.374719858169556
1618935335.06793,12.66211,35.39034986495972
1618935335.08355,11.0927,35.405969858169556
1618935335.09918,8.846748,35.42159986495972
1618935335.1148,5.546143,35.437219858169556
1618935335.13043,0.960762,35.45284986495972
1618935335.14606,-4.957878,35.46847987174988
1618935335.16168,-12.14145,35.48409986495972
1618935335.17731,-20.4568,35.49972987174988
1618935335.19293,-29.68076,35.51534986495972
1618935335.20856,-39.46652,35.53097987174988
1618935335.22419,-49.25702,35.54660987854004
1618935335.23981,-58.41521,35.56222987174988
1618935335.25544,-66.31261,35.57785987854004
1618935335.27106,-72.47405,35.59347987174988
1618935335.28669,-76.66464,35.60910987854004
1618935335.30231,-78.85034,35.62472987174988
1618935335.31794,-79.16261,35.64035987854004
1618935335.33357,-77.80992,35.6559898853302
1618935335.34919,-75.00443,35.67160987854004
1618935335.36482,-70.89997,35.6872398853302
1618935335.38044,-65.58007,35.70285987854004
1618935335.39607,-59.1011,35.7184898853302
1618935335.41169,-51.58814,35.73410987854004
1618935335.42732,-43.3557,35.7497398853302
1618935335.44295,-34.96,35.76536989212036
1618935335.45857,-27.15179,35.7809898853302
1618935335.4742,-20.68073,35.79661989212036
1618935335.48982,-16.0681,35.8122398853302
1618935335.50545,-13.41228,35.82786989212036
1618935335.52107,-12.38005,35.8434898853302
1618935335.5367,-12.33612,35.85911989212036
1618935335.55233,-12.58722,35.87474989891052
1618935335.56795,-12.58745,35.89036989212036
1618935335.58358,-12.0593,35.90599989891052
1618935335.5992,-10.99886,35.92161989212036
1618935335.61483,-9.591415,35.93724989891052
1618935335.63045,-8.084244,35.95286989212036
1618935335.64608,-6.668793,35.96849989891052
1618935335.66171,-5.421295,35.984129905700684
1618935335.67733,-4.305191,35.99974989891052
1618935335.69296,-3.219391,36.015379905700684
1618935335.70858,-2.096573,36.03099989891052
1618935335.72421,-0.9028015,36.046629905700684
1618935335.73983,0.3289795,36.06224989891052
1618935335.75546,1.526871,36.077879905700684
1618935335.77109,2.611877,36.093509912490845
1618935335.78671,3.526489,36.109129905700684
1618935335.80234,4.246979,36.124759912490845
1618935335.81796,4.750717,36.140379905700684
1618935335.83359,4.967682,36.156009912490845
1618935335.84921,4.803909,36.171629905700684
1618935335.86484,4.159332,36.187259912490845
1618935335.88047,3.038116,36.202889919281006
1618935335.89609,1.610886,36.218509912490845
1618935335.91172,0.2793427,36.234139919281006
1618935335.92734,-0.4117432,36.249759912490845
1618935335.94297,0.1044464,36.265389919281006
1618935335.95859,2.230423,36.281009912490845
1618935335.97422,6.038269,36.296639919281006
1618935335.98985,11.18019,36.31226992607117
1618935336.00547,17.02824,36.327889919281006
1618935336.0211,22.87659,36.34351992607117
1618935336.03672,28.15694,36.359139919281006
1618935336.05235,32.5744,36.37476992607117
1618935336.06797,36.06117,36.390389919281006
1618935336.0836,38.64023,36.40601992607117
1618935336.09923,40.35425,36.42164993286133
1618935336.11485,41.19881,36.43726992607117
1618935336.13048,41.25024,36.45289993286133
1618935336.1461,40.76836,36.46851992607117
1618935336.16173,40.19263,36.48414993286133
1618935336.17735,40.06793,36.49976992607117
1618935336.19298,40.92665,36.51539993286133
1618935336.20861,43.08575,36.53102993965149
1618935336.22423,46.58247,36.54664993286133
1618935336.23986,51.21315,36.56227993965149
1618935336.25548,56.58456,36.57789993286133
1618935336.27111,62.21492,36.59352993965149
1618935336.28673,67.60318,36.60914993286133
1618935336.30236,72.32463,36.62477993965149
1618935336.31799,76.12712,36.64040994644165
1618935336.33361,79.08423,36.65602993965149
1618935336.34924,81.70657,36.67165994644165
1618935336.36486,84.92238,36.68727993965149
1618935336.38049,89.8925,36.70290994644165
1618935336.39611,97.58827,36.71852993965149
1618935336.41174,108.1973,36.73415994644165
1618935336.42737,120.7167,36.74978995323181
1618935336.44299,133.0114,36.76540994644165
1618935336.45862,142.6207,36.78103995323181
1618935336.47424,147.9022,36.79665994644165
1618935336.48987,148.9327,36.81228995323181
1618935336.50549,147.6349,36.82790994644165
1618935336.52112,147.007,36.84353995323181
1618935336.53675,149.7756,36.85916996002197
1618935336.55237,157.2179,36.87478995323181
1618935336.568,168.663,36.89041996002197
1618935336.58362,181.8955,36.90603995323181
1618935336.59925,194.091,36.92166996002197
1618935336.61487,202.7245,36.93728995323181
1618935336.6305,206.0951,36.95291996002197
1618935336.64613,203.3679,36.968549966812134
1618935336.66175,194.3044,36.98416996002197
1618935336.67738,179.0155,36.999799966812134
1618935336.693,157.8354,37.01541996002197
1618935336.70863,131.3472,37.031049966812134
1618935336.72425,100.3935,37.04666996002197
1618935336.73988,66.20651,37.062299966812134
1618935336.75551,30.42862,37.077929973602295
1618935336.77113,-4.891632,37.093549966812134
1618935336.78676,-37.62622,37.109179973602295
1618935336.80238,-66.13641,37.124799966812134
1618935336.81801,-89.91589,37.140429973602295
1618935336.83363,-109.9485,37.156049966812134
1618935336.84926,-128.2514,37.171679973602295
1618935336.86489,-147.0796,37.187309980392456
1618935336.88051,-167.9526,37.202929973602295
1618935336.89614,-191.3677,37.218559980392456
1618935336.91176,-217.0777,37.234179973602295
1618935336.92739,-244.96,37.249809980392456
1618935336.94301,-275.2739,37.265429973602295
1618935336.95864,-307.9929,37.281059980392456
1618935336.97427,-341.6746,37.29668998718262
1618935336.98989,-373.1035,37.312309980392456
1618935337.00552,-398.5035,37.32793998718262
1618935337.02114,-415.7152,37.343559980392456
1618935337.03677,-425.8013,37.35918998718262
1618935337.05239,-432.6058,37.374809980392456
1618935337.06802,-440.2127,37.39043998718262
1618935337.08365,-449.774,37.40606999397278
1618935337.09927,-457.9088,37.42168998718262
1618935337.1149,-458.1464,37.43731999397278
1618935337.13052,-444.5007,37.45293998718262
1618935337.14615,-415.0314,37.46856999397278
1618935337.16177,-373.0909,37.48418998718262
1618935337.1774,-325.3327,37.49981999397278
1618935337.19303,-277.942,37.51545000076294
1618935337.20865,-233.5505,37.53106999397278
1618935337.22428,-190.7882,37.54670000076294
1618935337.2399,-146.6308,37.56231999397278
1618935337.25553,-99.625,37.57795000076294
1618935337.27115,-51.88159,37.59356999397278
1618935337.28678,-8.557678,37.60920000076294
1618935337.30241,24.69727,37.62482976913452
1618935337.31803,44.61743,37.64045000076294
1618935337.33366,51.82861,37.65607976913452
1618935337.34928,50.52551,37.67170000076294
1618935337.36491,46.43396,37.68732976913452
1618935337.38054,44.41144,37.70295977592468
1618935337.39616,46.59204,37.71857976913452
1618935337.41179,52.39313,37.73420977592468
1618935337.42741,59.65881,37.74982976913452
1618935337.44304,66.41907,37.76545977592468
1618935337.45866,72.06577,37.78107976913452
1618935337.47429,77.43454,37.79670977592468
1618935337.48992,83.86005,37.812339782714844
1618935337.50554,92.039,37.82795977592468
1618935337.52117,101.3345,37.843589782714844
1618935337.53679,110.0157,37.85920977592468
1618935337.55242,116.1264,37.874839782714844
1618935337.56804,118.3729,37.89045977592468
1618935337.58367,116.5428,37.906089782714844
1618935337.5993,111.3863,37.921719789505005
1618935337.61492,103.9954,37.937339782714844
1618935337.63055,95.29135,37.952969789505005
1618935337.64617,85.77405,37.968589782714844
1618935337.6618,75.67792,37.984219789505005
1618935337.67742,65.30618,37.999839782714844
1618935337.69305,55.27869,38.015469789505005
1618935337.70868,46.50037,38.031099796295166
1618935337.7243,39.92065,38.046719789505005
1618935337.73993,36.12808,38.062349796295166
1618935337.75555,35.1656,38.077969789505005
1618935337.77118,36.46687,38.093599796295166
1618935337.7868,39.06583,38.109219789505005
1618935337.80243,41.91437,38.124849796295166
1618935337.81806,44.1709,38.14047980308533
1618935337.83368,45.38086,38.156099796295166
1618935337.84931,45.45987,38.17172980308533
1618935337.86493,44.55318,38.187349796295166
1618935337.88056,42.92116,38.20297980308533
1618935337.89618,40.86494,38.218599796295166
1618935337.91181,38.67482,38.23422980308533
1618935337.92744,36.65021,38.24985980987549
1618935337.94306,35.07372,38.26547980308533
1618935337.95869,34.13493,38.28110980987549
1618935337.97431,33.87643,38.29672980308533
1618935337.98994,34.1472,38.31235980987549
1618935338.00556,34.63089,38.32797980308533
1618935338.02119,34.96631,38.34360980987549
1618935338.03682,34.8613,38.35923981666565
1618935338.05244,34.15658,38.37485980987549
1618935338.06807,32.8506,38.39048981666565
1618935338.08369,31.05535,38.40610980987549
1618935338.09932,28.91257,38.42173981666565
1618935338.11494,26.53592,38.43735980987549
1618935338.13057,24.00018,38.45298981666565
1618935338.1462,21.32019,38.46861982345581
1618935338.16182,18.45923,38.48423981666565
1618935338.17745,15.36771,38.49986982345581
1618935338.19307,11.97623,38.51548981666565
1618935338.2087,8.215061,38.53111982345581
1618935338.22432,4.005707,38.54673981666565
1618935338.23995,-0.7425194,38.56236982345581
1618935338.25558,-6.016636,38.57799983024597
1618935338.2712,-11.61415,38.59361982345581
1618935338.28683,-17.03254,38.60924983024597
1618935338.30245,-21.48879,38.62486982345581
1618935338.31808,-24.08669,38.64049983024597
1618935338.3337,-24.14193,38.65611982345581
1618935338.34933,-21.4211,38.67174983024597
1618935338.36496,-16.27167,38.68737983703613
1618935338.38058,-9.482251,38.70299983024597
1618935338.39621,-2.025397,38.71862983703613
1618935338.41183,5.2631,38.73424983024597
1618935338.42746,11.84532,38.74987983703613
1618935338.44308,17.50913,38.76549983024597
1618935338.45871,22.20365,38.78112983703613
1618935338.47434,25.91006,38.796759843826294
1618935338.48996,28.59116,38.81237983703613
1618935338.50559,30.19754,38.828009843826294
1618935338.52121,30.80876,38.84362983703613
1618935338.53684,30.67527,38.859259843826294
1618935338.55246,30.15914,38.87487983703613
1618935338.56809,29.62458,38.890509843826294
1618935338.58372,29.2923,38.906139850616455
1618935338.59934,29.1852,38.921759843826294
1618935338.61497,29.11485,38.937389850616455
1618935338.63059,28.8354,38.953009843826294
1618935338.64622,28.15935,38.968639850616455
1618935338.66184,27.07068,38.984259843826294
1618935338.67747,25.68261,38.999889850616455
1618935338.6931,24.15287,39.015519857406616
1618935338.70872,22.55815,39.031139850616455
1618935338.72435,20.83025,39.046769857406616
1618935338.73997,18.77242,39.062389850616455
1618935338.7556,16.22363,39.078019857406616
1618935338.77122,13.18742,39.093639850616455
1618935338.78685,9.870804,39.109269857406616
1618935338.80248,6.596542,39.12489986419678
1618935338.8181,3.625916,39.140519857406616
1618935338.83373,0.9886017,39.15614986419678
1618935338.84935,-1.556549,39.171769857406616
1618935338.86498,-4.465378,39.18739986419678
1618935338.8806,-8.178925,39.203019857406616
1618935338.89623,-12.92194,39.21864986419678
1618935338.91186,-18.52866,39.23427987098694
1618935338.92748,-24.40669,39.24989986419678
1618935338.94311,-29.65645,39.26552987098694
1618935338.95873,-33.28447,39.28114986419678
1618935338.97436,-34.49327,39.29677987098694
1618935338.98998,-32.86977,39.31239986419678
1618935339.00561,-28.51463,39.32802987098694
1618935339.02124,-21.95703,39.3436598777771
1618935339.03686,-13.98363,39.35927987098694
1618935339.05249,-5.379074,39.3749098777771
1618935339.06811,3.190918,39.39052987098694
1618935339.08374,11.24701,39.4061598777771
1618935339.09936,18.3931,39.42177987098694
1618935339.11499,24.27188,39.4374098777771
1618935339.13062,28.59453,39.45303988456726
1618935339.14624,31.17197,39.4686598777771
1618935339.16187,32.08636,39.48428988456726
1618935339.17749,31.68578,39.4999098777771
1618935339.19312,30.49886,39.51553988456726
1618935339.20874,29.09581,39.5311598777771
1618935339.22437,27.93329,39.54678988456726
1618935339.24,27.26762,39.56241989135742
1618935339.25562,27.13681,39.57803988456726
1618935339.27125,27.45712,39.59366989135742
1618935339.28687,28.01497,39.60928988456726
1618935339.3025,28.56767,39.62491989135742
1618935339.31812,28.8819,39.64053988456726
1618935339.33375,28.73334,39.65616989135742
1618935339.34938,27.98813,39.67179989814758
1618935339.365,26.57333,39.68741989135742
1618935339.38063,24.5141,39.70304989814758
1618935339.39625,21.87311,39.71866989135742
1618935339.41188,18.75952,39.73429989814758
1618935339.4275,15.29541,39.74991989135742
1618935339.44313,11.63571,39.76554989814758
1618935339.45876,7.964508,39.781179904937744
1618935339.47438,4.422882,39.79679989814758
1618935339.49001,1.096405,39.812429904937744
1618935339.50563,-2.040833,39.82804989814758
1618935339.52126,-5.123077,39.843679904937744
1618935339.53688,-8.402252,39.85929989814758
1618935339.55251,-12.133,39.874929904937744
1618935339.56814,-16.48938,39.890559911727905
1618935339.58376,-21.40536,39.906179904937744
1618935339.59939,-26.46246,39.921809911727905
1618935339.61501,-30.92575,39.937429904937744
1618935339.63064,-33.86777,39.953059911727905
1618935339.64627,-34.4686,39.968689918518066
1618935339.66189,-32.27634,39.984309911727905
1618935339.67752,-27.38461,39.999939918518066
1618935339.69314,-20.38831,40.015559911727905
1618935339.70877,-12.17593,40.031189918518066
1618935339.72439,-3.655457,40.046809911727905
1618935339.74002,4.475403,40.062439918518066
1618935339.75565,11.7746,40.07806992530823
1618935339.77127,18.0271,40.093689918518066
1618935339.7869,23.1217,40.10931992530823
1618935339.80252,26.96405,40.124939918518066
1618935339.81815,29.47296,40.14056992530823
1618935339.83377,30.65512,40.156189918518066
1618935339.8494,30.64471,40.17181992530823
1618935339.86503,29.73608,40.18744993209839
1618935339.88065,28.33133,40.20306992530823
1618935339.89628,26.89371,40.21869993209839
1618935339.9119,25.82574,40.23431992530823
1618935339.92753,25.40552,40.24994993209839
1618935339.94315,25.64944,40.26556992530823
1618935339.95878,26.3168,40.28119993209839
1618935339.97441,26.97797,40.29682993888855
1618935339.99003,27.1629,40.31244993209839
1618935340.00566,26.55792,40.32807993888855
1618935340.02128,25.08029,40.34369993209839
1618935340.03691,22.91159,40.35932993888855
1618935340.05253,20.3237,40.37494993209839
1618935340.06816,17.56393,40.39057993888855
1618935340.08379,14.75674,40.40620994567871
1618935340.09941,11.91745,40.42182993888855
1618935340.11504,9.025604,40.43745994567871
1618935340.13066,6.094879,40.45307993888855
1618935340.14629,3.145355,40.46870994567871
1618935340.16191,0.1788635,40.48432993888855
1618935340.17754,-2.891296,40.49995994567871
1618935340.19317,-6.282257,40.51558995246887
1618935340.20879,-10.22702,40.53120994567871
1618935340.22442,-14.82889,40.54683995246887
1618935340.24004,-19.90009,40.56245994567871
1618935340.25567,-24.8851,40.57808995246887
1618935340.27129,-28.9523,40.59370994567871
1618935340.28692,-31.21832,40.60933995246887
1618935340.30255,-31.0369,40.62496995925903
1618935340.31817,-28.20667,40.64058995246887
1618935340.3338,-23.0325,40.65621995925903
1618935340.34942,-16.15491,40.67183995246887
1618935340.36505,-8.381195,40.68746995925903
1618935340.38067,-0.4064636,40.70308995246887
1618935340.3963,7.260254,40.71871995925903
1618935340.41193,14.28937,40.734349966049194
1618935340.42755,20.40558,40.74996995925903
1618935340.44318,25.30209,40.765599966049194
1618935340.4588,28.67639,40.78121995925903
1618935340.47443,30.31631,40.796849966049194
1618935340.49005,30.3028,40.81246995925903
1618935340.50568,29.0408,40.828099966049194
1618935340.52131,27.17319,40.843729972839355
1618935340.53693,25.40161,40.859349966049194
1618935340.55256,24.20773,40.874979972839355
1618935340.56818,23.73367,40.890599966049194
1618935340.58381,23.76633,40.906229972839355
1618935340.59943,23.87988,40.921849966049194
1618935340.61506,23.63922,40.937479972839355
1618935340.63069,22.79153,40.95310997962952
1618935340.64631,21.26215,40.968729972839355
1618935340.66194,19.12195,40.98435997962952
1618935340.67756,16.49631,40.999979972839355
1618935340.69319,13.483,41.01560997962952
1618935340.70881,10.16043,41.031229972839355
1618935340.72444,6.687775,41.04685997962952
1618935340.74007,3.256348,41.06248998641968
1618935340.75569,0.05651855,41.07810997962952
1618935340.77132,-2.810394,41.09373998641968
1618935340.78694,-5.434723,41.10935997962952
1618935340.80257,-8.061127,41.12498998641968
1618935340.81819,-11.03131,41.14060997962952
1618935340.83382,-14.64316,41.15623998641968
1618935340.84945,-19.03683,41.17186999320984
1618935340.86507,-24.1384,41.18748998641968
1618935340.8807,-29.6152,41.20311999320984
1618935340.89632,-34.85947,41.21873998641968
1618935340.91195,-39.02371,41.23436999320984
1618935340.92757,-41.15302,41.24998998641968
1618935340.9432,-40.41925,41.26561999320984
1618935340.95883,-36.40921,41.28125
1618935340.97445,-29.33813,41.29686999320984
1618935340.99008,-20.04904,41.3125
1618935341.0057,-9.774994,41.32811999320984
1618935341.02133,0.1936951,41.34375
1618935341.03695,8.88089,41.35936999320984
1618935341.05258,15.77536,41.375
1618935341.06821,20.80997,41.39062976837158
1618935341.08383,24.19278,41.40625
1618935341.09946,26.23322,41.42187976837158
1618935341.11508,27.20062,41.4375
1618935341.13071,27.32272,41.45312976837158
1618935341.14633,26.78189,41.46875
1618935341.16196,25.78271,41.48437976837158
1618935341.17759,24.50586,41.50000977516174
1618935341.19321,23.12714,41.51562976837158
1618935341.20884,21.7709,41.53125977516174
1618935341.22446,20.55203,41.54687976837158
1618935341.24009,19.54874,41.56250977516174
1618935341.25571,18.77588,41.57812976837158
1618935341.27134,18.19293,41.59375977516174
1618935341.28697,17.67514,41.609389781951904
1618935341.30259,17.0495,41.62500977516174
1618935341.31822,16.12589,41.640639781951904
1618935341.33384,14.72549,41.65625977516174
1618935341.34947,12.72198,41.671889781951904
1618935341.36509,10.0596,41.68750977516174
1618935341.38072,6.823547,41.703139781951904
1618935341.39635,3.220276,41.718769788742065
1618935341.41197,-0.4274597,41.734389781951904
1618935341.4276,-3.852051,41.750019788742065
1618935341.44322,-6.945007,41.765639781951904
1618935341.45885,-9.879211,41.781269788742065
1618935341.47447,-13.01099,41.796889781951904
1618935341.4901,-16.72565,41.812519788742065
1618935341.50573,-21.22446,41.82814979553223
1618935341.52135,-26.31696,41.843769788742065
1618935341.53698,-31.49103,41.85939979553223
1618935341.5526,-35.92572,41.875019788742065
1618935341.56823,-38.78461,41.89064979553223
1618935341.58385,-39.38019,41.906269788742065
1618935341.59948,-37.35156,41.92189979553223
1618935341.61511,-32.68539,41.93752980232239
1618935341.63073,-25.74603,41.95314979553223
1618935341.64636,-17.21579,41.96877980232239
1618935341.66198,-7.93338,41.98439979553223
1618935341.67761,1.195557,42.00002980232239
1618935341.69323,9.377289,42.01564979553223
1618935341.70886,16.00919,42.03127980232239
1618935341.72449,20.75613,42.04690980911255
1618935341.74011,23.53964,42.06252980232239
1618935341.75574,24.57477,42.07815980911255
1618935341.77136,24.32144,42.09377980232239
1618935341.78699,23.37689,42.10940980911255
1618935341.80261,22.34933,42.12502980232239
1618935341.81824,21.65701,42.14065980911255
1618935341.83387,21.44629,42.15628981590271
1618935341.84949,21.57379,42.17190980911255
1618935341.86512,21.78812,42.18753981590271
1618935341.88074,21.8175,42.20315980911255
1618935341.89637,21.55563,42.21878981590271
1618935341.91199,21.00708,42.23440980911255
1618935341.92762,20.26456,42.25003981590271
1618935341.94325,19.40921,42.26566982269287
1618935341.95887,18.45795,42.28128981590271
1618935341.9745,17.37314,42.29691982269287
1618935341.99012,16.05664,42.31253981590271
1618935342.00575,14.38895,42.32816982269287
1618935342.02137,12.233,42.34378981590271
1618935342.037,9.517334,42.35941982269287
1618935342.05263,6.242554,42.37504982948303
1618935342.06825,2.563141,42.39066982269287
1618935342.08388,-1.246613,42.40629982948303
1618935342.0995,-4.897217,42.42191982269287
1618935342.11513,-8.205078,42.43754982948303
1618935342.13075,-11.20401,42.45316982269287
1618935342.14638,-14.13556,42.46879982948303
1618935342.16201,-17.38571,42.48442983627319
1618935342.17763,-21.27698,42.50004982948303
1618935342.19326,-25.90555,42.51567983627319
1618935342.20888,-31.03671,42.53129982948303
1618935342.22451,-36.07205,42.54692983627319
1618935342.24014,-40.1604,42.562559843063354
1618935342.25576,-42.36087,42.57817983627319
1618935342.27139,-41.95044,42.593809843063354
1618935342.28701,-38.62204,42.60942983627319
1618935342.30264,-32.63492,42.625059843063354
1618935342.31826,-24.73291,42.64067983627319
1618935342.33389,-15.91476,42.656309843063354
1618935342.34952,-7.13797,42.671939849853516
1618935342.36514,0.9191895,42.687559843063354
1618935342.38077,7.905487,42.703189849853516
1618935342.39639,13.73642,42.718809843063354
1618935342.41202,18.37881,42.734439849853516
1618935342.42764,21.77921,42.750059843063354
1618935342.44327,23.80841,42.765689849853516
1618935342.4589,24.41998,42.78131985664368
1618935342.47452,23.74673,42.796939849853516
1618935342.49015,22.22476,42.81256985664368
1618935342.50577,20.48132,42.828189849853516
1618935342.5214,19.13834,42.84381985664368
1618935342.53702,18.59543,42.859439849853516
1618935342.55265,18.87109,42.87506985664368
1618935342.56828,19.64581,42.89069986343384
1618935342.5839,20.43845,42.90631985664368
1618935342.59953,20.85324,42.92194986343384
1618935342.61515,20.7128,42.93756985664368
1618935342.63078,20.10941,42.95319986343384
1618935342.6464,19.21576,42.96881985664368
1618935342.66203,18.13263,42.98444986343384
1618935342.67766,16.76587,43.000079870224
1618935342.69328,14.86914,43.01569986343384
1618935342.70891,12.2114,43.031329870224
1618935342.72453,8.758881,43.04694986343384
1618935342.74016,4.753418,43.062579870224
1618935342.75578,0.5633545,43.07819986343384
1618935342.77141,-3.430542,43.093829870224
1618935342.78704,-7.048798,43.10945987701416
1618935342.80266,-10.30438,43.125079870224
1618935342.81829,-13.36279,43.14070987701416
1618935342.83391,-16.40271,43.156329870224
1618935342.84954,-19.58246,43.17195987701416
1618935342.86516,-23.0123,43.187579870224
1618935342.88079,-26.71808,43.20320987701416
1618935342.89642,-30.61639,43.21883988380432
1618935342.91204,-34.37717,43.23445987701416
1618935342.92767,-37.37823,43.25008988380432
1618935342.94329,-38.76672,43.26570987701416
1618935342.95892,-37.73355,43.28133988380432
1618935342.97454,-33.85315,43.29695987701416
1618935342.99017,-27.25217,43.31258988380432
1618935343.0058,-18.67715,43.32821989059448
1618935343.02142,-9.180298,43.34383988380432
1618935343.03705,0.1626282,43.35946989059448
1618935343.05267,8.551971,43.37508988380432
1618935343.0683,15.49838,43.39071989059448
1618935343.08392,20.76752,43.40633988380432
1618935343.09955,24.24167,43.42196989059448
1618935343.11518,25.9133,43.437599897384644
1618935343.1308,25.9306,43.45321989059448
1618935343.14643,24.64886,43.468849897384644
1618935343.16205,22.62753,43.48446989059448
1618935343.17768,20.44699,43.500099897384644
1618935343.1933,18.58499,43.51571989059448
1618935343.20893,17.22906,43.531349897384644
1618935343.22456,16.34479,43.546979904174805
1618935343.24018,15.74594,43.562599897384644
1618935343.25581,15.31525,43.578229904174805
1618935343.27143,15.01743,43.593849897384644
1618935343.28706,14.8952,43.609479904174805
1618935343.30268,14.94748,43.625099897384644
1618935343.31831,14.99924,43.640729904174805
1618935343.33394,14.75845,43.656359910964966
1618935343.34956,13.88422,43.671979904174805
1618935343.36519,12.13321,43.687609910964966
1618935343.38081,9.495361,43.703229904174805
1618935343.39644,6.203003,43.718859910964966
1618935343.41206,2.59494,43.734479904174805
1618935343.42769,-0.9763489,43.750109910964966
1618935343.44332,-4.286774,43.76573991775513
1618935343.45894,-7.282288,43.781359910964966
1618935343.47457,-10.05267,43.79698991775513
1618935343.49019,-12.76996,43.812609910964966
1618935343.50582,-15.65799,43.82823991775513
1618935343.52144,-18.93826,43.843859910964966
1618935343.53707,-22.78833,43.85948991775513
1618935343.5527,-27.24716,43.87511992454529
1618935343.56832,-32.10458,43.89073991775513
1618935343.58395,-36.77371,43.90636992454529
1618935343.59957,-40.36853,43.92198991775513
1618935343.6152,-41.85049,43.93761992454529
1618935343.63082,-40.38516,43.95323991775513
1618935343.64645,-35.6629,43.96886992454529
1618935343.66208,-28.04538,43.98449993133545
1618935343.6777,-18.53598,44.00011992454529
1618935343.69333,-8.481567,44.01574993133545
1618935343.70895,0.8286133,44.03136992454529
1618935343.72458,8.498291,44.04699993133545
1618935343.7402,14.13657,44.06261992454529
1618935343.75583,17.82971,44.07824993133545
1618935343.77146,19.9321,44.09387993812561
1618935343.78708,20.8689,44.10949993133545
1618935343.80271,20.9902,44.12512993812561
1618935343.81833,20.55688,44.14074993133545
1618935343.83396,19.74063,44.15637993812561
1618935343.84958,18.70898,44.17199993133545
1618935343.86521,17.58475,44.18762993812561
1618935343.88084,16.49509,44.20325994491577
1618935343.89646,15.50229,44.21887993812561
1618935343.91209,14.59143,44.23450994491577
1618935343.92771,13.71255,44.25012993812561
1618935343.94334,12.797,44.26575994491577
1618935343.95896,11.77722,44.28137993812561
1618935343.97459,10.6059,44.29700994491577
1618935343.99022,9.259521,44.31263995170593
1618935344.00584,7.731018,44.32825994491577
1618935344.02147,6.046631,44.34388995170593
1618935344.03709,4.208557,44.35950994491577
1618935344.05272,2.241943,44.37513995170593
1618935344.06834,0.1625671,44.39075994491577
1618935344.08397,-2.021729,44.40638995170593
1618935344.0996,-4.292389,44.422019958496094
1618935344.11522,-6.601807,44.43763995170593
1618935344.13085,-8.874878,44.453269958496094
1618935344.14647,-11.10141,44.46888995170593
1618935344.1621,-13.39526,44.484519958496094
1618935344.17772,-16.05542,44.50013995170593
1618935344.19335,-19.44675,44.515769958496094
1618935344.20898,-23.7883,44.531399965286255
1618935344.2246,-28.88811,44.547019958496094
1618935344.24023,-34.02507,44.562649965286255
1618935344.25585,-38.07535,44.578269958496094
1618935344.27148,-39.84589,44.593899965286255
1618935344.2871,-38.52223,44.609519958496094
1618935344.30273,-33.94901,44.625149965286255
1618935344.31836,-26.68356,44.640779972076416
1618935344.33398,-17.78023,44.656399965286255
1618935344.34961,-8.444794,44.672029972076416
1618935344.36523,0.3082886,44.687649965286255
1618935344.38086,7.832703,44.703279972076416
1618935344.39648,13.83884,44.718899965286255
1618935344.41211,18.32419,44.734529972076416
1618935344.42774,21.401,44.75015997886658
1618935344.44336,23.20984,44.765779972076416
1618935344.45899,23.84036,44.78140997886658
1618935344.47461,23.42694,44.797029972076416
1618935344.49024,22.1987,44.81265997886658
1618935344.50587,20.5524,44.82828998565674
1618935344.52149,19.00894,44.84390997886658
1618935344.53712,18.02536,44.85953998565674
1618935344.55274,17.81067,44.87515997886658
1618935344.56837,18.20319,44.89078998565674
1618935344.58399,18.72925,44.90640997886658
1618935344.59962,18.79529,44.92203998565674
1618935344.61525,17.99362,44.9376699924469
1618935344.63087,16.23657,44.95328998565674
1618935344.6465,13.80405,44.9689199924469
1618935344.66212,11.14645,44.98453998565674
1618935344.67775,8.668213,45.0001699924469
1618935344.69337,6.540436,45.01578998565674
1618935344.709,4.691895,45.0314199924469
1618935344.72463,2.862381,45.04704999923706
1618935344.74025,0.7948914,45.0626699924469
1618935344.75588,-1.624298,45.07829999923706
1618935344.7715,-4.365768,45.0939199924469
1618935344.78713,-7.298187,45.10954999923706
1618935344.80275,-10.32228,45.1251699924469
1618935344.81838,-13.48703,45.14079999923706
1618935344.83401,-16.91698,45.15642976760864
1618935344.84963,-20.75513,45.17204999923706
1618935344.86526,-24.90915,45.18767976760864
1618935344.88088,-28.88034,45.20329999923706
1618935344.89651,-31.83548,45.21892976760864
1618935344.91213,-32.86392,45.23454999923706
1618935344.92776,-31.31303,45.25017976760864
1618935344.94339,-27.09262,45.265809774398804
1618935344.95901,-20.73671,45.28142976760864
1618935344.97464,-13.15045,45.297059774398804
1618935344.99026,-5.336884,45.31267976760864
1618935345.00589,1.948914,45.328309774398804
1618935345.02151,8.262909,45.34392976760864
1618935345.03714,13.39587,45.359559774398804
1618935345.05277,17.2197,45.375189781188965
1618935345.06839,19.61304,45.390809774398804
1618935345.08402,20.46817,45.406439781188965
1618935345.09964,19.82178,45.422059774398804
1618935345.11527,17.94836,45.437689781188965
1618935345.13089,15.35246,45.453309774398804
1618935345.14652,12.70186,45.468939781188965
1618935345.16215,10.59602,45.484569787979126
1618935345.17777,9.40741,45.500189781188965
1618935345.1934,9.143494,45.515819787979126
1618935345.20902,9.546844,45.531439781188965
1618935345.22465,10.14334,45.547069787979126
1618935345.24027,10.49751,45.562689781188965
1618935345.2559,10.29004,45.578319787979126
1618935345.27153,9.384155,45.59394979476929
1618935345.28715,7.783798,45.609569787979126
1618935345.30278,5.5522,45.62519979476929
1618935345.3184,2.77243,45.640819787979126
1618935345.33403,-0.4505005,45.65644979476929
1618935345.34965,-3.924652,45.672069787979126
1618935345.36528,-7.397751,45.68769979476929
1618935345.38091,-10.5596,45.70332980155945
1618935345.39653,-13.21884,45.71894979476929
1618935345.41216,-15.4193,45.73457980155945
1618935345.42778,-17.44937,45.75019979476929
1618935345.44341,-19.74698,45.76582980155945
1618935345.45903,-22.67317,45.78144979476929
1618935345.47466,-26.30615,45.79707980155945
1618935345.49029,-30.24979,45.81270980834961
1618935345.50591,-33.71606,45.82832980155945
1618935345.52154,-35.69218,45.84395980834961
1618935345.53716,-35.3089,45.85957980155945
1618935345.55279,-32.10689,45.87520980834961
1618935345.56841,-26.26341,45.89082980155945
1618935345.58404,-18.50311,45.90645980834961
1618935345.59967,-9.863861,45.92208981513977
1618935345.61529,-1.334579,45.93770980834961
1618935345.63092,6.384201,45.95333981513977
1618935345.64654,12.92273,45.96895980834961
1618935345.66217,18.17029,45.98458981513977
1618935345.67779,22.04245,46.00020980834961
1618935345.69342,24.47287,46.01583981513977
1618935345.70905,25.43692,46.03146982192993
1618935345.72467,25.08676,46.04708981513977
