timestamp,value,norm_ts
1617990419.81098,60.54535,0.9199800491333008
1617990419.8266,70.33966,0.9356000423431396
1617990419.84223,79.69543,0.9512300491333008
1617990419.85785,87.80344,0.9668500423431396
1617990419.87348,93.89429,0.9824800491333008
1617990419.88911,97.45132,0.9981100559234619
1617990419.90473,98.21683,1.0137300491333008
1617990419.92036,96.21274,1.029360055923462
1617990419.93598,91.63364,1.0449800491333008
1617990419.95161,84.69751,1.060610055923462
1617990419.96723,75.59232,1.0762300491333008
1617990419.98286,64.55463,1.091860055923462
1617990419.99849,51.98474,1.107490062713623
1617990420.01411,38.47159,1.123110055923462
1617990420.02974,24.83215,1.138740062713623
1617990420.04536,11.88507,1.154360055923462
1617990420.06099,0.2594604,1.169990062713623
1617990420.07662,-9.70755,1.1856200695037842
1617990420.09224,-18.05527,1.201240062713623
1617990420.10787,-25.0733,1.2168700695037842
1617990420.12349,-31.12122,1.232490062713623
1617990420.13912,-36.56232,1.2481200695037842
1617990420.15474,-41.65695,1.263740062713623
1617990420.17037,-46.55847,1.2793700695037842
1617990420.186,-51.29431,1.2950000762939453
1617990420.20162,-55.71988,1.3106200695037842
1617990420.21725,-59.44247,1.3262500762939453
1617990420.23287,-61.81482,1.3418700695037842
1617990420.2485,-61.97659,1.3575000762939453
1617990420.26412,-59.03,1.3731200695037842
1617990420.27975,-52.27606,1.3887500762939453
1617990420.29538,-41.42267,1.4043800830841064
1617990420.311,-26.62946,1.4200000762939453
1617990420.32663,-8.506531,1.4356300830841064
1617990420.34225,12.03235,1.4512500762939453
1617990420.35788,34.01572,1.4668800830841064
1617990420.3735,56.55084,1.4825000762939453
1617990420.38913,79.02036,1.4981300830841064
1617990420.40476,101.1103,1.5137598514556885
1617990420.42038,122.7835,1.5293800830841064
1617990420.43601,144.1742,1.5450098514556885
1617990420.45163,165.4611,1.5606300830841064
1617990420.46726,186.6035,1.5762598514556885
1617990420.48288,207.1597,1.5918800830841064
1617990420.49851,226.1475,1.6075098514556885
1617990420.51414,242.0136,1.6231398582458496
1617990420.52976,252.886,1.6387598514556885
1617990420.54539,256.8876,1.6543898582458496
1617990420.56101,252.4352,1.6700098514556885
1617990420.57664,238.5648,1.6856398582458496
1617990420.59226,215.0953,1.7012598514556885
1617990420.60789,182.7413,1.7168898582458496
1617990420.62352,143.0953,1.7325198650360107
1617990420.63914,98.42947,1.7481398582458496
1617990420.65477,51.4184,1.7637698650360107
1617990420.67039,4.681427,1.7793898582458496
1617990420.68602,-39.61325,1.7950198650360107
1617990420.70164,-79.94652,1.8106398582458496
1617990420.71727,-115.3798,1.8262698650360107
1617990420.7329,-145.3385,1.8418998718261719
1617990420.74852,-169.3719,1.8575198650360107
1617990420.76415,-187.0827,1.8731498718261719
1617990420.77977,-198.2691,1.8887698650360107
1617990420.7954,-203.1456,1.9043998718261719
1617990420.81102,-202.4078,1.9200198650360107
1617990420.82665,-197.1939,1.9356498718261719
1617990420.84228,-188.7739,1.951279878616333
1617990420.8579,-178.275,1.9668998718261719
1617990420.87353,-166.4884,1.982529878616333
1617990420.88915,-153.8796,1.9981498718261719
1617990420.90478,-140.6264,2.013779878616333
1617990420.9204,-126.7561,2.029399871826172
1617990420.93603,-112.2336,2.045029878616333
1617990420.95166,-97.05258,2.060659885406494
1617990420.96728,-81.34398,2.076279878616333
1617990420.98291,-65.3772,2.091909885406494
1617990420.99853,-49.54666,2.107529878616333
1617990421.01416,-34.28444,2.123159885406494
1617990421.02978,-20.00304,2.138779878616333
1617990421.04541,-7.058472,2.154409885406494
1617990421.06104,4.18837,2.1700398921966553
1617990421.07666,13.39064,2.185659885406494
1617990421.09229,20.29507,2.2012898921966553
1617990421.10791,24.82724,2.216909885406494
1617990421.12354,27.25328,2.2325398921966553
1617990421.13916,28.08266,2.248159885406494
1617990421.15479,27.89661,2.2637898921966553
1617990421.17042,27.2047,2.2794198989868164
1617990421.18604,26.28151,2.2950398921966553
1617990421.20167,25.21104,2.3106698989868164
1617990421.21729,24.01357,2.3262898921966553
1617990421.23292,22.82297,2.3419198989868164
1617990421.24854,21.80882,2.3575398921966553
1617990421.26417,21.15517,2.3731698989868164
1617990421.2798,20.8545,2.3887999057769775
1617990421.29542,20.65676,2.4044198989868164
1617990421.31105,20.21019,2.4200499057769775
1617990421.32667,19.18576,2.4356698989868164
1617990421.3423,17.49085,2.4512999057769775
1617990421.35792,15.21656,2.4669198989868164
1617990421.37355,12.57934,2.4825499057769775
1617990421.38918,9.765297,2.4981799125671387
1617990421.4048,6.916443,2.5137999057769775
1617990421.42043,4.103722,2.5294299125671387
1617990421.43605,1.357269,2.5450499057769775
1617990421.45168,-1.259613,2.5606799125671387
1617990421.4673,-3.745773,2.5762999057769775
1617990421.48293,-6.157944,2.5919299125671387
1617990421.49856,-8.654457,2.6075599193573
1617990421.51418,-11.4254,2.6231799125671387
1617990421.52981,-14.54969,2.6388099193573
1617990421.54543,-17.83776,2.6544299125671387
1617990421.56106,-20.7718,2.6700599193573
1617990421.57668,-22.62141,2.6856799125671387
1617990421.59231,-22.65048,2.7013099193573
1617990421.60794,-20.42346,2.716939926147461
1617990421.62356,-15.98814,2.7325599193573
1617990421.63919,-9.914505,2.748189926147461
1617990421.65481,-3.12957,2.7638099193573
1617990421.67044,3.368019,2.779439926147461
1617990421.68606,8.820503,2.7950599193573
1617990421.70169,12.86946,2.810689926147461
1617990421.71732,15.54482,2.826319932937622
1617990421.73294,17.1311,2.841939926147461
1617990421.74857,17.94578,2.857569932937622
1617990421.76419,18.22868,2.873189926147461
1617990421.77982,18.12387,2.888819932937622
1617990421.79544,17.74455,2.904439926147461
1617990421.81107,17.15113,2.920069932937622
1617990421.8267,16.38406,2.935699939727783
1617990421.84232,15.43916,2.951319932937622
1617990421.85795,14.25247,2.966949939727783
1617990421.87357,12.73039,2.982569932937622
1617990421.8892,10.85223,2.998199939727783
1617990421.90482,8.737114,3.013819932937622
1617990421.92045,6.656792,3.029449939727783
1617990421.93608,4.944519,3.0450799465179443
1617990421.9517,3.841934,3.060699939727783
1617990421.96733,3.366425,3.0763299465179443
1617990421.98295,3.289497,3.091949939727783
1617990421.99858,3.277946,3.1075799465179443
1617990422.0142,2.966408,3.123199939727783
1617990422.02983,2.178856,3.1388299465179443
1617990422.04546,0.9262161,3.1544599533081055
1617990422.06108,-0.6641998,3.1700799465179443
1617990422.07671,-2.4002,3.1857099533081055
1617990422.09233,-4.180573,3.2013299465179443
1617990422.10796,-6.008278,3.2169599533081055
1617990422.12358,-7.978111,3.2325799465179443
1617990422.13921,-10.23894,3.2482099533081055
1617990422.15484,-12.94884,3.2638399600982666
1617990422.17046,-16.1677,3.2794599533081055
1617990422.18609,-19.81992,3.2950899600982666
1617990422.20171,-23.68042,3.3107099533081055
1617990422.21734,-27.27386,3.3263399600982666
1617990422.23296,-29.9749,3.3419599533081055
1617990422.24859,-31.13942,3.3575899600982666
1617990422.26422,-30.25464,3.3732199668884277
1617990422.27984,-27.14597,3.3888399600982666
1617990422.29547,-22.01712,3.4044699668884277
1617990422.31109,-15.44161,3.4200899600982666
1617990422.32672,-8.20858,3.4357199668884277
1617990422.34235,-1.165871,3.451349973678589
1617990422.35797,4.987564,3.4669699668884277
1617990422.3736,9.766808,3.482599973678589
1617990422.38922,12.99843,3.4982199668884277
1617990422.40485,14.79452,3.513849973678589
1617990422.42047,15.45196,3.5294699668884277
1617990422.4361,15.31903,3.545099973678589
1617990422.45173,14.72465,3.56072998046875
1617990422.46735,13.88503,3.576349973678589
1617990422.48298,12.87894,3.59197998046875
1617990422.4986,11.82393,3.607599973678589
1617990422.51423,10.80059,3.62322998046875
1617990422.52985,9.919994,3.638849973678589
1617990422.54548,9.278965,3.65447998046875
1617990422.56111,8.870594,3.670109987258911
1617990422.57673,8.589504,3.68572998046875
1617990422.59236,8.351788,3.701359987258911
1617990422.60798,8.114452,3.71697998046875
1617990422.62361,7.925102,3.732609987258911
1617990422.63923,7.892944,3.74822998046875
1617990422.65486,7.979378,3.763859987258911
1617990422.67049,7.967407,3.7794899940490723
1617990422.68611,7.559883,3.795109987258911
1617990422.70174,6.470333,3.8107399940490723
1617990422.71736,4.626831,3.826359987258911
1617990422.73299,2.338394,3.8419899940490723
1617990422.74861,0.0450325,3.857609987258911
1617990422.76424,-1.883896,3.8732399940490723
1617990422.77987,-3.355766,3.8888700008392334
1617990422.79549,-4.655174,3.9044899940490723
1617990422.81112,-6.297325,3.9201200008392334
1617990422.82674,-8.704643,3.9357399940490723
1617990422.84237,-12.03284,3.9513700008392334
1617990422.85799,-16.01563,3.9669899940490723
1617990422.87362,-20.0203,3.9826200008392334
1617990422.88925,-23.25488,3.9982500076293945
1617990422.90487,-24.99055,4.013870000839233
1617990422.9205,-24.70424,4.0295000076293945
1617990422.93612,-22.24904,4.045120000839233
1617990422.95175,-17.86657,4.0607500076293945
1617990422.96737,-12.10663,4.076370000839233
1617990422.983,-5.715248,4.0920000076293945
1617990422.99863,0.5613823,4.107630014419556
1617990423.01425,6.131845,4.1232500076293945
1617990423.02988,10.6361,4.138880014419556
1617990423.0455,13.92412,4.1545000076293945
1617990423.06113,16.05721,4.170130014419556
1617990423.07675,17.10781,4.1857500076293945
1617990423.09238,17.17181,4.201380014419556
1617990423.10801,16.36884,4.217010021209717
1617990423.12363,14.84588,4.232630014419556
1617990423.13926,12.85327,4.248260021209717
1617990423.15488,10.69651,4.263880014419556
1617990423.17051,8.686844,4.279510021209717
1617990423.18613,7.023897,4.295130014419556
1617990423.20176,5.822708,4.310760021209717
1617990423.21739,5.01568,4.326390027999878
1617990423.23301,4.487208,4.342010021209717
1617990423.24864,4.087063,4.357640027999878
1617990423.26426,3.667052,4.373260021209717
1617990423.27989,3.135287,4.388890027999878
1617990423.29551,2.438449,4.404510021209717
1617990423.31114,1.561089,4.420140027999878
1617990423.32677,0.5393019,4.435770034790039
1617990423.34239,-0.5216532,4.451390027999878
1617990423.35802,-1.558303,4.467020034790039
1617990423.37364,-2.519264,4.482640027999878
1617990423.38927,-3.485372,4.498270034790039
1617990423.40489,-4.582847,4.513890027999878
1617990423.42052,-5.993267,4.529520034790039
1617990423.43615,-7.8373,4.5451500415802
1617990423.45177,-10.12782,4.560770034790039
1617990423.4674,-12.77849,4.5764000415802
1617990423.48302,-15.57278,4.592020034790039
1617990423.49865,-18.22213,4.6076500415802
1617990423.51427,-20.3452,4.623270034790039
1617990423.5299,-21.53577,4.6389000415802
1617990423.54553,-21.41315,4.654530048370361
1617990423.56115,-19.68674,4.6701500415802
1617990423.57678,-16.30497,4.685780048370361
1617990423.5924,-11.52814,4.7014000415802
1617990423.60803,-5.900854,4.717030048370361
1617990423.62365,-0.1443605,4.7326500415802
1617990423.63928,4.997366,4.748280048370361
1617990423.65491,9.006246,4.7639100551605225
1617990423.67053,11.65014,4.779530048370361
1617990423.68616,12.97215,4.7951600551605225
1617990423.70178,13.2662,4.810780048370361
1617990423.71741,12.85125,4.8264100551605225
1617990423.73303,12.01582,4.842030048370361
1617990423.74866,10.94732,4.8576600551605225
1617990423.76429,9.746923,4.873290061950684
1617990423.77991,8.477821,4.8889100551605225
1617990423.79554,7.261257,4.904540061950684
1617990423.81116,6.219175,4.9201600551605225
1617990423.82679,5.436167,4.935790061950684
1617990423.84241,4.893955,4.9514100551605225
1617990423.85804,4.477114,4.967040061950684
1617990423.87367,4.036982,4.982670068740845
1617990423.88929,3.457117,4.998290061950684
1617990423.90492,2.730661,5.013920068740845
1617990423.92054,1.959494,5.029540061950684
1617990423.93617,1.238588,5.045170068740845
1617990423.95179,0.5973263,5.060790061950684
1617990423.96742,-0.08448982,5.076420068740845
1617990423.98305,-0.955492,5.092050075531006
1617990423.99867,-2.106541,5.107670068740845
1617990424.0143,-3.466496,5.123300075531006
1617990424.02992,-4.852985,5.138920068740845
1617990424.04555,-6.086285,5.154550075531006
1617990424.06117,-7.104336,5.170170068740845
1617990424.0768,-8.061543,5.185800075531006
1617990424.09243,-9.253883,5.201430082321167
1617990424.10805,-10.98277,5.217050075531006
1617990424.12368,-13.31837,5.232680082321167
1617990424.1393,-16.03067,5.248300075531006
1617990424.15493,-18.54804,5.263930082321167
1617990424.17055,-20.12197,5.279550075531006
1617990424.18618,-20.17052,5.295180082321167
1617990424.20181,-18.38012,5.310809850692749
1617990424.21743,-14.9081,5.326430082321167
1617990424.23306,-10.2203,5.342059850692749
1617990424.24868,-4.951412,5.357680082321167
1617990424.26431,0.2630692,5.373309850692749
1617990424.27993,4.928711,5.388930082321167
1617990424.29556,8.689594,5.404559850692749
1617990424.31119,11.35043,5.42018985748291
1617990424.32681,12.82537,5.435809850692749
1617990424.34244,13.19022,5.45143985748291
1617990424.35806,12.66322,5.467059850692749
1617990424.37369,11.62989,5.48268985748291
1617990424.38931,10.51965,5.498309850692749
1617990424.40494,9.622532,5.51393985748291
1617990424.42057,9.021931,5.529569864273071
1617990424.43619,8.575066,5.54518985748291
1617990424.45182,8.047173,5.560819864273071
1617990424.46744,7.277359,5.57643985748291
1617990424.48307,6.267788,5.592069864273071
1617990424.49869,5.170139,5.60768985748291
1617990424.51432,4.186543,5.623319864273071
1617990424.52995,3.471016,5.638949871063232
1617990424.54557,3.023827,5.654569864273071
1617990424.5612,2.73859,5.670199871063232
1617990424.57682,2.445652,5.685819864273071
1617990424.59245,1.984634,5.701449871063232
1617990424.60807,1.248173,5.717069864273071
1617990424.6237,0.2238998,5.732699871063232
1617990424.63933,-1.08226,5.7483298778533936
1617990424.65495,-2.660965,5.763949871063232
1617990424.67058,-4.425011,5.7795798778533936
1617990424.6862,-6.32489,5.795199871063232
1617990424.70183,-8.180717,5.8108298778533936
1617990424.71745,-9.831444,5.826449871063232
1617990424.73308,-11.13023,5.8420798778533936
1617990424.74871,-11.99683,5.857709884643555
1617990424.76433,-12.57866,5.8733298778533936
1617990424.77996,-13.21201,5.888959884643555
1617990424.79558,-14.28839,5.9045798778533936
1617990424.81121,-16.02355,5.920209884643555
1617990424.82683,-18.33221,5.9358298778533936
1617990424.84246,-20.68063,5.951459884643555
1617990424.85809,-22.29417,5.967089891433716
1617990424.87371,-22.46555,5.982709884643555
1617990424.88934,-20.78353,5.998339891433716
1617990424.90496,-17.38603,6.013959884643555
1617990424.92059,-12.8206,6.029589891433716
1617990424.93622,-7.824661,6.045219898223877
1617990424.95184,-3.049438,6.060839891433716
1617990424.96747,1.112144,6.076469898223877
1617990424.98309,4.52282,6.092089891433716
1617990424.99872,7.203323,6.107719898223877
1617990425.01434,9.184967,6.123339891433716
1617990425.02997,10.47384,6.138969898223877
1617990425.0456,11.01393,6.154599905014038
1617990425.06122,10.7961,6.170219898223877
1617990425.07685,9.893326,6.185849905014038
1617990425.09247,8.524521,6.201469898223877
1617990425.1081,7.016068,6.217099905014038
1617990425.12372,5.719887,6.232719898223877
1617990425.13935,4.880173,6.248349905014038
1617990425.15498,4.524422,6.263979911804199
1617990425.1706,4.507019,6.279599905014038
1617990425.18623,4.562744,6.295229911804199
1617990425.20185,4.524223,6.310849905014038
1617990425.21748,4.378471,6.326479911804199
1617990425.2331,4.289101,6.342099905014038
1617990425.24873,4.441467,6.357729911804199
1617990425.26436,4.913544,6.37335991859436
1617990425.27998,5.533928,6.388979911804199
1617990425.29561,5.977394,6.40460991859436
1617990425.31123,5.963654,6.420229911804199
1617990425.32686,5.341568,6.43585991859436
1617990425.34248,4.207458,6.451479911804199
1617990425.35811,2.776016,6.46710991859436
1617990425.37374,1.268105,6.4827399253845215
1617990425.38936,-0.1931,6.49835991859436
1617990425.40499,-1.568008,6.5139899253845215
1617990425.42061,-2.848816,6.52960991859436
1617990425.43624,-4.032471,6.5452399253845215
1617990425.45186,-5.129112,6.56085991859436
1617990425.46749,-6.239929,6.5764899253845215
1617990425.48312,-7.5205,6.592119932174683
1617990425.49874,-9.174301,6.6077399253845215
1617990425.51437,-11.25042,6.623369932174683
1617990425.52999,-13.56808,6.6389899253845215
1617990425.54562,-15.6737,6.654619932174683
1617990425.56124,-16.90701,6.6702399253845215
1617990425.57687,-16.76495,6.685869932174683
1617990425.5925,-14.98951,6.701499938964844
1617990425.60812,-11.74108,6.717119932174683
1617990425.62375,-7.438385,6.732749938964844
1617990425.63937,-2.660446,6.748369932174683
1617990425.655,2.05368,6.763999938964844
1617990425.67062,6.297562,6.779619932174683
1617990425.68625,9.837479,6.795249938964844
1617990425.70188,12.5531,6.810879945755005
1617990425.7175,14.34399,6.826499938964844
1617990425.73313,15.14896,6.842129945755005
1617990425.74875,14.94883,6.857749938964844
1617990425.76438,13.88927,6.873379945755005
1617990425.78,12.22306,6.888999938964844
1617990425.79563,10.25963,6.904629945755005
1617990425.81126,8.298164,6.920259952545166
1617990425.82688,6.548508,6.935879945755005
1617990425.84251,5.116447,6.951509952545166
1617990425.85813,4.005142,6.967129945755005
1617990425.87376,3.201447,6.982759952545166
1617990425.88938,2.677483,6.998379945755005
1617990425.90501,2.424149,7.014009952545166
1617990425.92064,2.458435,7.029639959335327
1617990425.93626,2.747162,7.045259952545166
1617990425.95189,3.229645,7.060889959335327
1617990425.96751,3.772774,7.076509952545166
1617990425.98314,4.187981,7.092139959335327
1617990425.99876,4.254211,7.107759952545166
1617990426.01439,3.838341,7.123389959335327
1617990426.03002,2.913452,7.139019966125488
1617990426.04564,1.594498,7.154639959335327
1617990426.06127,0.1624527,7.170269966125488
1617990426.07689,-1.102882,7.185889959335327
1617990426.09252,-1.99955,7.201519966125488
1617990426.10814,-2.547935,7.217139959335327
1617990426.12377,-2.980171,7.232769966125488
1617990426.1394,-3.644577,7.248399972915649
1617990426.15502,-4.792458,7.264019966125488
1617990426.17065,-6.572281,7.279649972915649
1617990426.18627,-8.962234,7.295269966125488
1617990426.2019,-11.74712,7.310899972915649
1617990426.21752,-14.5751,7.326519966125488
1617990426.23315,-16.98553,7.342149972915649
1617990426.24878,-18.49372,7.3577799797058105
1617990426.2644,-18.64758,7.373399972915649
1617990426.28003,-17.22601,7.3890299797058105
1617990426.29565,-14.25887,7.404649972915649
1617990426.31128,-10.10484,7.4202799797058105
1617990426.3269,-5.321175,7.435899972915649
1617990426.34253,-0.5225449,7.4515299797058105
1617990426.35816,3.781219,7.467159986495972
1617990426.37378,7.2481,7.4827799797058105
1617990426.38941,9.745499,7.498409986495972
1617990426.40503,11.29787,7.5140299797058105
1617990426.42066,12.0481,7.529659986495972
1617990426.43628,12.16291,7.5452799797058105
1617990426.45191,11.79334,7.560909986495972
1617990426.46754,11.05673,7.576539993286133
1617990426.48316,10.02374,7.592159986495972
1617990426.49879,8.759354,7.607789993286133
1617990426.51441,7.407547,7.623409986495972
1617990426.53004,6.184792,7.639039993286133
1617990426.54566,5.376541,7.654659986495972
1617990426.56129,5.179123,7.670289993286133
1617990426.57692,5.555595,7.685920000076294
1617990426.59254,6.241295,7.701539993286133
1617990426.60817,6.856567,7.717170000076294
1617990426.62379,7.130211,7.732789993286133
1617990426.63942,6.947479,7.748420000076294
1617990426.65504,6.467346,7.764039993286133
1617990426.67067,5.914734,7.779670000076294
1617990426.6863,5.432274,7.795300006866455
1617990426.70192,4.995865,7.810920000076294
1617990426.71755,4.435364,7.826550006866455
1617990426.73317,3.558884,7.842170000076294
1617990426.7488,2.291931,7.857800006866455
1617990426.76442,0.7733002,7.873420000076294
1617990426.78005,-0.7887115,7.889050006866455
1617990426.79568,-2.19574,7.904680013656616
1617990426.8113,-3.434113,7.920300006866455
1617990426.82693,-4.661102,7.935930013656616
1617990426.84255,-6.16272,7.951550006866455
1617990426.85818,-8.176117,7.967180013656616
1617990426.8738,-10.80643,7.982800006866455
1617990426.88943,-13.90372,7.998430013656616
1617990426.90506,-17.06921,8.014060020446777
1617990426.92068,-19.74727,8.029680013656616
1617990426.93631,-21.36711,8.045310020446777
1617990426.95193,-21.53773,8.060930013656616
1617990426.96756,-20.0878,8.076560020446777
1617990426.98318,-17.14578,8.092180013656616
1617990426.99881,-13.06738,8.107810020446777
1617990427.01444,-8.306519,8.123440027236938
1617990427.03006,-3.342621,8.139060020446777
1617990427.04569,1.387054,8.154690027236938
1617990427.06131,5.499741,8.170310020446777
1617990427.07694,8.654846,8.185940027236938
1617990427.09256,10.62813,8.201560020446777
1617990427.10819,11.37033,8.217190027236938
1617990427.12382,11.07582,8.2328200340271
1617990427.13944,10.12923,8.248440027236938
1617990427.15507,8.970016,8.2640700340271
1617990427.17069,7.94928,8.279690027236938
1617990427.18632,7.160965,8.2953200340271
1617990427.20195,6.50975,8.31095004081726
1617990427.21757,5.867523,8.3265700340271
1617990427.2332,5.19458,8.34220004081726
1617990427.24882,4.601303,8.3578200340271
1617990427.26445,4.232605,8.37345004081726
1617990427.28007,4.190186,8.3890700340271
1617990427.2957,4.387833,8.40470004081726
1617990427.31133,4.606293,8.420330047607422
1617990427.32695,4.625168,8.43595004081726
1617990427.34258,4.315475,8.451580047607422
1617990427.3582,3.757904,8.46720004081726
1617990427.37383,3.126358,8.482830047607422
1617990427.38945,2.620499,8.49845004081726
1617990427.40508,2.291077,8.514080047607422
1617990427.42071,2.062027,8.529710054397583
1617990427.43633,1.68132,8.545330047607422
1617990427.45196,0.8620148,8.560960054397583
1617990427.46758,-0.6229248,8.576580047607422
1617990427.48321,-2.823608,8.592210054397583
1617990427.49883,-5.574387,8.607830047607422
1617990427.51446,-8.578018,8.623460054397583
1617990427.53009,-11.44826,8.639090061187744
1617990427.54571,-13.89458,8.654710054397583
1617990427.56134,-15.70485,8.670340061187744
1617990427.57696,-16.86612,8.685960054397583
1617990427.59259,-17.48221,8.701590061187744
1617990427.60821,-17.72292,8.717210054397583
1617990427.62384,-17.80112,8.732840061187744
1617990427.63947,-17.91292,8.748470067977905
1617990427.65509,-18.30363,8.764090061187744
1617990427.67072,-19.10439,8.779720067977905
1617990427.68634,-20.33334,8.795340061187744
1617990427.70197,-21.79195,8.810970067977905
1617990427.71759,-23.12016,8.826590061187744
1617990427.73322,-23.85172,8.842220067977905
1617990427.74885,-23.55525,8.857850074768066
1617990427.76447,-21.99271,8.873470067977905
1617990427.7801,-19.16281,8.889100074768066
1617990427.79572,-15.36282,8.904720067977905
1617990427.81135,-11.06683,8.920350074768066
1617990427.82697,-6.833466,8.935970067977905
1617990427.8426,-3.178314,8.951600074768066
1617990427.85823,-0.4633331,8.967230081558228
1617990427.87385,1.152176,8.982850074768066
1617990427.88948,1.761887,8.998480081558228
1617990427.9051,1.577087,9.014100074768066
1617990427.92073,0.8831635,9.029730081558228
1617990427.93635,-0.1181793,9.045350074768066
1617990427.95198,-1.293015,9.060980081558228
1617990427.96761,-2.639832,9.07660984992981
1617990427.98323,-4.183533,9.092230081558228
1617990427.99886,-5.898895,9.10785984992981
1617990428.01448,-7.682602,9.123480081558228
1617990428.03011,-9.283875,9.13910984992981
1617990428.04573,-10.49925,9.154730081558228
1617990428.06136,-11.12115,9.17035984992981
1617990428.07699,-11.08998,9.18598985671997
1617990428.09261,-10.44032,9.20160984992981
1617990428.10824,-9.268173,9.21723985671997
1617990428.12386,-7.624313,9.23285984992981
1617990428.13949,-5.447083,9.24848985671997
1617990428.15511,-2.503769,9.26410984992981
1617990428.17074,1.562637,9.27973985671997
1617990428.18637,7.003891,9.295369863510132
1617990428.20199,13.97549,9.31098985671997
1617990428.21762,22.37424,9.326619863510132
1617990428.23324,31.93808,9.34223985671997
1617990428.24887,42.22935,9.357869863510132
1617990428.26449,52.71326,9.37348985671997
1617990428.28012,62.70972,9.389119863510132
1617990428.29575,71.38992,9.404749870300293
1617990428.31137,77.93338,9.420369863510132
1617990428.327,81.59343,9.435999870300293
1617990428.34262,81.94685,9.451619863510132
1617990428.35825,78.96227,9.467249870300293
1617990428.37387,72.98712,9.482869863510132
1617990428.3895,64.61002,9.498499870300293
1617990428.40513,54.48196,9.514129877090454
1617990428.42075,43.24771,9.529749870300293
1617990428.43638,31.51793,9.545379877090454
1617990428.452,19.80673,9.560999870300293
1617990428.46763,8.381393,9.576629877090454
1617990428.48325,-2.675446,9.592249870300293
1617990428.49888,-13.5063,9.607879877090454
1617990428.51451,-24.34253,9.623509883880615
1617990428.53013,-35.28824,9.639129877090454
1617990428.54576,-46.14778,9.654759883880615
1617990428.56138,-56.32722,9.670379877090454
1617990428.57701,-64.97646,9.686009883880615
1617990428.59263,-71.35948,9.701629877090454
1617990428.60826,-75.22836,9.717259883880615
1617990428.62389,-76.74449,9.732889890670776
1617990428.63951,-76.47301,9.748509883880615
1617990428.65514,-74.97456,9.764139890670776
1617990428.67076,-72.55896,9.779759883880615
1617990428.68639,-69.28087,9.795389890670776
1617990428.70201,-64.86075,9.811009883880615
1617990428.71764,-58.79228,9.826639890670776
1617990428.73327,-50.73662,9.842269897460938
1617990428.74889,-40.66202,9.857889890670776
1617990428.76452,-28.64146,9.873519897460938
1617990428.78014,-14.81245,9.889139890670776
1617990428.79577,0.6278687,9.904769897460938
1617990428.81139,17.31306,9.920389890670776
1617990428.82702,34.23531,9.936019897460938
1617990428.84265,50.08624,9.951649904251099
1617990428.85827,63.96591,9.967269897460938
1617990428.8739,75.22684,9.982899904251099
1617990428.88952,83.68446,9.998519897460938
1617990428.90515,90.04466,10.014149904251099
1617990428.92077,95.52916,10.029769897460938
1617990428.9364,101.3395,10.045399904251099
1617990428.95203,108.1302,10.06102991104126
1617990428.96765,115.223,10.076649904251099
1617990428.98328,121.4829,10.09227991104126
1617990428.9989,126.7008,10.107899904251099
1617990429.01453,130.6877,10.12352991104126
1617990429.03015,132.9097,10.139149904251099
1617990429.04578,132.8931,10.15477991104126
1617990429.06141,130.0219,10.170409917831421
1617990429.07703,123.6181,10.18602991104126
1617990429.09266,113.2423,10.201659917831421
1617990429.10828,98.07739,10.21727991104126
1617990429.12391,77.84752,10.232909917831421
1617990429.13953,53.96883,10.24852991104126
1617990429.15516,27.02979,10.264159917831421
1617990429.17079,-4.018845,10.279789924621582
1617990429.18641,-40.54283,10.295409917831421
1617990429.20204,-83.32449,10.311039924621582
1617990429.21766,-131.6415,10.326659917831421
1617990429.23329,-182.95,10.342289924621582
1617990429.24891,-234.3555,10.357909917831421
1617990429.26454,-282.4542,10.373539924621582
1617990429.28017,-322.4083,10.389169931411743
1617990429.29579,-351.3402,10.404789924621582
1617990429.31142,-369.1786,10.420419931411743
1617990429.32704,-377.0294,10.436039924621582
1617990429.34267,-376.4429,10.451669931411743
1617990429.35829,-368.8154,10.467289924621582
1617990429.37392,-348.2204,10.482919931411743
1617990429.38955,-310.8691,10.498549938201904
1617990429.40517,-267.163,10.514169931411743
1617990429.4208,-223.3014,10.529799938201904
1617990429.43642,-178.8357,10.545419931411743
1617990429.45205,-134.6856,10.561049938201904
1617990429.46767,-91.7442,10.576669931411743
1617990429.4833,-50.74741,10.592299938201904
1617990429.49893,-12.2934,10.607929944992065
1617990429.51455,23.05871,10.623549938201904
1617990429.53018,53.85876,10.639179944992065
1617990429.5458,78.87724,10.654799938201904
1617990429.56143,99.24159,10.670429944992065
1617990429.57705,115.9823,10.686049938201904
1617990429.59268,129.2163,10.701679944992065
1617990429.60831,139.2853,10.717309951782227
1617990429.62393,146.6315,10.732929944992065
1617990429.63956,151.6521,10.748559951782227
1617990429.65518,154.6062,10.764179944992065
1617990429.67081,155.1889,10.779809951782227
1617990429.68643,153.1743,10.795429944992065
1617990429.70206,149.9323,10.811059951782227
1617990429.71769,146.5107,10.826689958572388
1617990429.73331,142.982,10.842309951782227
1617990429.74894,139.4142,10.857939958572388
1617990429.76456,135.8753,10.873559951782227
1617990429.78019,132.3061,10.889189958572388
1617990429.79582,128.7849,10.904819965362549
1617990429.81144,125.6682,10.920439958572388
1617990429.82707,123.621,10.936069965362549
1617990429.84269,124.4043,10.951689958572388
1617990429.85832,129.3887,10.967319965362549
1617990429.87394,138.9695,10.982939958572388
1617990429.88957,153.0186,10.998569965362549
1617990429.9052,170.916,11.01419997215271
1617990429.92082,191.1412,11.029819965362549
1617990429.93645,209.0178,11.04544997215271
1617990429.95207,219.1965,11.061069965362549
1617990429.9677,216.1565,11.07669997215271
1617990429.98332,196.1325,11.092319965362549
1617990429.99895,158.1477,11.10794997215271
1617990430.01458,104.61,11.123579978942871
1617990430.0302,41.15419,11.13919997215271
1617990430.04583,-24.63723,11.154829978942871
1617990430.06145,-85.65945,11.17044997215271
1617990430.07708,-138.2854,11.186079978942871
1617990430.0927,-180.3768,11.20169997215271
1617990430.10833,-211.2998,11.217329978942871
1617990430.12396,-231.4661,11.232959985733032
1617990430.13958,-241.9432,11.248579978942871
1617990430.15521,-244.0638,11.264209985733032
1617990430.17083,-239.1777,11.279829978942871
1617990430.18646,-226.5203,11.295459985733032
1617990430.20208,-206.7527,11.311079978942871
1617990430.21771,-181.3193,11.326709985733032
1617990430.23334,-151.7008,11.342339992523193
1617990430.24896,-119.6723,11.357959985733032
1617990430.26459,-87.03589,11.373589992523193
1617990430.28021,-55.35025,11.389209985733032
1617990430.29584,-25.8837,11.404839992523193
1617990430.31146,0.2447586,11.420459985733032
1617990430.32709,22.0925,11.436089992523193
1617990430.34272,38.4711,11.451719999313354
1617990430.35834,48.6019,11.467339992523193
1617990430.37397,52.64162,11.482969999313354
1617990430.38959,51.24611,11.498589992523193
1617990430.40522,45.42364,11.514219999313354
1617990430.42084,36.30523,11.529839992523193
1617990430.43647,25.07976,11.545469999313354
1617990430.4521,12.78706,11.561100006103516
1617990430.46772,0.4045525,11.576719999313354
1617990430.48335,-11.54632,11.592350006103516
1617990430.49897,-22.74366,11.607969999313354
1617990430.5146,-32.74871,11.623600006103516
1617990430.53022,-41.24178,11.639219999313354
1617990430.54585,-47.77208,11.654850006103516
1617990430.56148,-51.76896,11.670480012893677
1617990430.5771,-52.59036,11.686100006103516
1617990430.59273,-49.82734,11.701730012893677
1617990430.60835,-43.48447,11.717350006103516
1617990430.62398,-34.29744,11.732980012893677
1617990430.6396,-23.29597,11.748600006103516
1617990430.65523,-11.33379,11.764230012893677
1617990430.67086,1.01017,11.779860019683838
1617990430.68648,13.56371,11.795480012893677
1617990430.70211,26.3285,11.811110019683838
1617990430.71773,39.26971,11.826730012893677
1617990430.73336,52.08623,11.842360019683838
1617990430.74898,64.20057,11.857980012893677
1617990430.76461,74.75472,11.873610019683838
1617990430.78024,82.91132,11.889240026473999
1617990430.79586,88.08662,11.904860019683838
1617990430.81149,90.00648,11.920490026473999
1617990430.82711,88.78302,11.936110019683838
1617990430.84274,84.84676,11.951740026473999
1617990430.85836,78.82083,11.967360019683838
1617990430.87399,71.49913,11.982990026473999
1617990430.88962,63.76178,11.99862003326416
1617990430.90524,56.48514,12.014240026473999
1617990430.92087,50.37926,12.02987003326416
1617990430.93649,45.91998,12.045490026473999
1617990430.95212,43.15059,12.06112003326416
1617990430.96774,41.64467,12.076740026473999
1617990430.98337,40.66371,12.09237003326416
1617990430.999,39.24615,12.108000040054321
1617990431.01462,36.5481,12.12362003326416
1617990431.03025,32.00446,12.139250040054321
1617990431.04587,25.47002,12.15487003326416
1617990431.0615,17.14294,12.170500040054321
1617990431.07712,7.498764,12.18612003326416
1617990431.09275,-2.933823,12.201750040054321
1617990431.10838,-13.69647,12.217380046844482
1617990431.124,-24.49554,12.233000040054321
1617990431.13963,-35.10213,12.248630046844482
1617990431.15525,-45.28056,12.264250040054321
1617990431.17088,-54.65442,12.279880046844482
1617990431.1865,-62.75127,12.295500040054321
1617990431.20213,-69.15384,12.311130046844482
1617990431.21776,-73.65544,12.326760053634644
1617990431.23338,-76.27258,12.342380046844482
1617990431.24901,-77.19707,12.358010053634644
1617990431.26463,-76.65587,12.373630046844482
1617990431.28026,-74.69527,12.389260053634644
1617990431.29588,-71.19888,12.404880046844482
1617990431.31151,-65.91553,12.420510053634644
1617990431.32714,-58.71892,12.436140060424805
1617990431.34276,-49.59264,12.451760053634644
1617990431.35839,-38.77449,12.467390060424805
1617990431.37401,-26.61209,12.483010053634644
1617990431.38964,-13.51718,12.498640060424805
1617990431.40526,0.057724,12.514260053634644
1617990431.42089,13.67578,12.529890060424805
1617990431.43652,26.88829,12.545520067214966
1617990431.45214,39.42284,12.561140060424805
1617990431.46777,51.10757,12.576770067214966
1617990431.48339,62.04219,12.592390060424805
1617990431.49902,72.42856,12.608020067214966
1617990431.51464,82.50891,12.623640060424805
1617990431.53027,92.39848,12.639270067214966
1617990431.5459,101.958,12.654900074005127
1617990431.56152,110.8598,12.670520067214966
1617990431.57715,118.7199,12.686150074005127
1617990431.59277,125.2958,12.701770067214966
1617990431.6084,130.4465,12.717400074005127
1617990431.62402,133.9493,12.733020067214966
1617990431.63965,135.2638,12.748650074005127
1617990431.65528,133.4209,12.764280080795288
1617990431.6709,127.2515,12.779900074005127
1617990431.68653,115.8073,12.795530080795288
1617990431.70215,98.89432,12.811150074005127
1617990431.71778,77.38249,12.826780080795288
1617990431.7334,53.12857,12.842400074005127
1617990431.74903,28.54289,12.858030080795288
1617990431.76466,6.025696,12.87365984916687
1617990431.78028,-12.45676,12.889280080795288
1617990431.79591,-25.65733,12.90490984916687
1617990431.81153,-33.02783,12.920530080795288
1617990431.82716,-34.79791,12.93615984916687
1617990431.84278,-31.99811,12.951780080795288
1617990431.85841,-26.41489,12.96740984916687
1617990431.87404,-20.36743,12.983039855957031
1617990431.88966,-16.15073,12.99865984916687
1617990431.90529,-15.50182,13.014289855957031
1617990431.92091,-19.17421,13.02990984916687
1617990431.93654,-26.87878,13.045539855957031
1617990431.95216,-37.48495,13.06115984916687
1617990431.96779,-49.51289,13.076789855957031
1617990431.98342,-61.63031,13.092419862747192
1617990431.99904,-72.95604,13.108039855957031
1617990432.01467,-83.25398,13.123669862747192
1617990432.03029,-92.74667,13.139289855957031
1617990432.04592,-101.8958,13.154919862747192
1617990432.06155,-111.0999,13.170549869537354
1617990432.07717,-120.4356,13.186169862747192
1617990432.0928,-129.482,13.201799869537354
1617990432.10842,-137.3327,13.217419862747192
1617990432.12405,-142.8115,13.233049869537354
1617990432.13967,-144.7645,13.248669862747192
1617990432.1553,-142.4122,13.264299869537354
1617990432.17093,-135.485,13.279929876327515
1617990432.18655,-124.2718,13.295549869537354
1617990432.20218,-109.4846,13.311179876327515
1617990432.2178,-92.09978,13.326799869537354
1617990432.23343,-73.13657,13.342429876327515
1617990432.24905,-53.51653,13.358049869537354
1617990432.26468,-33.97925,13.373679876327515
1617990432.28031,-15.02347,13.389309883117676
1617990432.29593,3.035828,13.404929876327515
1617990432.31156,19.96581,13.420559883117676
1617990432.32718,35.59372,13.436179876327515
1617990432.34281,49.72824,13.451809883117676
1617990432.35843,62.19748,13.467429876327515
1617990432.37406,72.89149,13.483059883117676
1617990432.38969,81.89854,13.498689889907837
1617990432.40531,89.48415,13.514309883117676
1617990432.42094,96.03873,13.529939889907837
1617990432.43656,101.988,13.545559883117676
1617990432.45219,107.5507,13.561189889907837
1617990432.46781,112.8017,13.576809883117676
1617990432.48344,117.5916,13.592439889907837
1617990432.49907,121.6731,13.608069896697998
1617990432.51469,124.7513,13.623689889907837
1617990432.53032,126.5137,13.639319896697998
1617990432.54594,126.6286,13.654939889907837
1617990432.56157,124.7576,13.670569896697998
1617990432.57719,120.6815,13.686189889907837
1617990432.59282,114.3805,13.701819896697998
1617990432.60845,106.2293,13.71744990348816
1617990432.62407,96.95322,13.733069896697998
1617990432.6397,87.55136,13.74869990348816
1617990432.65532,79.05493,13.764319896697998
1617990432.67095,72.38832,13.77994990348816
1617990432.68657,68.16197,13.795569896697998
1617990432.7022,66.6749,13.81119990348816
1617990432.71783,67.88229,13.82682991027832
1617990432.73345,71.37143,13.84244990348816
1617990432.74908,76.3708,13.85807991027832
1617990432.7647,81.68884,13.87369990348816
1617990432.78033,85.80409,13.88932991027832
1617990432.79595,87.1154,13.90494990348816
1617990432.81158,84.35768,13.92057991027832
1617990432.82721,77.02855,13.936209917068481
1617990432.84283,65.61723,13.95182991027832
1617990432.85846,51.57826,13.967459917068481
1617990432.87408,36.83198,13.98307991027832
1617990432.88971,23.19734,13.998709917068481
1617990432.90533,11.75166,14.01432991027832
1617990432.92096,2.478256,14.029959917068481
1617990432.93659,-5.476456,14.045589923858643
1617990432.95221,-13.21846,14.061209917068481
1617990432.96784,-21.37312,14.076839923858643
1617990432.98346,-29.73508,14.092459917068481
1617990432.99909,-37.3115,14.108089923858643
1617990433.01471,-42.94547,14.123709917068481
1617990433.03034,-45.9663,14.139339923858643
1617990433.04597,-46.58735,14.154969930648804
1617990433.06159,-45.8041,14.170589923858643
1617990433.07722,-44.79456,14.186219930648804
1617990433.09284,-44.3792,14.201839923858643
1617990433.10847,-44.79346,14.217469930648804
1617990433.12409,-45.77186,14.233089923858643
1617990433.13972,-46.97849,14.248719930648804
1617990433.15535,-48.23929,14.264349937438965
1617990433.17097,-49.47132,14.279969930648804
1617990433.1866,-50.45451,14.295599937438965
1617990433.20222,-50.55222,14.311219930648804
1617990433.21785,-48.74862,14.326849937438965
1617990433.23347,-44.16354,14.342469930648804
1617990433.2491,-36.57945,14.358099937438965
1617990433.26473,-26.70024,14.373729944229126
1617990433.28035,-16.01609,14.389349937438965
1617990433.29598,-6.273605,14.404979944229126
1617990433.3116,1.162415,14.420599937438965
1617990433.32723,5.648796,14.436229944229126
1617990433.34285,7.182098,14.451849937438965
1617990433.35848,6.234772,14.467479944229126
1617990433.37411,3.3451,14.483109951019287
1617990433.38973,-0.9882889,14.498729944229126
1617990433.40536,-6.19397,14.514359951019287
1617990433.42098,-11.55186,14.529979944229126
1617990433.43661,-16.26131,14.545609951019287
1617990433.45223,-19.62534,14.561229944229126
1617990433.46786,-21.25009,14.576859951019287
1617990433.48349,-21.25067,14.592489957809448
1617990433.49911,-20.11945,14.608109951019287
1617990433.51474,-18.49297,14.623739957809448
1617990433.53036,-16.88277,14.639359951019287
1617990433.54599,-15.45862,14.654989957809448
1617990433.56161,-14.23834,14.670609951019287
1617990433.57724,-13.32216,14.686239957809448
1617990433.59287,-13.024,14.70186996459961
1617990433.60849,-13.86946,14.717489957809448
1617990433.62412,-16.19061,14.73311996459961
1617990433.63974,-19.92682,14.748739957809448
1617990433.65537,-24.43669,14.76436996459961
1617990433.67099,-28.71727,14.779989957809448
1617990433.68662,-31.75629,14.79561996459961
1617990433.70225,-33.0076,14.81124997138977
1617990433.71787,-32.53181,14.82686996459961
1617990433.7335,-30.87204,14.84249997138977
1617990433.74912,-28.79362,14.85811996459961
1617990433.76475,-26.87593,14.87374997138977
1617990433.78037,-25.38733,14.88936996459961
1617990433.796,-24.25031,14.90499997138977
1617990433.81163,-23.2014,14.920629978179932
1617990433.82725,-21.88611,14.93624997138977
1617990433.84288,-19.97398,14.951879978179932
1617990433.8585,-17.19159,14.96749997138977
1617990433.87413,-13.30283,14.983129978179932
1617990433.88975,-8.231842,14.99874997138977
1617990433.90538,-2.134125,15.014379978179932
1617990433.92101,4.555359,15.030009984970093
1617990433.93663,11.13196,15.045629978179932
1617990433.95226,16.65738,15.061259984970093
1617990433.96788,20.05811,15.076879978179932
1617990433.98351,20.2323,15.092509984970093
1617990433.99913,16.29245,15.108129978179932
1617990434.01476,7.915619,15.123759984970093
1617990434.03039,-4.488312,15.139389991760254
1617990434.04601,-19.66495,15.155009984970093
1617990434.06164,-35.8233,15.170639991760254
1617990434.07726,-51.10138,15.186259984970093
1617990434.09289,-63.98639,15.201889991760254
1617990434.10851,-73.56335,15.217509984970093
1617990434.12414,-79.45981,15.233139991760254
1617990434.13977,-81.66907,15.248769998550415
1617990434.15539,-80.31827,15.264389991760254
1617990434.17102,-75.74768,15.280019998550415
1617990434.18664,-68.53217,15.295639991760254
1617990434.20227,-59.6384,15.311269998550415
1617990434.2179,-50.29419,15.326900005340576
1617990434.23352,-41.68158,15.342519998550415
1617990434.24915,-34.57712,15.358150005340576
1617990434.26477,-29.14954,15.373769998550415
1617990434.2804,-24.98984,15.389400005340576
1617990434.29602,-21.40659,15.405019998550415
1617990434.31165,-17.77109,15.420650005340576
1617990434.32728,-13.75748,15.436280012130737
1617990434.3429,-9.37384,15.451900005340576
1617990434.35853,-4.813782,15.467530012130737
1617990434.37415,-0.263092,15.483150005340576
1617990434.38978,4.208527,15.498780012130737
1617990434.4054,8.65686,15.514400005340576
1617990434.42103,13.11398,15.530030012130737
1617990434.43666,17.43002,15.545660018920898
1617990434.45228,21.28467,15.561280012130737
1617990434.46791,24.32806,15.576910018920898
1617990434.48353,26.33972,15.592530012130737
1617990434.49916,27.40918,15.608160018920898
1617990434.51478,27.91858,15.623780012130737
1617990434.53041,28.26392,15.639410018920898
1617990434.54604,28.63611,15.65504002571106
1617990434.56166,28.85971,15.670660018920898
1617990434.57729,28.51022,15.68629002571106
1617990434.59291,27.15689,15.701910018920898
1617990434.60854,24.71893,15.71754002571106
1617990434.62416,21.46423,15.733160018920898
1617990434.63979,17.90378,15.74879002571106
1617990434.65542,14.52136,15.76442003250122
1617990434.67104,11.59372,15.78004002571106
1617990434.68667,9.090851,15.79567003250122
1617990434.70229,6.867493,15.81129002571106
1617990434.71792,4.816772,15.82692003250122
1617990434.73354,2.939209,15.84254002571106
1617990434.74917,1.351166,15.85817003250122
1617990434.7648,0.1546326,15.873800039291382
1617990434.78042,-0.6022949,15.88942003250122
1617990434.79605,-0.9669495,15.905050039291382
1617990434.81167,-1.010345,15.92067003250122
1617990434.8273,-0.8375244,15.936300039291382
1617990434.84292,-0.540863,15.95192003250122
1617990434.85855,-0.1898499,15.967550039291382
1617990434.87418,0.1598511,15.983180046081543
1617990434.8898,0.4620972,15.998800039291382
1617990434.90543,0.636322,16.014430046081543
1617990434.92105,0.5829468,16.030050039291382
1617990434.93668,0.1260376,16.045680046081543
1617990434.9523,-0.9351501,16.061300039291382
1617990434.96793,-2.790466,16.076930046081543
1617990434.98356,-5.519806,16.092560052871704
1617990434.99918,-9.000305,16.108180046081543
1617990435.01481,-12.9003,16.123810052871704
1617990435.03043,-16.75128,16.139430046081543
1617990435.04606,-20.05298,16.155060052871704
1617990435.06168,-22.41086,16.170680046081543
1617990435.07731,-23.61292,16.186310052871704
1617990435.09294,-23.62595,16.201940059661865
1617990435.10856,-22.56546,16.217560052871704
1617990435.12419,-20.67535,16.233190059661865
1617990435.13981,-18.19357,16.248810052871704
1617990435.15544,-15.44205,16.264440059661865
1617990435.17106,-12.63025,16.280060052871704
1617990435.18669,-9.972717,16.295690059661865
1617990435.20232,-7.623047,16.311320066452026
1617990435.21794,-5.70929,16.326940059661865
1617990435.23357,-4.278809,16.342570066452026
1617990435.24919,-3.281433,16.358190059661865
1617990435.26482,-2.574554,16.373820066452026
1617990435.28044,-1.918671,16.389440059661865
1617990435.29607,-1.117615,16.405070066452026
1617990435.3117,0.01757813,16.420700073242188
1617990435.32732,1.549194,16.436320066452026
1617990435.34295,3.394775,16.451950073242188
1617990435.35857,5.37146,16.467570066452026
1617990435.3742,7.245026,16.483200073242188
1617990435.38982,8.830078,16.498820066452026
1617990435.40545,10.02802,16.514450073242188
1617990435.42108,10.83926,16.53008008003235
1617990435.4367,11.32309,16.545700073242188
1617990435.45233,11.59958,16.56133008003235
1617990435.46795,11.82147,16.576950073242188
1617990435.48358,12.09918,16.59258008003235
1617990435.4992,12.45673,16.608200073242188
1617990435.51483,12.84207,16.62383008003235
1617990435.53046,13.12173,16.63945984840393
1617990435.54608,13.14139,16.65508008003235
1617990435.56171,12.81927,16.67070984840393
1617990435.57733,12.19681,16.68633008003235
1617990435.59296,11.44275,16.70195984840393
1617990435.60858,10.69104,16.71758008003235
1617990435.62421,9.966125,16.73320984840393
1617990435.63984,9.146851,16.748839855194092
1617990435.65546,8.000397,16.76445984840393
1617990435.67109,6.369537,16.780089855194092
1617990435.68671,4.265137,16.79570984840393
1617990435.70234,1.963684,16.811339855194092
1617990435.71796,-0.155365,16.82695984840393
1617990435.73359,-1.764954,16.842589855194092
1617990435.74922,-2.780457,16.858219861984253
1617990435.76484,-3.364716,16.873839855194092
1617990435.78047,-3.826355,16.889469861984253
1617990435.79609,-4.446594,16.905089855194092
1617990435.81172,-5.333038,16.920719861984253
1617990435.82734,-6.393463,16.936339855194092
1617990435.84297,-7.392914,16.951969861984253
1617990435.8586,-8.089844,16.967599868774414
1617990435.87422,-8.309753,16.983219861984253
1617990435.88985,-7.979553,16.998849868774414
1617990435.90547,-7.090118,17.014469861984253
1617990435.9211,-5.711945,17.030099868774414
1617990435.93672,-4.000092,17.045719861984253
1617990435.95235,-2.171387,17.061349868774414
1617990435.96798,-0.4768372,17.076979875564575
1617990435.9836,0.9592896,17.092599868774414
1617990435.99923,2.099701,17.108229875564575
1617990436.01485,3.050446,17.123849868774414
1617990436.03048,3.954468,17.139479875564575
1617990436.0461,4.867981,17.155099868774414
1617990436.06173,5.750549,17.170729875564575
1617990436.07736,6.481995,17.186359882354736
1617990436.09298,6.997009,17.201979875564575
1617990436.10861,7.266754,17.217609882354736
1617990436.12423,7.332031,17.233229875564575
1617990436.13986,7.211426,17.248859882354736
1617990436.15548,6.850433,17.264479875564575
1617990436.17111,6.134308,17.280109882354736
1617990436.18674,4.949524,17.295739889144897
1617990436.20236,3.305969,17.311359882354736
1617990436.21799,1.317932,17.326989889144897
1617990436.23361,-0.7893066,17.342609882354736
1617990436.24924,-2.746277,17.358239889144897
1617990436.26486,-4.344757,17.373859882354736
1617990436.28049,-5.473663,17.389489889144897
1617990436.29612,-6.141266,17.40511989593506
1617990436.31174,-6.468414,17.420739889144897
1617990436.32737,-6.685638,17.43636989593506
1617990436.34299,-6.97879,17.451989889144897
1617990436.35862,-7.390472,17.46761989593506
1617990436.37424,-7.770935,17.483239889144897
1617990436.38987,-7.777954,17.49886989593506
1617990436.4055,-7.019379,17.51449990272522
1617990436.42112,-5.25412,17.53011989593506
1617990436.43675,-2.558044,17.54574990272522
1617990436.45237,0.7036438,17.56136989593506
1617990436.468,3.916931,17.57699990272522
1617990436.48362,6.503113,17.59261989593506
1617990436.49925,8.06842,17.60824990272522
1617990436.51488,8.521912,17.62387990951538
1617990436.5305,8.102478,17.63949990272522
1617990436.54613,7.209656,17.65512990951538
1617990436.56175,6.253845,17.67074990272522
1617990436.57738,5.489166,17.68637990951538
1617990436.593,4.99939,17.70199990272522
1617990436.60863,4.687195,17.71762990951538
1617990436.62426,4.400665,17.733259916305542
1617990436.63988,3.985657,17.74887990951538
1617990436.65551,3.407776,17.764509916305542
1617990436.67113,2.782928,17.78012990951538
1617990436.68676,2.294189,17.795759916305542
1617990436.70238,2.143738,17.81137990951538
1617990436.71801,2.426941,17.827009916305542
1617990436.73364,3.036163,17.842639923095703
1617990436.74926,3.745911,17.858259916305542
1617990436.76489,4.287598,17.873889923095703
1617990436.78051,4.467651,17.889509916305542
1617990436.79614,4.27005,17.905139923095703
1617990436.81176,3.86795,17.920759916305542
1617990436.82739,3.501099,17.936389923095703
1617990436.84302,3.378998,17.952019929885864
1617990436.85864,3.610229,17.967639923095703
1617990436.87427,4.167267,17.983269929885864
1617990436.88989,4.966675,17.998889923095703
1617990436.90552,5.932526,18.014519929885864
1617990436.92115,7.023865,18.030149936676025
1617990436.93677,8.157867,18.045769929885864
1617990436.9524,9.215637,18.061399936676025
1617990436.96802,9.954468,18.077019929885864
1617990436.98365,10.07269,18.092649936676025
1617990436.99927,9.334961,18.108269929885864
1617990437.0149,7.619995,18.123899936676025
1617990437.03053,5.066132,18.139529943466187
1617990437.04615,2.057556,18.155149936676025
1617990437.06178,-0.8014832,18.170779943466187
1617990437.0774,-2.939484,18.186399936676025
1617990437.09303,-3.946014,18.202029943466187
1617990437.10865,-3.759399,18.217649936676025
1617990437.12428,-2.649078,18.233279943466187
1617990437.13991,-1.079376,18.248909950256348
1617990437.15553,0.4993286,18.264529943466187
1617990437.17116,1.822113,18.280159950256348
1617990437.18678,2.8638,18.295779943466187
1617990437.20241,3.760315,18.311409950256348
1617990437.21803,4.627167,18.327029943466187
1617990437.23366,5.476807,18.342659950256348
1617990437.24929,6.211548,18.35828995704651
1617990437.26491,6.749817,18.373909950256348
1617990437.28054,7.07489,18.38953995704651
1617990437.29616,7.272766,18.405159950256348
1617990437.31179,7.41391,18.42078995704651
1617990437.32741,7.480438,18.436409950256348
1617990437.34304,7.297119,18.45203995704651
1617990437.35867,6.672211,18.46766996383667
1617990437.37429,5.538879,18.48328995704651
1617990437.38992,4.114044,18.49891996383667
1617990437.40554,2.807892,18.51453995704651
1617990437.42117,2.019928,18.53016996383667
1617990437.43679,1.871002,18.54578995704651
1617990437.45242,2.078033,18.56141996383667
1617990437.46805,2.07785,18.57704997062683
1617990437.48367,1.323395,18.59266996383667
1617990437.4993,-0.3504028,18.60829997062683
1617990437.51492,-2.621704,18.62391996383667
1617990437.53055,-4.778015,18.63954997062683
1617990437.54617,-6.126038,18.65516996383667
1617990437.5618,-6.228363,18.67079997062683
1617990437.57743,-5.105103,18.686429977416992
1617990437.59305,-3.093842,18.70204997062683
1617990437.60868,-0.660614,18.717679977416992
1617990437.6243,1.8349,18.73329997062683
1617990437.63993,4.174042,18.748929977416992
1617990437.65555,6.272644,18.76454997062683
1617990437.67118,8.123383,18.780179977416992
1617990437.68681,9.73877,18.795809984207153
1617990437.70243,11.1994,18.811429977416992
1617990437.71806,12.68546,18.827059984207153
1617990437.73368,14.44107,18.842679977416992
1617990437.74931,16.74026,18.858309984207153
1617990437.76493,19.8197,18.873929977416992
1617990437.78056,23.76157,18.889559984207153
1617990437.79619,28.40042,18.905189990997314
1617990437.81181,33.26349,18.920809984207153
1617990437.82744,37.71609,18.936439990997314
1617990437.84306,41.04489,18.952059984207153
1617990437.85869,42.65933,18.967689990997314
1617990437.87431,42.23355,18.983309984207153
1617990437.88994,39.75256,18.998939990997314
1617990437.90557,35.55978,19.014569997787476
1617990437.92119,30.1568,19.030189990997314
1617990437.93682,24.0387,19.045819997787476
1617990437.95244,17.54364,19.061439990997314
1617990437.96807,10.82983,19.077069997787476
1617990437.98369,3.924561,19.092689990997314
1617990437.99932,-3.159302,19.108319997787476
1617990438.01495,-10.33087,19.123950004577637
1617990438.03057,-17.3905,19.139569997787476
1617990438.0462,-24.04919,19.155200004577637
1617990438.06182,-30.06903,19.170819997787476
1617990438.07745,-35.35101,19.186450004577637
1617990438.09307,-40.00916,19.202069997787476
1617990438.1087,-44.38892,19.217700004577637
1617990438.12433,-48.92804,19.233330011367798
1617990438.13995,-54.07178,19.248950004577637
1617990438.15558,-60.11481,19.264580011367798
1617990438.1712,-67.13135,19.280200004577637
1617990438.18683,-75.00238,19.295830011367798
1617990438.20245,-83.46484,19.311450004577637
1617990438.21808,-92.18195,19.327080011367798
1617990438.23371,-100.7517,19.34271001815796
1617990438.24933,-108.7941,19.358330011367798
1617990438.26496,-115.9616,19.37396001815796
1617990438.28058,-121.9381,19.389580011367798
1617990438.29621,-126.4741,19.40521001815796
1617990438.31183,-129.4651,19.420830011367798
1617990438.32746,-131.0029,19.43646001815796
1617990438.34309,-131.3464,19.45209002494812
1617990438.35871,-130.8565,19.46771001815796
1617990438.37434,-129.7951,19.48334002494812
1617990438.38996,-128.176,19.49896001815796
1617990438.40559,-125.6544,19.51459002494812
1617990438.42121,-121.5826,19.53021001815796
1617990438.43684,-115.26,19.54584002494812
1617990438.45247,-106.1485,19.56147003173828
1617990438.46809,-94.12918,19.57709002494812
1617990438.48372,-79.46616,19.59272003173828
1617990438.49934,-62.64923,19.60834002494812
1617990438.51497,-44.1954,19.62397003173828
1617990438.53059,-24.64572,19.63959002494812
1617990438.54622,-4.552124,19.65522003173828
1617990438.56185,15.34604,19.670850038528442
1617990438.57747,34.13239,19.68647003173828
1617990438.5931,50.91849,19.702100038528442
1617990438.60872,65.0676,19.71772003173828
1617990438.62435,76.40347,19.733350038528442
1617990438.63997,85.20248,19.74897003173828
1617990438.6556,91.93796,19.764600038528442
1617990438.67123,96.98441,19.780230045318604
1617990438.68685,100.4611,19.795850038528442
1617990438.70248,102.3276,19.811480045318604
1617990438.7181,102.5237,19.827100038528442
1617990438.73373,101.2293,19.842730045318604
1617990438.74935,98.85291,19.858350038528442
1617990438.76498,95.86749,19.873980045318604
1617990438.78061,92.6752,19.889610052108765
1617990438.79623,89.42697,19.905230045318604
1617990438.81186,86.13004,19.920860052108765
1617990438.82748,82.76526,19.936480045318604
1617990438.84311,79.37201,19.952110052108765
1617990438.85873,76.01013,19.967730045318604
1617990438.87436,72.61719,19.983360052108765
1617990438.88999,68.93317,19.998990058898926
1617990438.90561,64.50473,20.014610052108765
1617990438.92124,58.8999,20.030240058898926
1617990438.93686,51.86996,20.045860052108765
1617990438.95249,43.54471,20.061490058898926
1617990438.96811,34.44699,20.077110052108765
1617990438.98374,25.28864,20.092740058898926
1617990438.99937,16.68869,20.108370065689087
1617990439.01499,9.06015,20.123990058898926
1617990439.03062,2.538177,20.139620065689087
1617990439.04624,-2.893463,20.155240058898926
1617990439.06187,-7.267761,20.170870065689087
1617990439.0775,-10.58029,20.186500072479248
1617990439.09312,-12.85587,20.202120065689087
1617990439.10875,-14.1918,20.217750072479248
1617990439.12437,-14.82346,20.233370065689087
1617990439.14,-15.01987,20.249000072479248
1617990439.15562,-14.96399,20.264620065689087
1617990439.17125,-14.65744,20.280250072479248
1617990439.18688,-13.94525,20.29588007926941
1617990439.2025,-12.63577,20.311500072479248
1617990439.21813,-10.58212,20.32713007926941
1617990439.23375,-7.726013,20.342750072479248
1617990439.24938,-4.091431,20.35838007926941
1617990439.265,0.3204041,20.374000072479248
1617990439.28063,5.528137,20.38963007926941
1617990439.29626,11.47903,20.40526008605957
1617990439.31188,17.98529,20.42088007926941
1617990439.32751,24.64209,20.43651008605957
1617990439.34313,30.85437,20.45213007926941
1617990439.35876,36.04208,20.46776008605957
1617990439.37438,39.82004,20.48338007926941
1617990439.39001,42.08871,20.49901008605957
1617990439.40564,43.06177,20.514639854431152
1617990439.42126,43.13651,20.53026008605957
1617990439.43689,42.72922,20.545889854431152
1617990439.45251,42.09836,20.56151008605957
1617990439.46814,41.29184,20.577139854431152
1617990439.48376,40.14252,20.59276008605957
1617990439.49939,38.41745,20.608389854431152
1617990439.51502,35.95044,20.624019861221313
1617990439.53064,32.75092,20.639639854431152
1617990439.54627,29.10632,20.655269861221313
1617990439.56189,25.43213,20.670889854431152
1617990439.57752,22.19885,20.686519861221313
1617990439.59314,19.68259,20.702139854431152
1617990439.60877,17.92865,20.717769861221313
1617990439.6244,16.7222,20.733399868011475
1617990439.64002,15.82187,20.749019861221313
1617990439.65565,15.10181,20.764649868011475
1617990439.67127,14.61606,20.780269861221313
1617990439.6869,14.58939,20.795899868011475
1617990439.70252,15.14624,20.811519861221313
1617990439.71815,16.2507,20.827149868011475
1617990439.73378,17.6377,20.842779874801636
1617990439.7494,18.84573,20.858399868011475
1617990439.76503,19.39059,20.874029874801636
1617990439.78065,18.87299,20.889649868011475
1617990439.79628,16.99753,20.905279874801636
1617990439.8119,13.55258,20.920899868011475
1617990439.82753,8.536621,20.936529874801636
1617990439.84316,2.212708,20.952159881591797
1617990439.85878,-4.771851,20.967779874801636
1617990439.87441,-11.4144,20.983409881591797
1617990439.89003,-16.668,20.999029874801636
1617990439.90566,-19.73923,21.014659881591797
1617990439.92128,-20.43533,21.030279874801636
1617990439.93691,-19.24094,21.045909881591797
1617990439.95254,-17.09592,21.061539888381958
1617990439.96816,-14.96127,21.077159881591797
1617990439.98379,-13.49982,21.092789888381958
1617990439.99941,-12.85803,21.108409881591797
1617990440.01504,-12.77673,21.124039888381958
1617990440.03066,-12.99609,21.139659881591797
1617990440.04629,-13.52615,21.155289888381958
1617990440.06192,-14.87003,21.17091989517212
1617990440.07754,-17.85852,21.186539888381958
1617990440.09317,-23.23447,21.20216989517212
1617990440.10879,-31.1673,21.217789888381958
1617990440.12442,-40.97217,21.23341989517212
1617990440.14004,-51.12918,21.249039888381958
1617990440.15567,-59.66812,21.26466989517212
1617990440.1713,-64.85715,21.28029990196228
1617990440.18692,-65.64474,21.29591989517212
1617990440.20255,-62.06085,21.31154990196228
1617990440.21817,-55.02728,21.32716989517212
1617990440.2338,-45.93494,21.34279990196228
1617990440.24942,-36.16632,21.35841989517212
1617990440.26505,-26.69348,21.37404990196228
1617990440.28068,-18.05103,21.38967990875244
1617990440.2963,-10.35541,21.40529990196228
1617990440.31193,-3.694153,21.42092990875244
1617990440.32755,1.800842,21.43654990196228
1617990440.34318,5.826721,21.45217990875244
1617990440.3588,8.058411,21.46779990196228
1617990440.37443,8.375427,21.48342990875244
1617990440.39006,6.986511,21.499059915542603
1617990440.40568,4.596375,21.51467990875244
1617990440.42131,2.281006,21.530309915542603
1617990440.43693,1.402405,21.54592990875244
1617990440.45256,3.301147,21.561559915542603
1617990440.46818,9.138123,21.57717990875244
1617990440.48381,19.57062,21.592809915542603
1617990440.49944,34.50433,21.608439922332764
1617990440.51506,52.95807,21.624059915542603
1617990440.53069,72.98755,21.639689922332764
1617990440.54631,91.94629,21.655309915542603
1617990440.56194,107.0557,21.670939922332764
1617990440.57756,116.1014,21.686559915542603
1617990440.59319,117.9919,21.702189922332764
1617990440.60882,112.9745,21.717819929122925
1617990440.62444,102.3554,21.733439922332764
1617990440.64007,87.97968,21.749069929122925
1617990440.65569,71.67786,21.764689922332764
1617990440.67132,54.97723,21.780319929122925
1617990440.68694,39.18805,21.795939922332764
1617990440.70257,25.54395,21.811569929122925
1617990440.7182,15.19952,21.827199935913086
1617990440.73382,8.982605,21.842819929122925
1617990440.74945,7.075073,21.858449935913086
1617990440.76507,8.823547,21.874069929122925
1617990440.7807,12.85645,21.889699935913086
1617990440.79632,17.62793,21.905319929122925
1617990440.81195,21.86633,21.920949935913086
1617990440.82758,24.97205,21.936579942703247
1617990440.8432,26.92047,21.952199935913086
1617990440.85883,27.92786,21.967829942703247
1617990440.87445,28.02466,21.983449935913086
1617990440.89008,26.82349,21.999079942703247
1617990440.9057,23.68561,22.014699935913086
1617990440.92133,17.97046,22.030329942703247
1617990440.93696,9.477722,22.045959949493408
1617990440.95258,-1.417297,22.061579942703247
1617990440.96821,-13.74902,22.077209949493408
1617990440.98383,-26.17883,22.092829942703247
1617990440.99946,-37.34143,22.108459949493408
1617990441.01508,-46.17926,22.124079942703247
1617990441.03071,-52.20447,22.139709949493408
1617990441.04634,-55.51025,22.15533995628357
1617990441.06196,-56.71368,22.170959949493408
1617990441.07759,-56.57257,22.18658995628357
1617990441.09321,-55.68518,22.202209949493408
1617990441.10884,-54.30084,22.21783995628357
1617990441.12446,-52.34344,22.233459949493408
1617990441.14009,-49.59143,22.24908995628357
1617990441.15572,-45.89465,22.26471996307373
1617990441.17134,-41.32245,22.28033995628357
1617990441.18697,-36.06909,22.29596996307373
1617990441.20259,-30.2702,22.31158995628357
1617990441.21822,-23.80359,22.32721996307373
1617990441.23384,-16.31317,22.34283995628357
1617990441.24947,-7.455688,22.35846996307373
1617990441.2651,2.756165,22.37409996986389
1617990441.28072,13.73743,22.38971996307373
1617990441.29635,24.44611,22.40534996986389
1617990441.31197,33.71448,22.42096996307373
1617990441.3276,40.86682,22.43659996986389
1617990441.34323,46.03308,22.452229976654053
1617990441.35885,50.09845,22.46784996986389
1617990441.37448,54.23334,22.483479976654053
1617990441.3901,59.26923,22.49909996986389
1617990441.40573,65.37201,22.514729976654053
1617990441.42135,72.06744,22.53034996986389
1617990441.43698,78.91864,22.545979976654053
1617990441.45261,85.91119,22.561609983444214
1617990441.46823,93.39221,22.577229976654053
1617990441.48386,101.3057,22.592859983444214
1617990441.49948,108.3797,22.608479976654053
1617990441.51511,112.012,22.624109983444214
1617990441.53073,109.2501,22.639729976654053
1617990441.54636,98.42444,22.655359983444214
1617990441.56199,80.23499,22.670989990234375
1617990441.57761,57.70837,22.686609983444214
1617990441.59324,34.37872,22.702239990234375
1617990441.60886,12.46368,22.717859983444214
1617990441.62449,-8.594604,22.733489990234375
1617990441.64011,-31.64612,22.749109983444214
1617990441.65574,-60.15552,22.764739990234375
1617990441.67137,-96.43176,22.780369997024536
1617990441.68699,-140.9492,22.795989990234375
1617990441.70262,-193.0082,22.811619997024536
1617990441.71824,-251.399,22.827239990234375
1617990441.73387,-314.6646,22.842869997024536
1617990441.74949,-380.1432,22.858489990234375
1617990441.76512,-442.6696,22.874119997024536
1617990441.78075,-494.2869,22.889750003814697
1617990441.79637,-525.8129,22.905369997024536
1617990441.812,-530.0602,22.921000003814697
1617990441.82762,-504.6417,22.936619997024536
1617990441.84325,-453.5162,22.952250003814697
1617990441.85887,-385.4618,22.967869997024536
1617990441.8745,-311.0386,22.983500003814697
1617990441.89013,-238.9181,22.99913001060486
1617990441.90575,-173.4457,23.014750003814697
1617990441.92138,-114.0139,23.03038001060486
1617990441.937,-56.61401,23.046000003814697
1617990441.95263,3.543762,23.06163001060486
1617990441.96825,68.94342,23.077250003814697
1617990441.98388,137.3578,23.09288001060486
1617990441.99951,201.4595,23.10851001739502
1617990442.01513,250.1477,23.12413001060486
1617990442.03076,271.6252,23.13976001739502
1617990442.04638,257.0809,23.15538001060486
1617990442.06201,203.6136,23.17101001739502
1617990442.07763,115.6606,23.18663001060486
1617990442.09326,4.159119,23.20226001739502
1617990442.10889,-115.6315,23.21789002418518
1617990442.12451,-227.6967,23.23351001739502
1617990442.14014,-318.3367,23.24914002418518
1617990442.15576,-378.5608,23.26476001739502
1617990442.17139,-405.0234,23.28039002418518
1617990442.18701,-399.3895,23.29601001739502
1617990442.20264,-367.0066,23.31164002418518
1617990442.21827,-314.9604,23.327270030975342
1617990442.23389,-250.3499,23.34289002418518
1617990442.24952,-179.0396,23.358520030975342
1617990442.26514,-105.1718,23.37414002418518
1617990442.28077,-31.32654,23.389770030975342
1617990442.29639,40.87482,23.40539002418518
1617990442.31202,109.999,23.421020030975342
1617990442.32765,174.605,23.436650037765503
1617990442.34327,232.9038,23.452270030975342
1617990442.3589,282.988,23.467900037765503
1617990442.37452,323.1001,23.483520030975342
1617990442.39015,352.1244,23.499150037765503
1617990442.40577,369.8146,23.514770030975342
1617990442.4214,376.9134,23.530400037765503
1617990442.43703,374.6705,23.546030044555664
1617990442.45265,364.6238,23.561650037765503
1617990442.46828,348.595,23.577280044555664
1617990442.4839,328.7448,23.592900037765503
1617990442.49953,307.7554,23.608530044555664
1617990442.51515,288.3849,23.624150037765503
1617990442.53078,272.4924,23.639780044555664
1617990442.54641,260.0724,23.655410051345825
1617990442.56203,248.8989,23.671030044555664
1617990442.57766,235.0992,23.686660051345825
1617990442.59328,214.7133,23.702280044555664
1617990442.60891,185.3905,23.717910051345825
1617990442.62453,147.3617,23.733530044555664
1617990442.64016,103.3635,23.749160051345825
1617990442.65579,57.53778,23.764790058135986
1617990442.67141,13.63998,23.780410051345825
1617990442.68704,-26.27377,23.796040058135986
1617990442.70266,-62.24182,23.811660051345825
1617990442.71829,-95.65839,23.827290058135986
1617990442.73391,-127.7986,23.842910051345825
1617990442.74954,-158.4897,23.858540058135986
1617990442.76517,-185.6822,23.874170064926147
1617990442.78079,-206.1148,23.889790058135986
1617990442.79642,-216.5384,23.905420064926147
1617990442.81204,-214.8587,23.921040058135986
1617990442.82767,-200.6143,23.936670064926147
1617990442.84329,-174.7151,23.952290058135986
1617990442.85892,-138.7608,23.967920064926147
1617990442.87455,-94.53403,23.98355007171631
1617990442.89017,-44.09644,23.999170064926147
1617990442.9058,9.781128,24.01480007171631
1617990442.92142,63.12207,24.030420064926147
1617990442.93705,110.8116,24.04605007171631
1617990442.95267,147.3828,24.061670064926147
1617990442.9683,168.3411,24.07730007171631
1617990442.98393,171.4223,24.09293007850647
1617990442.99955,157.4489,24.10855007171631
1617990443.01518,130.3085,24.12418007850647
1617990443.0308,96.0022,24.13980007171631
1617990443.04643,61.10614,24.15543007850647
1617990443.06205,31.22076,24.17105007171631
1617990443.07768,9.665863,24.18668007850647
1617990443.09331,-2.832825,24.20231008529663
1617990443.10893,-7.556274,24.21793007850647
1617990443.12456,-6.585236,24.23356008529663
1617990443.14018,-1.662964,24.24918007850647
1617990443.15581,6.469574,24.26481008529663
1617990443.17143,17.78543,24.28043007850647
1617990443.18706,32.01791,24.29606008529663
1617990443.20269,47.73438,24.311689853668213
1617990443.21831,61.96301,24.32731008529663
1617990443.23394,70.93793,24.342939853668213
1617990443.24956,71.59366,24.35856008529663
1617990443.26519,63.18997,24.374189853668213
1617990443.28081,47.996,24.38981008529663
1617990443.29644,30.47952,24.405439853668213
1617990443.31207,15.41748,24.421069860458374
1617990443.32769,5.968201,24.436689853668213
1617990443.34332,2.639923,24.452319860458374
1617990443.35894,3.79303,24.467939853668213
1617990443.37457,7.118896,24.483569860458374
1617990443.39019,11.06052,24.499189853668213
1617990443.40582,15.38562,24.514819860458374
1617990443.42145,20.68082,24.530449867248535
1617990443.43707,27.24719,24.546069860458374
1617990443.4527,34.29221,24.561699867248535
1617990443.46832,40.21674,24.577319860458374
1617990443.48395,43.64249,24.592949867248535
1617990443.49957,44.51907,24.608569860458374
1617990443.5152,44.41232,24.624199867248535
1617990443.53083,45.75812,24.639829874038696
1617990443.54645,50.41498,24.655449867248535
1617990443.56208,58.50076,24.671079874038696
1617990443.5777,68.01703,24.686699867248535
1617990443.59333,75.47012,24.702329874038696
1617990443.60895,77.30695,24.717949867248535
1617990443.62458,71.42416,24.733579874038696
1617990443.64021,58.06262,24.749209880828857
1617990443.65583,39.93167,24.764829874038696
1617990443.67146,21.42169,24.780459880828857
1617990443.68708,7.09552,24.796079874038696
1617990443.70271,0.1110229,24.811709880828857
1617990443.71833,1.030884,24.827329874038696
1617990443.73396,7.805542,24.842959880828857
1617990443.74959,16.78577,24.85858988761902
1617990443.76521,24.46594,24.874209880828857
1617990443.78084,29.32098,24.88983988761902
1617990443.79646,32.69043,24.905459880828857
1617990443.81209,38.23645,24.92108988761902
1617990443.82771,50.3197,24.936709880828857
1617990443.84334,72.12714,24.95233988761902
1617990443.85897,104.4378,24.96796989440918
1617990443.87459,145.5873,24.98358988761902
1617990443.89022,192.5415,24.99921989440918
1617990443.90584,241.7264,25.01483988761902
1617990443.92147,289.5818,25.03046989440918
1617990443.9371,332.4356,25.04609990119934
1617990443.95272,366.0577,25.06171989440918
1617990443.96835,385.8207,25.07734990119934
1617990443.98397,387.7158,25.09296989440918
1617990443.9996,369.71,25.10859990119934
1617990444.01522,332.6832,25.12421989440918
1617990444.03085,280.6348,25.13984990119934
1617990444.04648,219.4514,25.155479907989502
1617990444.0621,155.2291,25.17109990119934
1617990444.07773,92.73456,25.186729907989502
1617990444.09335,34.5282,25.20234990119934
1617990444.10898,-18.93842,25.217979907989502
1617990444.1246,-68.37598,25.23359990119934
1617990444.14023,-114.6908,25.249229907989502
1617990444.15586,-158.4421,25.264859914779663
1617990444.17148,-199.7513,25.280479907989502
1617990444.18711,-238.5272,25.296109914779663
1617990444.20273,-274.3092,25.311729907989502
1617990444.21836,-305.8231,25.327359914779663
1617990444.23398,-330.585,25.342979907989502
1617990444.24961,-344.9528,25.358609914779663
1617990444.26524,-345.2133,25.374239921569824
1617990444.28086,-329.2891,25.389859914779663
1617990444.29649,-298.2211,25.405489921569824
1617990444.31211,-256.4946,25.421109914779663
1617990444.32774,-210.8915,25.436739921569824
1617990444.34336,-168.134,25.452359914779663
1617990444.35899,-132.6033,25.467989921569824
1617990444.37462,-105.4019,25.483619928359985
1617990444.39024,-84.63293,25.499239921569824
1617990444.40587,-67.02502,25.514869928359985
1617990444.42149,-49.88977,25.530489921569824
1617990444.43712,-32.08643,25.546119928359985
1617990444.45274,-14.30054,25.561739921569824
1617990444.46837,1.592163,25.577369928359985
1617990444.484,13.39441,25.592999935150146
1617990444.49962,19.70874,25.608619928359985
1617990444.51525,20.64893,25.624249935150146
1617990444.53087,18.53809,25.639869928359985
1617990444.5465,17.85315,25.655499935150146
1617990444.56212,24.4519,25.671119928359985
1617990444.57775,44.27795,25.686749935150146
1617990444.59338,81.51538,25.702379941940308
1617990444.609,136.8264,25.717999935150146
1617990444.62463,206.1771,25.733629941940308
1617990444.64025,281.2242,25.749249935150146
1617990444.65588,350.9274,25.764879941940308
1617990444.6715,404.4897,25.780499935150146
1617990444.68713,434.156,25.796129941940308
1617990444.70276,437.0166,25.81175994873047
1617990444.71838,415.1891,25.827379941940308
1617990444.73401,374.3547,25.84300994873047
1617990444.74963,321.459,25.858629941940308
1617990444.76526,262.6152,25.87425994873047
1617990444.78088,201.9755,25.889879941940308
1617990444.79651,141.6132,25.90550994873047
1617990444.81214,82.24915,25.92113995552063
1617990444.82776,23.93921,25.93675994873047
1617990444.84339,-33.40784,25.95238995552063
1617990444.85901,-89.89307,25.96800994873047
1617990444.87464,-145.5544,25.98363995552063
1617990444.89026,-200.4646,25.99925994873047
1617990444.90589,-254.3308,26.01488995552063
1617990444.92152,-306.645,26.03051996231079
1617990444.93714,-356.8121,26.04613995552063
1617990444.95277,-404.4536,26.06176996231079
1617990444.96839,-449.8386,26.07738995552063
1617990444.98402,-494.4509,26.09301996231079
1617990444.99964,-541.0236,26.10863995552063
1617990445.01527,-592.8525,26.12426996231079
1617990445.0309,-652.2122,26.139899969100952
1617990445.04652,-718.2386,26.15551996231079
1617990445.06215,-785.7285,26.171149969100952
1617990445.07777,-845.5905,26.18676996231079
1617990445.0934,-887.4403,26.202399969100952
1617990445.10902,-903.3594,26.21801996231079
1617990445.12465,-890.9703,26.233649969100952
1617990445.14028,-854.205,26.249279975891113
1617990445.1559,-801.4258,26.264899969100952
1617990445.17153,-741.8271,26.280529975891113
1617990445.18715,-682.2007,26.296149969100952
1617990445.20278,-625.4332,26.311779975891113
1617990445.2184,-571.2908,26.327399969100952
1617990445.23403,-518.4496,26.343029975891113
1617990445.24966,-466.2733,26.358659982681274
1617990445.26528,-415.3669,26.374279975891113
1617990445.28091,-366.8539,26.389909982681274
1617990445.29653,-321.3707,26.405529975891113
1617990445.31216,-278.3632,26.421159982681274
1617990445.32778,-236.4823,26.436779975891113
1617990445.34341,-194.422,26.452409982681274
1617990445.35904,-151.7657,26.468039989471436
1617990445.37466,-109.1913,26.483659982681274
1617990445.39029,-68.21765,26.499289989471436
1617990445.40591,-30.40222,26.514909982681274
1617990445.42154,3.37146,26.530539989471436
1617990445.43716,33.20837,26.546159982681274
1617990445.45279,60.12854,26.561789989471436
1617990445.46842,85.52942,26.577419996261597
1617990445.48404,110.5168,26.593039989471436
1617990445.49967,135.4578,26.608669996261597
1617990445.51529,159.8367,26.624289989471436
1617990445.53092,182.5745,26.639919996261597
1617990445.54654,202.6584,26.655539989471436
1617990445.56217,219.5652,26.671169996261597
1617990445.5778,233.554,26.686800003051758
1617990445.59342,245.5263,26.702419996261597
1617990445.60905,256.7064,26.718050003051758
1617990445.62467,268.2302,26.733669996261597
1617990445.6403,280.9614,26.749300003051758
1617990445.65592,295.3876,26.764919996261597
1617990445.67155,311.6948,26.780550003051758
1617990445.68718,329.8445,26.79618000984192
1617990445.7028,349.3945,26.811800003051758
1617990445.71843,369.4049,26.82743000984192
1617990445.73405,388.3462,26.843050003051758
1617990445.74968,404.3016,26.85868000984192
1617990445.7653,415.4209,26.874300003051758
1617990445.78093,420.4593,26.88993000984192
1617990445.79656,419.0294,26.90556001663208
1617990445.81218,411.6282,26.92118000984192
1617990445.82781,399.3965,26.93681001663208
1617990445.84343,383.6649,26.95243000984192
1617990445.85906,365.7068,26.96806001663208
1617990445.87468,346.5064,26.98368000984192
1617990445.89031,326.8301,26.99931001663208
1617990445.90594,307.2174,27.01494002342224
1617990445.92156,287.9899,27.03056001663208
1617990445.93719,269.1497,27.04619002342224
1617990445.95281,250.4373,27.06181001663208
1617990445.96844,231.5606,27.07744002342224
1617990445.98406,212.4191,27.09306001663208
1617990445.99969,193.3681,27.10869002342224
1617990446.01532,175.2296,27.124320030212402
1617990446.03094,159.1311,27.13994002342224
1617990446.04657,146.2231,27.155570030212402
1617990446.06219,137.3153,27.17119002342224
1617990446.07782,132.5871,27.186820030212402
1617990446.09344,131.512,27.20244002342224
1617990446.10907,132.9057,27.218070030212402
1617990446.1247,135.0758,27.233700037002563
1617990446.14032,136.1579,27.249320030212402
1617990446.15595,134.5211,27.264950037002563
1617990446.17157,129.1312,27.280570030212402
1617990446.1872,119.8377,27.296200037002563
1617990446.20283,107.3939,27.311830043792725
1617990446.21845,93.23045,27.327450037002563
1617990446.23408,79.0704,27.343080043792725
1617990446.2497,66.44134,27.358700037002563
1617990446.26533,56.21297,27.374330043792725
1617990446.28095,48.45356,27.389950037002563
1617990446.29658,42.46494,27.405580043792725
1617990446.31221,37.14134,27.421210050582886
1617990446.32783,31.42165,27.436830043792725
1617990446.34346,24.63356,27.452460050582886
1617990446.35908,16.7067,27.468080043792725
1617990446.37471,8.065985,27.483710050582886
1617990446.39033,-0.532793,27.499330043792725
1617990446.40596,-8.335033,27.514960050582886
1617990446.42159,-14.67071,27.530590057373047
1617990446.43721,-19.02894,27.546210050582886
1617990446.45284,-21.11004,27.561840057373047
1617990446.46846,-20.82958,27.577460050582886
1617990446.48409,-18.46815,27.593090057373047
1617990446.49971,-14.78637,27.608710050582886
1617990446.51534,-10.94516,27.624340057373047
1617990446.53097,-8.231209,27.639970064163208
1617990446.54659,-7.746384,27.655590057373047
1617990446.56222,-9.94136,27.671220064163208
1617990446.57784,-14.53524,27.686840057373047
1617990446.59347,-20.61825,27.702470064163208
1617990446.60909,-27.08886,27.718090057373047
1617990446.62472,-33.03706,27.733720064163208
1617990446.64035,-38.16478,27.74935007095337
1617990446.65597,-42.8105,27.764970064163208
1617990446.6716,-47.70764,27.78060007095337
1617990446.68722,-53.53956,27.796220064163208
1617990446.70285,-60.51369,27.81185007095337
1617990446.71847,-68.11826,27.827470064163208
1617990446.7341,-75.29609,27.84310007095337
1617990446.74973,-80.85806,27.85873007774353
1617990446.76535,-84.00591,27.87435007095337
1617990446.78098,-84.60695,27.88998007774353
1617990446.7966,-83.17308,27.90560007095337
1617990446.81223,-80.49072,27.92123007774353
1617990446.82785,-77.17708,27.93685007095337
1617990446.84348,-73.45597,27.95248007774353
1617990446.85911,-69.22682,27.96811008453369
1617990446.87473,-64.36845,27.98373007774353
1617990446.89036,-59.09697,27.99936008453369
1617990446.90598,-54.05841,28.01498007774353
1617990446.92161,-50.10687,28.03061008453369
1617990446.93723,-47.81316,28.04623007774353
1617990446.95286,-47.0907,28.06186008453369
1617990446.96849,-47.21643,28.077489852905273
1617990446.98411,-47.23293,28.09311008453369
1617990446.99974,-46.45097,28.108739852905273
1617990447.01536,-44.62286,28.12436008453369
1617990447.03099,-41.60867,28.139989852905273
1617990447.04661,-36.90662,28.15561008453369
1617990447.06224,-29.48091,28.171239852905273
1617990447.07787,-18.24183,28.186869859695435
1617990447.09349,-2.923012,28.202489852905273
1617990447.10912,15.10622,28.218119859695435
1617990447.12474,32.91917,28.233739852905273
1617990447.14037,47.106,28.249369859695435
1617990447.15599,55.36702,28.264989852905273
1617990447.17162,57.74814,28.280619859695435
1617990447.18725,56.65591,28.296249866485596
1617990447.20287,55.58995,28.311869859695435
1617990447.2185,57.35555,28.327499866485596
1617990447.23412,62.72939,28.343119859695435
1617990447.24975,70.33878,28.358749866485596
1617990447.26537,77.58202,28.374369859695435
1617990447.281,82.17341,28.389999866485596
1617990447.29663,83.14553,28.405629873275757
1617990447.31225,81.09571,28.421249866485596
1617990447.32788,77.47537,28.436879873275757
1617990447.3435,73.52102,28.452499866485596
1617990447.35913,69.44832,28.468129873275757
1617990447.37475,64.41914,28.483749866485596
1617990447.39038,57.29288,28.499379873275757
1617990447.40601,47.55519,28.515009880065918
1617990447.42163,36.00548,28.530629873275757
1617990447.43726,24.4784,28.546259880065918
1617990447.45288,14.93024,28.561879873275757
1617990447.46851,8.272552,28.577509880065918
1617990447.48413,3.707764,28.593129873275757
1617990447.49976,-0.8077316,28.608759880065918
1617990447.51539,-7.37146,28.62438988685608
1617990447.53101,-16.743,28.640009880065918
1617990447.54664,-27.74684,28.65563988685608
1617990447.56226,-37.74283,28.671259880065918
1617990447.57789,-44.03283,28.68688988685608
1617990447.59351,-45.15978,28.702509880065918
1617990447.60914,-41.51191,28.71813988685608
1617990447.62477,-34.95609,28.73376989364624
1617990447.64039,-27.69033,28.74938988685608
1617990447.65602,-21.30767,28.76501989364624
1617990447.67164,-16.28693,28.78063988685608
1617990447.68727,-12.29313,28.79626989364624
1617990447.70289,-8.703011,28.81188988685608
1617990447.71852,-5.172569,28.82751989364624
1617990447.73415,-1.814926,28.8431499004364
1617990447.74977,1.055,28.85876989364624
1617990447.7654,3.080688,28.8743999004364
1617990447.78102,4.173622,28.89001989364624
1617990447.79665,4.421227,28.9056499004364
1617990447.81227,4.097626,28.92126989364624
1617990447.8279,3.506454,28.9368999004364
1617990447.84353,2.999924,28.952529907226562
1617990447.85915,2.853622,28.9681499004364
1617990447.87478,3.233719,28.983779907226562
1617990447.8904,4.156906,28.9993999004364
1617990447.90603,5.404526,29.015029907226562
1617990447.92165,6.685013,29.0306499004364
1617990447.93728,7.721725,29.046279907226562
1617990447.95291,8.478897,29.061909914016724
1617990447.96853,9.214676,29.077529907226562
1617990447.98416,10.36667,29.093159914016724
1617990447.99978,12.27487,29.108779907226562
1617990448.01541,14.95448,29.124409914016724
1617990448.03103,17.98625,29.140029907226562
1617990448.04666,20.6339,29.155659914016724
1617990448.06229,22.26135,29.171289920806885
1617990448.07791,22.64532,29.186909914016724
1617990448.09354,22.26022,29.202539920806885
1617990448.10916,22.29108,29.218159914016724
1617990448.12479,24.24088,29.233789920806885
1617990448.14041,29.42821,29.249409914016724
1617990448.15604,38.39421,29.265039920806885
1617990448.17167,50.50664,29.280669927597046
1617990448.18729,63.96495,29.296289920806885
1617990448.20292,76.35461,29.311919927597046
1617990448.21854,85.2724,29.327539920806885
1617990448.23417,88.97665,29.343169927597046
1617990448.24979,86.7858,29.358789920806885
1617990448.26542,79.01897,29.374419927597046
1617990448.28105,66.77635,29.390049934387207
1617990448.29667,51.65938,29.405669927597046
1617990448.3123,35.60472,29.421299934387207
1617990448.32792,20.73056,29.436919927597046
1617990448.34355,9.143341,29.452549934387207
1617990448.35917,2.544495,29.468169927597046
1617990448.3748,1.839127,29.483799934387207
1617990448.39043,6.909973,29.499429941177368
1617990448.40605,16.81876,29.515049934387207
1617990448.42168,30.22623,29.530679941177368
1617990448.4373,45.9838,29.546299934387207
1617990448.45293,63.24115,29.561929941177368
1617990448.46855,81.05347,29.577549934387207
1617990448.48418,97.95953,29.593179941177368
1617990448.49981,111.819,29.60880994796753
1617990448.51543,120.377,29.624429941177368
1617990448.53106,122.3789,29.64005994796753
1617990448.54668,118.3886,29.655679941177368
1617990448.56231,110.9919,29.67130994796753
1617990448.57793,103.8535,29.686929941177368
1617990448.59356,100.1471,29.70255994796753
1617990448.60919,101.2384,29.71818995475769
1617990448.62481,106.0999,29.73380994796753
1617990448.64044,111.8137,29.74943995475769
1617990448.65606,114.822,29.76505994796753
1617990448.67169,112.1613,29.78068995475769
1617990448.68731,102.2362,29.79630994796753
1617990448.70294,85.01187,29.81193995475769
1617990448.71857,61.60107,29.82756996154785
1617990448.73419,33.62314,29.84318995475769
1617990448.74982,2.802948,29.85881996154785
1617990448.76544,-29.13794,29.87443995475769
1617990448.78107,-60.35379,29.89006996154785
1617990448.7967,-88.7782,29.905699968338013
1617990448.81232,-112.1674,29.92131996154785
1617990448.82795,-128.4506,29.936949968338013
1617990448.84357,-136.4292,29.95256996154785
1617990448.8592,-136.3724,29.968199968338013
1617990448.87482,-130.347,29.98381996154785
1617990448.89045,-121.9249,29.999449968338013
1617990448.90608,-115.1235,30.015079975128174
1617990448.9217,-113.1172,30.030699968338013
1617990448.93733,-117.1945,30.046329975128174
1617990448.95295,-126.4951,30.061949968338013
1617990448.96858,-138.8282,30.077579975128174
1617990448.9842,-151.7191,30.093199968338013
1617990448.99983,-163.6427,30.108829975128174
1617990449.01546,-174.7317,30.124459981918335
1617990449.03108,-186.6771,30.140079975128174
1617990449.04671,-202.2496,30.155709981918335
1617990449.06233,-224.6395,30.171329975128174
1617990449.07796,-256.7396,30.186959981918335
1617990449.09358,-300.4756,30.202579975128174
1617990449.10921,-355.6973,30.218209981918335
1617990449.12484,-419.1038,30.233839988708496
1617990449.14046,-483.7148,30.249459981918335
1617990449.15609,-539.5431,30.265089988708496
1617990449.17171,-575.8881,30.280709981918335
1617990449.18734,-584.5554,30.296339988708496
1617990449.20296,-562.5894,30.311959981918335
1617990449.21859,-513.1666,30.327589988708496
1617990449.23422,-444.2138,30.343219995498657
1617990449.24984,-365.4171,30.358839988708496
1617990449.26547,-285.1757,30.374469995498657
1617990449.28109,-208.8494,30.390089988708496
1617990449.29672,-138.8433,30.405719995498657
1617990449.31234,-75.73669,30.421339988708496
1617990449.32797,-19.52582,30.436969995498657
1617990449.3436,29.88522,30.45260000228882
1617990449.35922,72.98868,30.468219995498657
1617990449.37485,111.3521,30.48385000228882
1617990449.39047,147.5187,30.499469995498657
1617990449.4061,184.0414,30.51510000228882
1617990449.42172,221.9853,30.530719995498657
1617990449.43735,259.9143,30.54635000228882
1617990449.45298,294.0703,30.56198000907898
1617990449.4686,319.5781,30.57760000228882
1617990449.48423,332.5257,30.59323000907898
1617990449.49985,331.608,30.60885000228882
1617990449.51548,318.6985,30.62448000907898
1617990449.5311,298.0714,30.64010000228882
1617990449.54673,274.6526,30.65573000907898
1617990449.56236,252.2369,30.67136001586914
1617990449.57798,232.4934,30.68698000907898
1617990449.59361,215.0594,30.70261001586914
1617990449.60923,198.4878,30.71823000907898
1617990449.62486,181.5207,30.73386001586914
1617990449.64048,163.8703,30.74948000907898
1617990449.65611,146.3909,30.76511001586914
1617990449.67174,130.6863,30.7807400226593
1617990449.68736,118.3559,30.79636001586914
1617990449.70299,110.4934,30.8119900226593
1617990449.71861,107.2856,30.82761001586914
1617990449.73424,107.9291,30.8432400226593
1617990449.74986,110.7558,30.85886001586914
1617990449.76549,113.6822,30.8744900226593
1617990449.78112,114.6574,30.890120029449463
1617990449.79674,112.1296,30.9057400226593
1617990449.81237,105.4105,30.921370029449463
1617990449.82799,94.7487,30.9369900226593
1617990449.84362,81.26958,30.952620029449463
1617990449.85924,66.5766,30.9682400226593
1617990449.87487,52.39618,30.983870029449463
1617990449.8905,40.07945,30.999500036239624
1617990449.90612,30.33772,31.015120029449463
1617990449.92175,23.09238,31.030750036239624
1617990449.93737,17.56517,31.046370029449463
1617990449.953,12.63504,31.062000036239624
1617990449.96862,7.187347,31.077620029449463
1617990449.98425,0.6428528,31.093250036239624
1617990449.99988,-6.740189,31.108880043029785
1617990450.0155,-13.70074,31.124500036239624
1617990450.03113,-18.00999,31.140130043029785
1617990450.04675,-16.87762,31.155750036239624
1617990450.06238,-7.658401,31.171380043029785
1617990450.078,11.09633,31.187000036239624
1617990450.09363,38.56862,31.202630043029785
1617990450.10926,71.22975,31.218260049819946
1617990450.12488,103.6107,31.233880043029785
1617990450.14051,130.1837,31.249510049819946
1617990450.15613,147.6398,31.265130043029785
1617990450.17176,156.5641,31.280760049819946
1617990450.18738,161.2573,31.296380043029785
1617990450.20301,167.5114,31.312010049819946
1617990450.21864,179.5477,31.327640056610107
1617990450.23426,197.7478,31.343260049819946
1617990450.24989,218.1842,31.358890056610107
1617990450.26551,234.2176,31.374510049819946
1617990450.28114,239.1198,31.390140056610107
1617990450.29676,228.2273,31.405760049819946
1617990450.31239,200.1555,31.421390056610107
1617990450.32802,156.6372,31.43702006340027
1617990450.34364,101.7955,31.452640056610107
1617990450.35927,41.49557,31.46827006340027
1617990450.37489,-17.20618,31.483890056610107
1617990450.39052,-66.82568,31.49952006340027
1617990450.40614,-100.5733,31.515140056610107
1617990450.42177,-113.8004,31.53077006340027
1617990450.4374,-105.2231,31.54640007019043
1617990450.45302,-77.2905,31.56202006340027
1617990450.46865,-35.61462,31.57765007019043
1617990450.48427,12.2738,31.59327006340027
1617990450.4999,58.53482,31.60890007019043
1617990450.51552,96.40671,31.62452006340027
1617990450.53115,121.2801,31.64015007019043
1617990450.54678,131.3621,31.65578007698059
1617990450.5624,127.6954,31.67140007019043
1617990450.57803,113.4457,31.68703007698059
1617990450.59365,92.48987,31.70265007019043
1617990450.60928,67.88721,31.71828007698059
1617990450.6249,41.05145,31.73390007019043
1617990450.64053,12.00336,31.74953007698059
1617990450.65616,-19.69275,31.765160083770752
1617990450.67178,-53.91364,31.78078007698059
1617990450.68741,-89.42847,31.796410083770752
1617990450.70303,-124.1439,31.81203007698059
1617990450.71866,-155.8851,31.827660083770752
1617990450.73428,-182.9323,31.84328007698059
1617990450.74991,-204.2034,31.858910083770752
1617990450.76554,-219.0333,31.874539852142334
1617990450.78116,-227.0331,31.890160083770752
1617990450.79679,-228.3395,31.905789852142334
1617990450.81241,-223.7959,31.921410083770752
1617990450.82804,-215.2696,31.937039852142334
1617990450.84366,-205.3899,31.952660083770752
1617990450.85929,-196.8533,31.968289852142334
1617990450.87492,-191.5262,31.983919858932495
1617990450.89054,-189.9906,31.999539852142334
1617990450.90617,-191.6526,32.015169858932495
1617990450.92179,-195.3596,32.030789852142334
1617990450.93742,-200.1835,32.046419858932495
1617990450.95304,-205.8613,32.062039852142334
1617990450.96867,-212.7601,32.077669858932495
1617990450.9843,-221.4532,32.093299865722656
1617990450.99992,-232.0637,32.108919858932495
1617990451.01555,-243.5953,32.124549865722656
1617990451.03117,-253.688,32.140169858932495
1617990451.0468,-258.9567,32.155799865722656
1617990451.06243,-255.9261,32.17142987251282
1617990451.07805,-242.4063,32.187049865722656
1617990451.09368,-218.5833,32.20267987251282
1617990451.1093,-187.4255,32.218299865722656
1617990451.12493,-154.0097,32.23392987251282
1617990451.14055,-123.9504,32.249549865722656
1617990451.15618,-101.5027,32.26517987251282
1617990451.17181,-88.05054,32.28080987930298
1617990451.18743,-81.78186,32.29642987251282
1617990451.20306,-78.48846,32.31205987930298
1617990451.21868,-73.30658,32.32767987251282
1617990451.23431,-62.56671,32.34330987930298
1617990451.24993,-44.95599,32.35892987251282
1617990451.26556,-21.56561,32.37455987930298
1617990451.28119,4.991333,32.39018988609314
1617990451.29681,31.74066,32.40580987930298
1617990451.31244,56.40277,32.42143988609314
1617990451.32806,77.66357,32.43705987930298
1617990451.34369,95.10022,32.45268988609314
1617990451.35931,108.7867,32.46830987930298
1617990451.37494,119.0929,32.48393988609314
1617990451.39057,126.4778,32.4995698928833
1617990451.40619,131.4069,32.51518988609314
1617990451.42182,134.2551,32.5308198928833
1617990451.43744,135.1263,32.54643988609314
1617990451.45307,133.7717,32.5620698928833
1617990451.46869,129.7642,32.57768988609314
1617990451.48432,122.8646,32.5933198928833
1617990451.49995,113.295,32.60894989967346
1617990451.51557,101.9373,32.6245698928833
1617990451.5312,90.27899,32.64019989967346
1617990451.54682,80.1676,32.6558198928833
1617990451.56245,73.50616,32.67144989967346
1617990451.57807,71.92218,32.6870698928833
1617990451.5937,76.51874,32.70269989967346
1617990451.60933,87.51154,32.71832990646362
1617990451.62495,104.1246,32.73394989967346
1617990451.64058,124.5143,32.74957990646362
1617990451.6562,146.1649,32.76519989967346
1617990451.67183,166.5479,32.78082990646362
1617990451.68745,183.7884,32.79644989967346
1617990451.70308,197.2105,32.81207990646362
1617990451.71871,207.3805,32.827709913253784
1617990451.73433,215.8142,32.84332990646362
1617990451.74996,224.3066,32.858959913253784
1617990451.76558,234.2623,32.87457990646362
1617990451.78121,246.1351,32.890209913253784
1617990451.79683,259.1417,32.90582990646362
1617990451.81246,271.3401,32.921459913253784
1617990451.82809,279.757,32.937089920043945
1617990451.84371,280.9767,32.952709913253784
1617990451.85934,271.8475,32.968339920043945
1617990451.87496,250.415,32.983959913253784
1617990451.89059,216.5957,32.999589920043945
1617990451.90621,172.3983,33.015209913253784
1617990451.92184,121.5411,33.030839920043945
1617990451.93747,68.45367,33.046469926834106
1617990451.95309,17.12964,33.062089920043945
1617990451.96872,-30.0506,33.077719926834106
1617990451.98434,-72.68103,33.093339920043945
1617990451.99997,-111.8356,33.108969926834106
1617990452.01559,-148.808,33.124589920043945
1617990452.03122,-183.694,33.140219926834106
1617990452.04685,-214.5467,33.15584993362427
1617990452.06247,-237.772,33.171469926834106
1617990452.0781,-249.6307,33.18709993362427
1617990452.09372,-247.8761,33.202719926834106
1617990452.10935,-233.07,33.21834993362427
1617990452.12497,-208.3898,33.233969926834106
1617990452.1406,-178.4103,33.24959993362427
1617990452.15623,-147.3752,33.26522994041443
1617990452.17185,-117.9896,33.28084993362427
1617990452.18748,-91.25397,33.29647994041443
1617990452.2031,-67.28564,33.31209993362427
1617990452.21873,-46.36523,33.32772994041443
1617990452.23435,-29.33575,33.34334993362427
1617990452.24998,-17.31158,33.35897994041443
1617990452.26561,-10.76068,33.37460994720459
1617990452.28123,-8.889648,33.39022994041443
1617990452.29686,-9.727905,33.40585994720459
1617990452.31248,-10.89642,33.42147994041443
1617990452.32811,-10.599,33.43710994720459
1617990452.34373,-8.272095,33.45272994041443
1617990452.35936,-4.589966,33.46835994720459
1617990452.37499,-0.7732544,33.48398995399475
1617990452.39061,2.14856,33.49960994720459
1617990452.40624,3.848999,33.51523995399475
1617990452.42186,4.802551,33.53085994720459
1617990452.43749,5.805664,33.54648995399475
1617990452.45311,7.497925,33.56210994720459
1617990452.46874,9.980713,33.57773995399475
1617990452.48437,12.73901,33.59336996078491
1617990452.49999,14.85022,33.60898995399475
1617990452.51562,15.46613,33.62461996078491
1617990452.53124,14.10303,33.64023995399475
1617990452.54687,10.82727,33.65586996078491
1617990452.56249,6.242981,33.67148995399475
1617990452.57812,1.166443,33.68711996078491
1617990452.59375,-3.645386,33.70274996757507
1617990452.60937,-7.707886,33.71836996078491
1617990452.625,-10.91852,33.73399996757507
1617990452.64062,-13.42065,33.74961996078491
1617990452.65625,-15.43573,33.76524996757507
1617990452.67187,-17.19916,33.78086996078491
1617990452.6875,-18.82819,33.79649996757507
1617990452.70313,-20.35077,33.812129974365234
1617990452.71875,-21.74597,33.82774996757507
1617990452.73438,-22.96893,33.843379974365234
1617990452.75,-23.98016,33.85899996757507
1617990452.76563,-24.79584,33.874629974365234
1617990452.78125,-25.46991,33.89024996757507
1617990452.79688,-26.1109,33.905879974365234
1617990452.81251,-26.86121,33.921509981155396
1617990452.82813,-27.88928,33.937129974365234
1617990452.84376,-29.37708,33.952759981155396
1617990452.85938,-31.51721,33.968379974365234
1617990452.87501,-34.49609,33.984009981155396
1617990452.89063,-38.31396,33.999629974365234
1617990452.90626,-42.74695,34.015259981155396
1617990452.92189,-47.20422,34.03088998794556
1617990452.93751,-50.76538,34.046509981155396
1617990452.95314,-52.46521,34.06213998794556
1617990452.96876,-51.62317,34.077759981155396
1617990452.98439,-48.12915,34.09338998794556
1617990453.00001,-42.56653,34.109009981155396
1617990453.01564,-35.98279,34.12463998794556
1617990453.03127,-29.49146,34.14026999473572
1617990453.04689,-23.94336,34.15588998794556
1617990453.06252,-19.72778,34.17151999473572
1617990453.07814,-16.79114,34.18713998794556
1617990453.09377,-14.8147,34.20276999473572
1617990453.10939,-13.40552,34.21838998794556
1617990453.12502,-12.25964,34.23401999473572
1617990453.14065,-11.18396,34.24965000152588
1617990453.15627,-10.08667,34.26526999473572
1617990453.1719,-8.953003,34.28090000152588
1617990453.18752,-7.782471,34.29651999473572
1617990453.20315,-6.636108,34.31215000152588
1617990453.21878,-5.574097,34.32778000831604
1617990453.2344,-4.651489,34.34340000152588
1617990453.25003,-3.87915,34.35903000831604
1617990453.26565,-3.295044,34.37465000152588
1617990453.28128,-2.855713,34.39028000831604
1617990453.2969,-2.573975,34.40590000152588
1617990453.31253,-2.415405,34.42153000831604
1617990453.32816,-2.359741,34.4371600151062
1617990453.34378,-2.40979,34.45278000831604
1617990453.35941,-2.617554,34.4684100151062
1617990453.37503,-3.060669,34.48403000831604
1617990453.39066,-3.785522,34.4996600151062
1617990453.40628,-4.796753,34.51528000831604
1617990453.42191,-6.031494,34.5309100151062
1617990453.43754,-7.417847,34.54654002189636
1617990453.45316,-8.872192,34.5621600151062
1617990453.46879,-10.36218,34.57779002189636
1617990453.48441,-11.91223,34.5934100151062
1617990453.50004,-13.54919,34.60904002189636
1617990453.51566,-15.24646,34.6246600151062
1617990453.53129,-16.91443,34.64029002189636
1617990453.54692,-18.4751,34.65592002868652
1617990453.56254,-19.93408,34.67154002189636
1617990453.57817,-21.45251,34.68717002868652
1617990453.59379,-23.24097,34.70279002189636
1617990453.60942,-25.43909,34.71842002868652
1617990453.62504,-28.0719,34.73404002189636
1617990453.64067,-30.89148,34.74967002868652
1617990453.6563,-33.51001,34.765300035476685
1617990453.67192,-35.38257,34.78092002868652
1617990453.68755,-35.99438,34.796550035476685
1617990453.70317,-34.94165,34.81217002868652
1617990453.7188,-32.03784,34.827800035476685
1617990453.73442,-27.32666,34.84342002868652
1617990453.75005,-21.01526,34.859050035476685
1617990453.76568,-13.56091,34.874680042266846
1617990453.7813,-5.401123,34.890300035476685
1617990453.79693,2.915283,34.905930042266846
1617990453.81255,10.89099,34.921550035476685
1617990453.82818,18.08557,34.937180042266846
1617990453.8438,24.23499,34.952800035476685
1617990453.85943,29.1947,34.968430042266846
1617990453.87506,33.04736,34.98406004905701
1617990453.89068,36.01831,34.999680042266846
1617990453.90631,38.32117,35.01531004905701
1617990453.92193,40.15735,35.030930042266846
1617990453.93756,41.55188,35.04656004905701
1617990453.95318,42.46948,35.062180042266846
1617990453.96881,42.8855,35.07781004905701
1617990453.98444,42.83972,35.09344005584717
1617990454.00006,42.40173,35.10906004905701
1617990454.01569,41.60327,35.12469005584717
1617990454.03131,40.44348,35.14031004905701
1617990454.04694,38.83862,35.15594005584717
1617990454.06256,36.7926,35.17156004905701
1617990454.07819,34.34399,35.18719005584717
1617990454.09382,31.61169,35.20282006263733
1617990454.10944,28.73193,35.21844005584717
1617990454.12507,25.77917,35.23407006263733
1617990454.14069,22.84253,35.24969005584717
1617990454.15632,19.96521,35.26532006263733
1617990454.17194,17.25073,35.28094005584717
1617990454.18757,14.8186,35.29657006263733
1617990454.2032,12.73206,35.31220006942749
1617990454.21882,10.93811,35.32782006263733
1617990454.23445,9.247192,35.34345006942749
1617990454.25007,7.438721,35.35907006263733
1617990454.2657,5.296387,35.37470006942749
1617990454.28132,2.792725,35.39032006263733
1617990454.29695,0.06262207,35.40595006942749
1617990454.31258,-2.656128,35.42158007621765
1617990454.3282,-5.14917,35.43720006942749
1617990454.34383,-7.306763,35.45283007621765
1617990454.35945,-9.220825,35.46845006942749
1617990454.37508,-11.09229,35.48408007621765
1617990454.3907,-13.08704,35.49970006942749
1617990454.40633,-15.31274,35.51533007621765
1617990454.42196,-17.72339,35.53096008300781
1617990454.43758,-20.25793,35.54658007621765
1617990454.45321,-22.87512,35.56221008300781
1617990454.46883,-25.55933,35.57783007621765
1617990454.48446,-28.15686,35.59346008300781
1617990454.50008,-30.28296,35.60908007621765
1617990454.51571,-31.31995,35.62471008300781
1617990454.53134,-30.5636,35.640339851379395
1617990454.54696,-27.62,35.65596008300781
1617990454.56259,-22.66235,35.671589851379395
1617990454.57821,-16.5509,35.68721008300781
1617990454.59384,-10.54602,35.702839851379395
1617990454.60946,-5.803833,35.71846008300781
1617990454.62509,-2.924561,35.734089851379395
1617990454.64072,-1.815186,35.749719858169556
1617990454.65634,-1.857544,35.765339851379395
1617990454.67197,-2.339844,35.780969858169556
1617990454.68759,-2.855225,35.796589851379395
1617990454.70322,-3.378418,35.812219858169556
1617990454.71884,-4.126709,35.827839851379395
1617990454.73447,-5.29248,35.843469858169556
1617990454.7501,-6.778442,35.85909986495972
1617990454.76572,-8.22522,35.874719858169556
1617990454.78135,-9.232788,35.89034986495972
1617990454.79697,-9.549683,35.905969858169556
1617990454.8126,-9.27002,35.92159986495972
1617990454.82822,-8.711548,35.937219858169556
1617990454.84385,-8.215088,35.95284986495972
1617990454.85948,-7.924194,35.96847987174988
1617990454.8751,-7.75,35.98409986495972
1617990454.89073,-7.490234,35.99972987174988
1617990454.90635,-7.001709,36.01534986495972
1617990454.92198,-6.35376,36.03097987174988
1617990454.9376,-5.77771,36.04659986495972
1617990454.95323,-5.520874,36.06222987174988
1617990454.96886,-5.701782,36.07785987854004
1617990454.98448,-6.274414,36.09347987174988
1617990455.00011,-7.075195,36.10910987854004
1617990455.01573,-7.97229,36.12472987174988
1617990455.03136,-8.897217,36.14035987854004
1617990455.04698,-9.819092,36.15597987174988
1617990455.06261,-10.724,36.17160987854004
1617990455.07824,-11.50403,36.1872398853302
1617990455.09386,-12.02966,36.20285987854004
1617990455.10949,-12.21252,36.2184898853302
1617990455.12511,-12.07007,36.23410987854004
1617990455.14074,-11.76392,36.2497398853302
1617990455.15636,-11.55994,36.26535987854004
1617990455.17199,-11.71362,36.2809898853302
1617990455.18762,-12.42871,36.29661989212036
1617990455.20324,-13.77783,36.3122398853302
1617990455.21887,-15.60339,36.32786989212036
1617990455.23449,-17.5387,36.3434898853302
1617990455.25012,-19.04712,36.35911989212036
1617990455.26574,-19.52991,36.3747398853302
1617990455.28137,-18.52856,36.39036989212036
1617990455.297,-15.90723,36.40599989891052
1617990455.31262,-11.85754,36.42161989212036
1617990455.32825,-6.88147,36.43724989891052
1617990455.34387,-1.681519,36.45286989212036
1617990455.3595,3.095581,36.46849989891052
1617990455.37512,6.97583,36.48411989212036
1617990455.39075,9.745605,36.49974989891052
1617990455.40638,11.44824,36.515379905700684
1617990455.422,12.33545,36.53099989891052
1617990455.43763,12.70703,36.546629905700684
1617990455.45325,12.80994,36.56224989891052
1617990455.46888,12.77771,36.577879905700684
1617990455.4845,12.62524,36.59349989891052
1617990455.50013,12.32886,36.609129905700684
1617990455.51576,11.87012,36.624759912490845
1617990455.53138,11.26123,36.640379905700684
1617990455.54701,10.57532,36.656009912490845
1617990455.56263,9.875122,36.671629905700684
1617990455.57826,9.183228,36.687259912490845
1617990455.59388,8.479126,36.702879905700684
1617990455.60951,7.730103,36.718509912490845
1617990455.62514,6.925903,36.734139919281006
1617990455.64076,6.181396,36.749759912490845
1617990455.65639,5.614624,36.765389919281006
1617990455.67201,5.293213,36.781009912490845
1617990455.68764,5.193604,36.796639919281006
1617990455.70326,5.148193,36.812259912490845
1617990455.71889,4.94519,36.827889919281006
1617990455.73452,4.364502,36.84351992607117
1617990455.75014,3.390625,36.859139919281006
1617990455.76577,2.106079,36.87476992607117
1617990455.78139,0.7261963,36.890389919281006
1617990455.79702,-0.585083,36.90601992607117
1617990455.81264,-1.802979,36.921639919281006
1617990455.82827,-2.966309,36.93726992607117
1617990455.8439,-4.170044,36.95289993286133
1617990455.85952,-5.417847,36.96851992607117
1617990455.87515,-6.654907,36.98414993286133
1617990455.89077,-7.772095,36.99976992607117
1617990455.9064,-8.777832,37.01539993286133
1617990455.92203,-9.809692,37.03102993965149
1617990455.93765,-11.09106,37.04664993286133
1617990455.95328,-12.83777,37.06227993965149
1617990455.9689,-15.14844,37.07789993286133
1617990455.98453,-18.01855,37.09352993965149
1617990456.00015,-21.34741,37.10914993286133
1617990456.01578,-24.94263,37.12477993965149
1617990456.03141,-28.46021,37.14040994644165
1617990456.04703,-31.35876,37.15602993965149
1617990456.06266,-32.94946,37.17165994644165
1617990456.07828,-32.52527,37.18727993965149
1617990456.09391,-29.63257,37.20290994644165
1617990456.10953,-24.25684,37.21852993965149
1617990456.12516,-17.01099,37.23415994644165
1617990456.14079,-8.880493,37.24978995323181
1617990456.15641,-1.029785,37.26540994644165
1617990456.17204,5.556641,37.28103995323181
1617990456.18766,10.32056,37.29665994644165
1617990456.20329,13.16785,37.31228995323181
1617990456.21891,14.4469,37.32790994644165
1617990456.23454,14.64038,37.34353995323181
1617990456.25017,14.32349,37.35916996002197
1617990456.26579,13.86578,37.37478995323181
1617990456.28142,13.44965,37.39041996002197
1617990456.29704,13.10986,37.40603995323181
1617990456.31267,12.8291,37.42166996002197
1617990456.32829,12.65002,37.43728995323181
1617990456.34392,12.65448,37.45291996002197
1617990456.35955,13.00562,37.468549966812134
1617990456.37517,13.72491,37.48416996002197
1617990456.3908,14.74512,37.499799966812134
1617990456.40642,15.83527,37.51541996002197
1617990456.42205,16.76929,37.531049966812134
1617990456.43767,17.41913,37.54666996002197
1617990456.4533,17.81879,37.562299966812134
1617990456.46893,18.14148,37.577929973602295
1617990456.48455,18.5235,37.593549966812134
1617990456.50018,18.99774,37.609179973602295
1617990456.5158,19.42853,37.624799966812134
1617990456.53143,19.63666,37.640429973602295
1617990456.54705,19.48553,37.656049966812134
1617990456.56268,18.95825,37.671679973602295
1617990456.57831,18.0976,37.687309980392456
1617990456.59393,16.95917,37.702929973602295
1617990456.60956,15.5769,37.718559980392456
1617990456.62518,13.95966,37.734179973602295
1617990456.64081,12.18622,37.749809980392456
1617990456.65643,10.39703,37.765429973602295
1617990456.67206,8.763916,37.781059980392456
1617990456.68769,7.409119,37.79668998718262
1617990456.70331,6.25354,37.812309980392456
1617990456.71894,5.109009,37.82793998718262
1617990456.73456,3.739563,37.843559980392456
1617990456.75019,2.032593,37.85918998718262
1617990456.76581,0.133728,37.874809980392456
1617990456.78144,-1.615784,37.89043998718262
1617990456.79707,-2.947449,37.90606999397278
1617990456.81269,-3.761597,37.92168998718262
1617990456.82832,-4.179688,37.93731999397278
1617990456.84394,-4.479797,37.95293998718262
1617990456.85957,-4.832703,37.96856999397278
1617990456.87519,-5.281982,37.98418998718262
1617990456.89082,-5.782532,37.99981999397278
1617990456.90645,-6.361877,38.01545000076294
1617990456.92207,-7.208557,38.03106999397278
1617990456.9377,-8.649536,38.04670000076294
1617990456.95332,-10.92621,38.06231999397278
1617990456.96895,-14.04346,38.07795000076294
1617990456.98457,-17.68188,38.09356999397278
1617990457.0002,-21.38641,38.10920000076294
1617990457.01583,-24.7663,38.1248300075531
1617990457.03145,-27.62762,38.14045000076294
1617990457.04708,-30.0744,38.1560800075531
1617990457.0627,-32.33209,38.17170000076294
1617990457.07833,-34.70209,38.1873300075531
1617990457.09395,-37.46375,38.20295000076294
1617990457.10958,-40.90668,38.2185800075531
1617990457.12521,-45.23053,38.23421001434326
1617990457.14083,-50.47314,38.2498300075531
1617990457.15646,-56.31213,38.26546001434326
1617990457.17208,-62.00995,38.2810800075531
1617990457.18771,-66.52826,38.29671001434326
1617990457.20333,-68.91443,38.3123300075531
1617990457.21896,-68.69153,38.32796001434326
1617990457.23459,-66.05731,38.34359002113342
1617990457.25021,-61.91724,38.35921001434326
1617990457.26584,-57.60187,38.37484002113342
1617990457.28146,-54.51538,38.39046001434326
1617990457.29709,-53.74854,38.40609002113342
1617990457.31271,-55.86749,38.42171001434326
1617990457.32834,-60.82465,38.43734002113342
1617990457.34397,-68.01849,38.452970027923584
1617990457.35959,-76.53613,38.46859002113342
1617990457.37522,-85.3996,38.484220027923584
1617990457.39084,-93.90936,38.49984002113342
1617990457.40647,-101.8597,38.515470027923584
1617990457.42209,-109.5421,38.53109002113342
1617990457.43772,-117.4576,38.546720027923584
1617990457.45335,-125.9308,38.562350034713745
1617990457.46897,-134.8005,38.577970027923584
1617990457.4846,-143.3166,38.593600034713745
1617990457.50022,-150.478,38.609220027923584
1617990457.51585,-155.5272,38.624850034713745
1617990457.53147,-158.2519,38.640470027923584
1617990457.5471,-159.1221,38.656100034713745
1617990457.56273,-159.0641,38.671730041503906
1617990457.57835,-159.0779,38.687350034713745
1617990457.59398,-159.9995,38.702980041503906
1617990457.6096,-162.3826,38.718600034713745
1617990457.62523,-166.3967,38.734230041503906
1617990457.64085,-171.6275,38.749850034713745
1617990457.65648,-176.7814,38.765480041503906
1617990457.67211,-179.4958,38.78111004829407
1617990457.68773,-176.6343,38.796730041503906
1617990457.70336,-165.1113,38.81236004829407
1617990457.71898,-143.0436,38.827980041503906
1617990457.73461,-110.6541,38.84361004829407
1617990457.75023,-70.34784,38.859230041503906
1617990457.76586,-25.9295,38.87486004829407
1617990457.78149,18.72302,38.89049005508423
1617990457.79711,61.02521,38.90611004829407
1617990457.81274,100.3692,38.92174005508423
1617990457.82836,137.7766,38.93736004829407
1617990457.84399,174.8021,38.95299005508423
1617990457.85961,212.0535,38.96861004829407
1617990457.87524,248.2555,38.98424005508423
1617990457.89087,280.327,38.99987006187439
1617990457.90649,304.5219,39.01549005508423
1617990457.92212,317.9118,39.03112006187439
1617990457.93774,319.6988,39.04674005508423
1617990457.95337,311.4304,39.06237006187439
1617990457.96899,296.1656,39.07799005508423
1617990457.98462,277.195,39.09362006187439
1617990458.00025,256.9342,39.10925006866455
1617990458.01587,236.6919,39.12487006187439
1617990458.0315,217.1992,39.14050006866455
1617990458.04712,199.3444,39.15612006187439
1617990458.06275,184.3853,39.17175006866455
1617990458.07837,173.6056,39.18737006187439
1617990458.094,167.468,39.20300006866455
1617990458.10963,165.1541,39.21863007545471
1617990458.12525,164.7125,39.23425006866455
1617990458.14088,163.8965,39.24988007545471
1617990458.1565,161.0488,39.26550006866455
1617990458.17213,155.5793,39.28113007545471
1617990458.18776,147.9068,39.29676008224487
1617990458.20338,139.0732,39.31238007545471
1617990458.21901,130.3484,39.32801008224487
1617990458.23463,123.0049,39.34363007545471
1617990458.25026,118.3372,39.35926008224487
1617990458.26588,117.7054,39.37488007545471
1617990458.28151,122.4187,39.39051008224487
1617990458.29714,133.4065,39.406139850616455
1617990458.31276,150.8639,39.42176008224487
1617990458.32839,173.8358,39.437389850616455
1617990458.34401,199.9055,39.45301008224487
1617990458.35964,225.0545,39.468639850616455
1617990458.37526,243.9392,39.48426008224487
1617990458.39089,250.6331,39.499889850616455
1617990458.40652,239.9868,39.515519857406616
1617990458.42214,209.0225,39.531139850616455
1617990458.43777,158.0804,39.546769857406616
1617990458.45339,90.96179,39.562389850616455
1617990458.46902,13.98132,39.578019857406616
1617990458.48464,-65.6445,39.593639850616455
1617990458.50027,-141.4467,39.609269857406616
1617990458.5159,-208.7358,39.62489986419678
1617990458.53152,-264.6914,39.640519857406616
1617990458.54715,-307.8824,39.65614986419678
1617990458.56277,-337.7361,39.671769857406616
1617990458.5784,-354.1712,39.68739986419678
1617990458.59402,-357.6794,39.703019857406616
1617990458.60965,-349.5638,39.71864986419678
1617990458.62528,-331.9648,39.73427987098694
1617990458.6409,-307.5923,39.74989986419678
1617990458.65653,-279.2948,39.76552987098694
1617990458.67215,-249.7944,39.78114986419678
1617990458.68778,-221.3448,39.79677987098694
1617990458.7034,-195.9416,39.81239986419678
1617990458.71903,-175.3783,39.82802987098694
1617990458.73466,-161.3186,39.8436598777771
1617990458.75028,-155.0873,39.85927987098694
1617990458.76591,-157.3982,39.8749098777771
1617990458.78153,-167.7795,39.89052987098694
1617990458.79716,-184.1793,39.9061598777771
1617990458.81278,-202.9302,39.92177987098694
1617990458.82841,-219.3056,39.9374098777771
1617990458.84404,-228.781,39.95303988456726
1617990458.85966,-228.2471,39.9686598777771
1617990458.87529,-216.679,39.98428988456726
1617990458.89091,-194.8189,39.9999098777771
1617990458.90654,-164.2682,40.01553988456726
1617990458.92216,-126.6703,40.0311598777771
1617990458.93779,-83.51654,40.04678988456726
1617990458.95342,-36.86972,40.06241989135742
1617990458.96904,10.08438,40.07803988456726
1617990458.98467,52.94069,40.09366989135742
1617990459.00029,87.19737,40.10928988456726
1617990459.01592,109.855,40.12491989135742
1617990459.03154,120.7619,40.14053988456726
1617990459.04717,122.7389,40.15616989135742
1617990459.0628,120.4075,40.17179989814758
1617990459.07842,118.3724,40.18741989135742
1617990459.09405,119.58,40.20304989814758
1617990459.10967,124.7831,40.21866989135742
1617990459.1253,132.9882,40.23429989814758
1617990459.14092,142.7121,40.24991989135742
1617990459.15655,153.0178,40.26554989814758
1617990459.17218,163.8816,40.281179904937744
1617990459.1878,175.9793,40.29679989814758
1617990459.20343,189.994,40.312429904937744
1617990459.21905,205.8167,40.32804989814758
1617990459.23468,222.1311,40.343679904937744
1617990459.2503,236.6854,40.35929989814758
1617990459.26593,246.9084,40.374929904937744
1617990459.28156,250.902,40.390559911727905
1617990459.29718,248.0235,40.406179904937744
1617990459.31281,238.9403,40.421809911727905
1617990459.32843,225.083,40.437429904937744
1617990459.34406,207.9449,40.453059911727905
1617990459.35968,188.583,40.468679904937744
1617990459.37531,167.604,40.484309911727905
1617990459.39094,145.5395,40.499939918518066
1617990459.40656,123.1853,40.515559911727905
1617990459.42219,101.7147,40.531189918518066
1617990459.43781,82.48349,40.546809911727905
1617990459.45344,66.59235,40.562439918518066
1617990459.46906,54.57224,40.578059911727905
1617990459.48469,46.32397,40.593689918518066
1617990459.50032,41.20721,40.60931992530823
1617990459.51594,38.40334,40.624939918518066
1617990459.53157,37.08777,40.64056992530823
1617990459.54719,36.40219,40.656189918518066
1617990459.56282,35.4204,40.67181992530823
1617990459.57844,33.04301,40.687439918518066
1617990459.59407,28.00093,40.70306992530823
1617990459.6097,19.20815,40.71869993209839
1617990459.62532,5.996521,40.73431992530823
1617990459.64095,-11.59383,40.74994993209839
1617990459.65657,-32.71441,40.76556992530823
1617990459.6722,-55.72286,40.78119993209839
1617990459.68782,-78.6767,40.79681992530823
1617990459.70345,-99.70541,40.81244993209839
1617990459.71908,-117.5877,40.82807993888855
1617990459.7347,-132.0475,40.84369993209839
1617990459.75033,-143.5547,40.85932993888855
1617990459.76595,-152.8713,40.87494993209839
1617990459.78158,-160.4957,40.89057993888855
1617990459.7972,-166.244,40.90619993209839
1617990459.81283,-169.1718,40.92182993888855
1617990459.82846,-168.0329,40.93745994567871
1617990459.84408,-161.7656,40.95307993888855
1617990459.85971,-149.9805,40.96870994567871
1617990459.87533,-133.1091,40.98432993888855
1617990459.89096,-112.2415,40.99995994567871
1617990459.90658,-88.82983,41.01557993888855
1617990459.92221,-64.45476,41.03120994567871
1617990459.93784,-40.70325,41.04683995246887
1617990459.95346,-19.02301,41.06245994567871
1617990459.96909,-0.6661987,41.07808995246887
1617990459.98471,13.62234,41.09370994567871
1617990460.00034,23.76344,41.10933995246887
1617990460.01596,30.41434,41.12495994567871
1617990460.03159,34.73947,41.14058995246887
1617990460.04722,37.9861,41.15621995925903
1617990460.06284,41.02963,41.17183995246887
1617990460.07847,44.06992,41.18746995925903
1617990460.09409,46.51424,41.20308995246887
1617990460.10972,47.14429,41.21871995925903
1617990460.12534,44.5417,41.23433995246887
1617990460.14097,37.59859,41.24996995925903
1617990460.1566,25.86134,41.265599966049194
1617990460.17222,9.775558,41.28121995925903
1617990460.18785,-9.51268,41.296849966049194
1617990460.20347,-30.46497,41.31246995925903
1617990460.2191,-51.5865,41.328099966049194
1617990460.23472,-71.72859,41.34371995925903
1617990460.25035,-90.10303,41.359349966049194
1617990460.26598,-106.149,41.374979972839355
1617990460.2816,-119.3149,41.390599966049194
1617990460.29723,-128.9704,41.406229972839355
1617990460.31285,-134.511,41.421849966049194
1617990460.32848,-135.6063,41.437479972839355
1617990460.34411,-132.4212,41.45310997962952
1617990460.35973,-125.6596,41.468729972839355
1617990460.37536,-116.3479,41.48435997962952
1617990460.39098,-105.4161,41.499979972839355
1617990460.40661,-93.2722,41.51560997962952
1617990460.42223,-79.65064,41.531229972839355
1617990460.43786,-63.84872,41.54685997962952
1617990460.45349,-45.34631,41.56248998641968
1617990460.46911,-24.47881,41.57810997962952
1617990460.48474,-2.889656,41.59373998641968
1617990460.50036,16.85908,41.60935997962952
1617990460.51599,32.12787,41.62498998641968
1617990460.53161,41.29974,41.64060997962952
1617990460.54724,44.4134,41.65623998641968
1617990460.56287,43.25479,41.67186999320984
1617990460.57849,40.61919,41.68748998641968
1617990460.59412,39.42395,41.70311999320984
1617990460.60974,41.91261,41.71873998641968
1617990460.62537,49.2486,41.73436999320984
1617990460.64099,61.53208,41.74998998641968
1617990460.65662,77.84827,41.76561999320984
1617990460.67225,96.4044,41.78125
1617990460.68787,114.7036,41.79686999320984
1617990460.7035,129.9907,41.8125
1617990460.71912,139.8148,41.82811999320984
1617990460.73475,142.7308,41.84375
1617990460.75037,138.7561,41.85936999320984
1617990460.766,129.3245,41.875
1617990460.78163,116.7264,41.89063000679016
1617990460.79725,103.3073,41.90625
