,index,PPG_Raw,PPG_Clean,PPG_Rate,PPG_Peaks,EDA_Raw,EDA_Clean,EDA_Tonic,EDA_Phasic,SCR_Onsets,SCR_Peaks,SCR_Height,SCR_Amplitude,SCR_RiseTime,SCR_Recovery,SCR_RecoveryTime,Index,Label,Condition,id
0,0.0,32.00259,77.6645624607455,85.80466984684911,0,0.1975443000000001,0.19752741075536373,0.1982193104398556,-0.000691903622698338,0,0,0,0,0,0,1,0,1,neutral,0
1,0.015873015873015872,31.60095,63.92076771005072,85.80466984684911,0,0.197620560716568,0.19791748661329298,0.19823346569433978,-0.0003159830143889316,0,0,0,0,0,0,1,1,1,neutral,0
2,0.031746031746031744,29.44227,53.80526803517292,85.80466984684911,0,0.19783832251643962,0.19831690154682008,0.19824759397777694,6.930364069430029e-05,0,0,0,0,0,0,0,2,1,neutral,0
3,0.047619047619047616,25.81098,47.218347403094725,85.80466984684911,0,0.19818105487486665,0.19873705787773094,0.1982616947774186,0.00047535917708655447,0,0,0,0,0,0,0,3,1,neutral,0
4,0.06349206349206349,21.20933,42.91927003161128,85.80466984684911,0,0.19863222726710075,0.19918760465389962,0.19827576758056245,0.0009118331553649743,0,0,0,0,0,0,0,4,1,neutral,0
5,0.07936507936507936,16.31822,39.518636348357134,85.80466984684911,0,0.19917530916839363,0.1996755163909609,0.19828981187479094,0.0013857006035826883,0,0,0,0,0,0,0,5,1,neutral,0
6,0.09523809523809523,11.86687,36.1425126869104,85.80466984684911,0,0.19979377005399696,0.20020441836322925,0.19830382714822667,0.001900587307932326,0,0,0,0,0,0,0,6,1,neutral,0
7,0.1111111111111111,8.299507,32.5282966774237,85.80466984684911,0,0.2004710793991625,0.20077420462832624,0.19831781288980857,0.002456387837097328,0,0,0,0,0,0,0,7,1,neutral,0
8,0.12698412698412698,5.671211,28.75754577689562,85.80466984684911,0,0.20119070667914193,0.20138096499006872,0.19833176858959078,0.003049192504841188,0,0,0,0,0,0,0,8,1,neutral,0
9,0.14285714285714285,3.616776,24.949278439056307,85.80466984684911,0,0.20193612136918695,0.2020172092339533,0.19834569373906427,0.003671511605170313,0,0,0,0,0,0,0,9,1,neutral,0
10,0.15873015873015872,1.574371,21.124797682095032,85.80466984684911,0,0.20269079294454923,0.20267235348971518,0.19835958783149885,0.004312761774550844,0,0,0,0,0,0,0,10,1,neutral,0
11,0.1746031746031746,-0.9102554,17.264405307433712,85.80466984684911,0,0.20343819088048043,0.2033334157856326,0.19837345036230147,0.004959961545854901,0,0,0,0,0,0,0,11,1,neutral,0
12,0.19047619047619047,-3.908165,13.435931620938073,85.80466984684911,0,0.20416178465223234,0.203985856289163,0.19838728082938478,0.005598571588628122,0,0,0,0,0,0,0,12,1,neutral,0
13,0.20634920634920634,-7.04966,9.846572592023431,85.80466984684911,0,0.2048450437350566,0.20461449233729725,0.1984010787335387,0.006213409739072257,0,0,0,0,0,0,0,13,1,neutral,0
14,0.2222222222222222,-9.72023,6.743573005631879,85.80466984684911,0,0.20547143760420494,0.20520441870970557,0.19841484357879685,0.006789571272824663,0,0,0,0,0,0,0,14,1,neutral,0
15,0.23809523809523808,-11.40471,4.207130822756387,85.80466984684911,0,0.20602443573492904,0.20574186898851055,0.1984285748727892,0.007313290264378854,0,0,0,0,0,0,0,15,1,neutral,0
16,0.25396825396825395,-12.12043,1.9675837892044252,85.80466984684911,0,0.2064875076024806,0.20621496340772846,0.19844227212707263,0.00777268743619491,0,0,0,0,0,0,0,16,1,neutral,0
17,0.2698412698412698,-12.5731,0.0,85.80466984684911,0,0.20684763920377766,0.2066143013165795,0.1984559348574316,0.008158362621709435,0,0,0,0,0,0,0,17,1,neutral,0
18,0.2857142857142857,-13.93634,0.0,85.80466984684911,0,0.20710859165392928,0.20693337112084234,0.19846956258414217,0.008463804706425798,0,0,0,0,0,0,0,18,1,neutral,0
19,0.30158730158730157,-17.36174,0.0,85.80466984684911,0,0.2072791226769514,0.2071687660393245,0.19848315483219406,0.008685607384162627,0,0,0,0,0,0,0,19,1,neutral,0
20,0.31746031746031744,-23.31532,0.0,85.80466984684911,0,0.20736799084474303,0.20732020885110886,0.19849671113146697,0.008823493904123961,0,0,0,0,0,0,0,20,1,neutral,0
21,0.3333333333333333,-31.24883,0.0,85.80466984684911,0,0.2073839547292031,0.20739040173749868,0.19851023101685927,0.008880166912715466,0,0,0,0,0,0,0,21,1,neutral,0
22,0.3492063492063492,-39.78317,0.0,85.80466984684911,0,0.2073357729022307,0.2073847273806699,0.19852371402836885,0.008861009552116024,0,0,0,0,0,0,0,22,1,neutral,0
23,0.36507936507936506,-47.33737,0.0,85.80466984684911,0,0.20723220393572486,0.20731083417542667,0.19853715971112756,0.008773670671998801,0,0,0,0,0,0,0,23,1,neutral,0
24,0.38095238095238093,-52.89069,0.0,85.80466984684911,0,0.20708200640158456,0.2071781417186998,0.1985505676153923,0.008627570319038486,0,0,0,0,0,0,0,24,1,neutral,0
25,0.3968253968253968,-56.60073,0.0,85.80466984684911,0,0.20689393887170873,0.20699730300725733,0.19856393729649702,0.008433361934670017,0,0,0,0,0,0,0,25,1,neutral,0
26,0.4126984126984127,-59.66678,0.0,85.80466984684911,0,0.20667675991799647,0.20677965756673147,0.198577268314771,0.00820238548419717,0,0,0,0,0,0,0,26,1,neutral,0
27,0.42857142857142855,-63.69203,0.0,85.80466984684911,0,0.20643922811234672,0.20653670571921312,0.19859056023542926,0.007946141724496647,0,0,0,0,0,0,0,27,1,neutral,0
28,0.4444444444444444,-69.71613,0.0,85.80466984684911,0,0.20619010202665855,0.20627962902887065,0.19860381262844198,0.007675812649767492,0,0,0,0,0,0,0,28,1,neutral,0
29,0.4603174603174603,-77.41769,0.0,85.80466984684911,0,0.2059381402328309,0.20601887622032541,0.19861702506838874,0.007401847410052331,0,0,0,0,0,0,0,29,1,neutral,0
30,0.47619047619047616,-85.03183,0.0,85.80466984684911,0,0.20569210130276283,0.20576382799397464,0.19863019713430463,0.007133627126714105,0,0,0,0,0,0,0,30,1,neutral,0
31,0.49206349206349204,-90.00329,0.0,85.80466984684911,0,0.20546074380835333,0.2055225484810264,0.19864332840952395,0.006879216347627485,0,0,0,0,0,0,0,31,1,neutral,0
32,0.5079365079365079,-90.20984,0.0,85.80466984684911,0,0.20525282632150138,0.20530162578278074,0.19865641848152682,0.00664520358661316,0,0,0,0,0,0,0,32,1,neutral,0
33,0.5238095238095237,-84.83408,0.0,85.80466984684911,0,0.20507589674361051,0.2051060992359594,0.1986694669417933,0.006436628588913674,0,0,0,0,0,0,0,33,1,neutral,0
34,0.5396825396825397,-74.94442,0.0,85.80466984684911,0,0.20493060096271734,0.20493946682432163,0.19868247338566913,0.006256989742943357,0,0,0,0,0,0,0,34,1,neutral,0
35,0.5555555555555556,-63.06801,0.0,85.80466984684911,0,0.20481514262248074,0.2048037626277186,0.1986954374122455,0.0061083215294631095,0,0,0,0,0,0,0,35,1,neutral,0
36,0.5714285714285714,-52.26997,0.0,85.80466984684911,0,0.20472772253474752,0.20469969151780976,0.1987083586242554,0.005991329217400161,0,0,0,0,0,0,0,36,1,neutral,0
37,0.5873015873015872,-45.2109,0.0,85.80466984684911,0,0.2046665415113647,0.20462680663461041,0.19872123662798755,0.005905566340481993,0,0,0,0,0,0,0,37,1,neutral,0
38,0.6031746031746031,-43.42863,0.0,85.80466984684911,0,0.20462980036417922,0.20458371460177524,0.1987340710332183,0.005849639912587764,0,0,0,0,0,0,0,38,1,neutral,0
39,0.6190476190476191,-47.34963,0.0,85.80466984684911,0,0.20461569990503795,0.20456829393093076,0.19874686145316148,0.005821428832131047,0,0,0,0,0,0,0,39,1,neutral,0
40,0.6349206349206349,-56.38374,0.0,85.80466984684911,0,0.20462244094578777,0.2045779134718441,0.19875960750443528,0.005818302332261644,1,0,0,0,0,0,0,40,1,neutral,0
41,0.6507936507936507,-68.92677,0.0,85.80466984684911,0,0.20464822429827575,0.2046096398448033,0.1987723088070451,0.005837327413262982,0,0,0,0,0,0,0,41,1,neutral,0
42,0.6666666666666666,-82.05305,0.0,85.80466984684911,0,0.2046912507743487,0.20466042526674555,0.19878496498438103,0.0058754566686831265,0,0,0,0,0,0,0,42,1,neutral,0
43,0.6825396825396826,-91.48754,0.0,85.80466984684911,0,0.20474972118585355,0.20472726978234282,0.19879757566322778,0.005929690516410212,0,0,0,0,0,0,0,43,1,neutral,0
44,0.6984126984126984,-92.43112,0.0,85.80466984684911,0,0.2048218363446373,0.20480735440205006,0.19881014047378612,0.005997210336699208,0,0,0,0,0,0,0,44,1,neutral,0
45,0.7142857142857142,-81.37939,0.0,85.80466984684911,0,0.20490579706254677,0.2048981438545761,0.1988226590497035,0.006075481224612339,0,0,0,0,0,0,0,45,1,neutral,0
46,0.7301587301587301,-58.27964,0.0,85.80466984684911,0,0.204999804151429,0.20499745947015235,0.19883513102811262,0.006162324873249269,0,0,0,0,0,0,0,46,1,neutral,0
47,0.746031746031746,-27.59605,0.0,85.80466984684911,0,0.20510205842313078,0.20510352407625745,0.19884755604967608,0.006255964469426838,0,0,0,0,0,0,0,47,1,neutral,0
48,0.7619047619047619,2.501312,0.0,85.80466984684911,0,0.20521076068949917,0.20521498171702812,0.19885993375863642,0.00635504441304018,0,0,0,0,0,0,0,48,1,neutral,0
49,0.7777777777777777,22.97914,0.0,85.80466984684911,0,0.20532430711618327,0.20533089554917344,0.19887226380287001,0.0064586282129228696,0,0,0,0,0,0,0,49,1,neutral,0
50,0.7936507936507936,27.53584,0.0,85.80466984684911,0,0.2054424304496661,0.20545072748927984,0.19888454583394438,0.006566178134094716,0,0,0,0,0,0,0,50,1,neutral,0
51,0.8095238095238095,15.18829,0.0,85.80466984684911,0,0.20556542297510935,0.2055743031604838,0.1988967795071781,0.006677520144374507,0,0,0,0,0,0,0,51,1,neutral,0
52,0.8253968253968254,-9.46299,0.0,85.80466984684911,0,0.20569357887268727,0.20570176547160918,0.1989089644817032,0.006792797493454908,0,0,0,0,0,0,0,52,1,neutral,0
53,0.8412698412698412,-38.43705,0.0,85.80466984684911,0,0.20582719232257393,0.20583351981088924,0.19892110042052993,0.006912415906559885,0,0,0,0,0,0,0,53,1,neutral,0
54,0.8571428571428571,-63.86596,0.0,85.80466984684911,0,0.2059665575049435,0.20597017340084778,0.19893318699061383,0.0070369829392585665,0,0,0,0,0,0,0,54,1,neutral,0
55,0.873015873015873,-80.9117,0.0,85.80466984684911,0,0.2061119685999701,0.20611247089889445,0.19894522386292518,0.007167243577991179,0,0,0,0,0,0,0,55,1,neutral,0
56,0.8888888888888888,-88.68763,0.0,85.80466984684911,0,0.20626371978782787,0.206261227902339,0.19895721071252165,0.007304013745010713,0,0,0,0,0,0,0,56,1,neutral,0
57,0.9047619047619047,-89.14256,0.0,85.80466984684911,0,0.20642210524869098,0.20641726368489707,0.19896914721862421,0.007448113034812669,0,0,0,0,0,0,0,57,1,neutral,0
58,0.9206349206349206,-84.89671,0.0,85.80466984684911,0,0.20658741916273354,0.20658133429730696,0.19898103306469675,0.0076002978146724465,0,0,0,0,0,0,0,58,1,neutral,0
59,0.9365079365079365,-77.31509,0.0,85.80466984684911,0,0.2067599557101297,0.20675406712728445,0.19899286793852983,0.007761195784516065,0,0,0,0,0,0,0,59,1,neutral,0
60,0.9523809523809523,-65.98239,0.0,85.80466984684911,0,0.20694000907105353,0.20693589812631824,0.1990046515323294,0.007931243203627166,0,0,0,0,0,0,0,60,1,neutral,0
61,0.9682539682539681,-49.53723,0.0,85.80466984684911,0,0.20712787342567934,0.2071270131378365,0.19901638354281032,0.008110626218719994,0,0,0,0,0,0,0,61,1,neutral,0
62,0.9841269841269841,-26.94969,0.0,85.80466984684911,0,0.20732384295418108,0.20732729504432354,0.199028063671295,0.008299228010957376,0,0,0,0,0,0,0,62,1,neutral,0
63,1.0,1.471558,0.0,85.80466984684911,0,0.207528211836733,0.20753627871504216,0.1990396916238177,0.008496583743568684,0,0,0,0,0,0,0,63,1,neutral,0
0,0.0,24.8717,41.24967611284466,96.0,0,0.17149603165444763,0.1715858375834155,0.2148859142819308,-0.04330177749904089,0,0,0,0,0,0,0,1606,3,neutral,2
1,0.015873015873015872,26.01833,42.48439528825168,96.0,1,0.16855922425276207,0.16859407821169367,0.2148422248651823,-0.04624985200203027,0,0,0,0,0,0,0,1607,3,neutral,2
2,0.031746031746031744,25.24301,41.711750609032364,96.00979834652904,0,0.16581892441259133,0.16578870337293614,0.2147986687014714,-0.049011675215540514,0,0,0,0,0,0,0,1608,3,neutral,2
3,0.047619047619047616,23.23667,39.60546077359526,96.03850501367364,0,0.16329051215943796,0.1631919504477761,0.21475524717559769,-0.051565011143561754,0,0,0,0,0,0,0,1609,3,neutral,2
4,0.06349206349206349,20.65637,36.83488519900581,96.08510234680813,0,0.16098936751880438,0.16082533758529696,0.21471196164396572,-0.053888342993237894,0,0,0,0,0,0,0,1610,3,neutral,2
5,0.07936507936507936,17.99976,33.914279326613155,96.14858945155073,0,0.15893087051619315,0.15870984941771313,0.2146688134331088,-0.05596068745870951,0,0,0,0,0,0,0,1611,3,neutral,2
6,0.09523809523809523,15.56552,31.12210820137033,96.22797851740894,0,0.15713040117710644,0.15686603173230518,0.21462580383834606,-0.057761500047835826,0,0,0,0,0,0,0,1612,3,neutral,2
7,0.1111111111111111,13.43756,28.504828777596547,96.32229138171897,0,0.1556033395270475,0.15531395882494584,0.2145829341225851,-0.059270707727471506,0,0,0,0,0,0,0,1613,3,neutral,2
8,0.12698412698412698,11.50311,25.95677046419237,96.43055631830413,0,0.15436506559151847,0.15407304660438578,0.2145402055152825,-0.06046889581814116,0,0,0,0,0,0,0,1614,3,neutral,2
9,0.14285714285714285,9.555283,23.34515591263929,96.55180503827091,0,0.15343095939602186,0.1531616969720969,0.21449761921157293,-0.06133766361332532,0,0,0,0,0,0,0,1615,3,neutral,2
10,0.15873015873015872,7.453865,20.63163085166765,96.68506989310467,0,0.1528164009660602,0.15259677378192804,0.21445517637157896,-0.06186014841911436,0,0,0,0,0,0,0,1616,3,neutral,2
11,0.1746031746031746,5.231956,17.937433469037504,96.82938127274734,0,0.15253677032713595,0.15239292672998703,0.21441287811991147,-0.062021701663827054,0,0,0,0,0,0,0,1617,3,neutral,2
12,0.19047619047619047,3.173439,15.516509847604862,96.98376519366514,0,0.15260744750475164,0.15256179556003188,0.21437072554537054,-0.061810684692320164,0,0,0,0,0,0,0,1618,3,neutral,2
13,0.20634920634920634,1.711517,13.639057542730113,97.14724107406316,0,0.1530438125244098,0.153111141564992,0.21432871970085493,-0.06121933726437673,0,0,0,0,0,0,0,1619,3,neutral,2
14,0.2222222222222222,1.145332,12.433384811524984,97.31881969539096,0,0.15386124541161317,0.1540439650436018,0.21428686160348692,-0.0602446600981973,0,0,0,0,0,0,0,1620,3,neutral,2
15,0.23809523809523808,1.464134,11.763344282494673,97.49750135112124,0,0.15507512619186387,0.15535767474561113,0.21424515223495638,-0.058889245425533615,0,0,0,0,0,0,0,1621,3,neutral,2
16,0.25396825396825395,2.193291,11.212125443661813,97.68227418547295,0,0.15670082878689554,0.1570433772979962,0.21420359254208604,-0.05716198756604274,0,0,0,0,0,0,0,1622,3,neutral,2
17,0.2698412698412698,2.603447,10.198395598236356,97.87211272629983,0,0.158739743424388,0.15908535054176925,0.2141621834376158,-0.05507860959126194,0,0,0,0,0,0,0,1623,3,neutral,2
18,0.2857142857142857,1.938164,8.186851483587963,98.06597661776752,0,0.16114945814628653,0.16146075476953023,0.21412092580120104,-0.0526619520880551,0,0,0,0,0,0,0,1624,3,neutral,2
19,0.30158730158730157,-0.2104721,4.904062113430448,98.26280955969585,0,0.1638790074957899,0.16413962108677935,0.21407982048061547,-0.04994198479850328,0,0,0,0,0,0,0,1625,3,neutral,2
20,0.31746031746031744,-3.713181,0.45955239537245246,98.46153846153847,0,0.1668774260160968,0.1670851383581806,0.2140388682931457,-0.04695551967503563,0,0,0,0,0,0,0,1626,3,neutral,2
21,0.3333333333333333,-7.998062,0.0,98.66107281989811,0,0.17009374825040685,0.17025424159556535,0.21399807002715981,-0.04374562249399428,0,0,0,0,0,0,0,1627,3,neutral,2
22,0.3492063492063492,-12.26674,0.0,98.86030432922206,0,0.17347700874191732,0.17359848706505446,0.2139574264438289,-0.04036073775023382,0,0,0,0,0,0,0,1628,3,neutral,2
23,0.36507936507936506,-15.90311,0.0,99.05810673586822,0,0.17697624203382764,0.17706518402243418,0.21391693827897662,-0.03685355692359506,0,0,0,0,0,0,0,1629,3,neutral,2
24,0.38095238095238093,-18.67341,0.0,99.25333594606714,0,0.1805404826693366,0.18059874030052864,0.2138766062450293,-0.03327967289348252,0,0,0,0,0,0,0,1630,3,neutral,2
25,0.3968253968253968,-20.88487,0.0,99.44483039840517,0,0.18411876519164297,0.18414216894382346,0.21383643103303618,-0.029696073306261072,0,0,0,0,0,0,0,1631,3,neutral,2
26,0.4126984126984127,-23.17362,0.0,99.63141171130276,0,0.18766012414394553,0.18763869547178597,0.21379641331472785,-0.026159533313994277,0,0,0,0,0,0,0,1632,3,neutral,2
27,0.42857142857142855,-26.26582,0.0,99.81188561554029,0,0.191113594069443,0.19103339993493648,0.21375655374458066,-0.02272497352043733,0,0,0,0,0,0,0,1633,3,neutral,2
28,0.4444444444444444,-30.56611,0.0,99.98504318117111,0,0.1944282095113342,0.19427482467707197,0.2137168529618541,-0.019443852220850863,0,0,0,0,0,0,0,1634,3,neutral,2
29,0.4603174603174603,-35.8706,0.0,100.14966234714365,0,0.19755300501281856,0.19731647786981354,0.21367731159256997,-0.016362661869432707,0,0,0,0,0,0,0,1635,3,neutral,2
30,0.47619047619047616,-41.20159,0.0,100.30450976061175,0,0.2004370151170934,0.20011816493012843,0.2136379302514041,-0.01352159766368745,0,0,0,0,0,0,0,1636,3,neutral,2
31,0.49206349206349204,-44.81863,0.0,100.44834293123833,0,0.20302927436735818,0.2026470854983325,0.2135987095434637,-0.010953460568201415,0,0,0,0,0,0,0,1637,3,neutral,2
32,0.5079365079365079,-44.65218,0.0,100.57991270377711,0,0.2052788174781056,0.20487864331481045,0.21355965006592728,-0.008682847439562283,0,0,0,0,0,0,0,1638,3,neutral,2
33,0.5238095238095237,-38.797,0.0,100.69796604985473,0,0.20714894085091332,0.20679693031617202,0.21352075240952878,-0.006725666931687014,0,0,0,0,0,0,0,1639,3,neutral,2
34,0.5396825396825397,-26.35956,0.0,100.80124917716577,0,0.20865611668130052,0.20839486413521954,0.21348201715987117,-0.005089001997168,0,0,0,0,0,0,0,1640,3,neutral,2
35,0.5555555555555556,-8.007004,0.0,100.88851095125372,0,0.20982920820937545,0.20967397859434742,0.21344344489856074,-0.003771319395007843,0,0,0,0,0,0,0,1641,3,neutral,2
36,0.5714285714285714,13.73863,0.0,100.95850662169154,0,0.21069707867524615,0.21064388757651958,0.2134050362041579,-0.002763005820592573,0,0,0,0,0,0,0,1642,3,neutral,2
37,0.5873015873015872,34.89719,9.76237346731158,101.0100018408296,0,0.2112885913190211,0.21132146138911648,0.21336679165294492,-0.002047191542612553,0,0,0,0,0,0,0,1643,3,neutral,2
38,0.6031746031746031,50.93537,22.64728193412414,101.04177695937392,0,0.2116326093808081,0.21172976936383667,0.21332871181951615,-0.001600807803751065,0,0,0,0,0,0,0,1644,3,neutral,2
39,0.6190476190476191,57.9874,27.01032698947761,101.05263157894737,1,0.21175799610071547,0.2118968518305081,0.2132907972772004,-0.0013958148472953005,0,0,0,0,0,0,0,1645,3,neutral,2
40,0.6349206349206349,53.99977,21.088013947525184,101.04401412743647,0,0.21169361471885137,0.21185438861449374,0.21325304859832822,-0.00140053341999818,0,0,0,0,0,0,0,1646,3,neutral,2
41,0.6507936507936507,39.33349,5.1893918834023545,101.01842291250918,0,0.21146832847532404,0.21163633042987928,0.21321546635436,-0.0015810133790185746,0,0,0,0,0,0,0,1647,3,neutral,2
42,0.6666666666666666,16.64569,0.0,100.97626188779576,0,0.21111100061024166,0.21127755498429462,0.2131780511158931,-0.0019023775871070078,0,0,0,0,0,0,0,1648,3,neutral,2
43,0.6825396825396826,-10.03746,0.0,100.91795027625142,0,0.21065049436371233,0.21081260241433486,0.21314080345256703,-0.0023300864770900314,0,0,0,0,0,0,0,1649,3,neutral,2
44,0.6984126984126984,-36.5126,0.0,100.84392124709902,0,0.21011567297584416,0.21027453588313494,0.21310372393288704,-0.00283107745411879,0,0,0,0,0,0,0,1650,3,neutral,2
45,0.7142857142857142,-59.5339,0.0,100.75462059503457,0,0.20953539968674553,0.2096939636178606,0.21306681312398518,-0.0033747428579394595,0,0,0,0,0,0,0,1651,3,neutral,2
46,0.7301587301587301,-77.37753,0.0,100.65050542780726,0,0.20893853773652452,0.20909824888279666,0.21303007159133838,-0.003933719989522836,0,0,0,0,0,0,0,1652,3,neutral,2
47,0.746031746031746,-89.69946,0.0,100.53204286794158,0,0.2083539503652893,0.20851092463832596,0.2129934998984607,-0.004484476451777736,0,0,0,0,0,0,0,1653,3,neutral,2
48,0.7619047619047619,-96.9957,0.0,100.39970877400081,0,0.2078105008131481,0.2079513199984434,0.21295709860658554,-0.005007683691719208,0,0,0,0,0,0,0,1654,3,neutral,2
49,0.7777777777777777,-99.77927,0.0,100.2539864864009,0,0.20733196882656352,0.2074343960817034,0.21292086827435147,-0.0054883811492069225,0,0,0,0,0,0,0,1655,3,neutral,2
50,0.7936507936507936,-98.24294,0.0,100.09536560237673,0,0.2069195366940303,0.2069707795737854,0.21288480945750288,-0.005915942694080064,0,0,0,0,0,0,0,1656,3,neutral,2
51,0.8095238095238095,-92.32037,0.0,99.9243407842869,0,0.20656810986502072,0.20656697365439552,0.21284892270861394,-0.006283865698979965,0,0,0,0,0,0,0,1657,3,neutral,2
52,0.8253968253968254,-82.15381,0.0,99.74141060501927,0,0.2062725935430839,0.20622571851941068,0.2128132085768423,-0.006589410516959481,0,0,0,0,0,0,0,1658,3,neutral,2
53,0.8412698412698412,-68.72096,0.0,99.5470764338339,0,0.20602789293176943,0.2059464682748116,0.21277766760771624,-0.006833123587337148,0,0,0,0,0,0,0,1659,3,neutral,2
54,0.8571428571428571,-53.92352,0.0,99.34184136555825,0,0.20582891323462651,0.20572594803692426,0.2127423003429571,-0.007018280335278309,0,0,0,0,0,0,0,1660,3,neutral,2
55,0.873015873015873,-40.30998,0.0,99.12620919563226,0,0.20567055965520448,0.20555875481537442,0.21270710732033696,-0.007150284288697925,0,0,0,0,0,0,0,1661,3,neutral,2
56,0.8888888888888888,-30.34764,0.0,98.90068344309296,0,0.2055477373970527,0.20543796795785763,0.2126720890735695,-0.007236056633381845,0,0,0,0,0,0,0,1662,3,neutral,2
57,0.9047619047619047,-25.93077,0.0,98.66576642319559,0,0.20545535166372045,0.2053557390891881,0.21263724613223137,-0.007283446273859017,0,0,0,0,0,0,0,1663,3,neutral,2
58,0.9206349206349206,-28.07617,0.0,98.42195837098637,0,0.2053883076587571,0.20530383692793616,0.21260257902171023,-0.0073006850167121875,0,0,0,0,0,0,0,1664,3,neutral,2
59,0.9365079365079365,-37.03873,0.0,98.16975661678183,0,0.2053415105857119,0.2052741284416457,0.21256808826317472,-0.007295906415330343,0,0,0,0,0,0,0,1665,3,neutral,2
60,0.9523809523809523,-52.46446,0.0,97.90965481416598,0,0.20530986564813428,0.20525898391021163,0.21253377437356222,-0.007276740706519008,0,0,0,0,0,0,0,1666,3,neutral,2
61,0.9682539682539681,-73.37799,0.0,97.6421422207951,0,0.2052882780495735,0.2052515991435228,0.21249963786557932,-0.007249992592858061,0,0,0,0,0,0,0,1667,3,neutral,2
62,0.9841269841269841,-97.86853,0.0,97.36770303199995,0,0.20527165299357897,0.2052462330405928,0.21246567924771118,-0.00722140368357992,0,0,0,0,0,0,0,1668,3,neutral,2
63,1.0,-122.923,0.0,97.08681576689798,0,0.2052548956836999,0.2052383627379329,0.21243189902423518,-0.007195497346210391,0,0,0,0,0,0,0,1669,3,neutral,2
0,0.0,19.42708,35.26766013244302,88.44424476556547,0,0.30090330259669584,0.3010076417241202,0.2919878415985701,0.009060399951522975,0,0,0,0,0,0,0,2783,5,neutral,4
1,0.015873015873015872,13.35955,29.52257026217292,88.07711772528182,0,0.3026815712205019,0.30276399123270437,0.2920268750704709,0.010777524359286212,0,0,0,0,0,0,0,2784,5,neutral,4
2,0.031746031746031744,7.234444,23.701789349390697,87.65473371952291,0,0.30447415960116636,0.3045420032581678,0.29206557903480623,0.012516638479523534,0,0,0,0,0,0,0,2785,5,neutral,4
3,0.047619047619047616,1.790825,18.495701739835226,87.18026180496655,0,0.3062454501870054,0.30630116453314155,0.29210395382276194,0.014237228702263818,0,0,0,0,0,0,0,2786,5,neutral,4
4,0.06349206349206349,-2.287086,14.534831734301674,86.65697532978085,0,0.30795982542633515,0.3079996106396336,0.29214199977276256,0.015897430259651214,0,0,0,0,0,0,0,2787,5,neutral,4
5,0.07936507936507936,-4.5989,12.236765591797715,86.08821984183814,0,0.3095816677674716,0.30959554292708397,0.29217971723145797,0.017455444143012987,0,0,0,0,0,0,0,2788,5,neutral,4
6,0.09523809523809523,-5.048813,11.698325857941661,85.47738255613994,0,0.3110753596587309,0.3110486811570514,0.29221710655467553,0.018870989746594763,0,0,0,0,0,0,0,2789,5,neutral,4
7,0.1111111111111111,-3.917229,12.666249247146897,84.82786373677551,0,0.31240528354842967,0.3123216962432973,0.2922541681083132,0.020106737606751288,0,0,0,0,0,0,0,2790,5,neutral,4
8,0.12698412698412698,-1.754524,14.594282770028679,84.14305027174888,0,0.3135358218848828,0.31338156563342945,0.2922909022691504,0.021129664782778865,0,0,0,0,0,0,0,2791,5,neutral,4
9,0.14285714285714285,0.6742554,16.769619439998245,83.42629164356038,0,0.3144313571164071,0.31420079385826094,0.2923273094255567,0.021912275405566776,0,0,0,0,0,0,0,2792,5,neutral,4
10,0.15873015873015872,2.6334,18.473261499141717,82.68087842680836,0,0.31505627169131845,0.31475844326101693,0.2923633899780773,0.022433631406217812,0,0,0,0,0,0,0,2793,5,neutral,4
11,0.1746031746031746,3.546814,19.131596212205547,81.91002337807755,0,0.31537494805793315,0.315040925636519,0.2923991443398819,0.02268014415478411,0,1,0,0,0,0,0,2794,5,neutral,4
12,0.19047619047619047,3.104797,18.421708277991986,81.1168451243153,0,0.3153579287424857,0.3150425149602523,0.2924345729370634,0.02264608718903618,0,0,0,0,0,0,0,2795,5,neutral,4
13,0.20634920634920634,1.312454,16.308226851210428,80.30435440460258,0,0.3150206040649955,0.3147655545438657,0.2924696762087794,0.022333803369820587,0,0,0,0,0,0,0,2796,5,neutral,4
14,0.2222222222222222,-1.587135,13.00897403131067,79.47544277711349,0,0.3143982025928405,0.31422034801743537,0.2925044546072335,0.02175359586334354,0,0,0,0,0,0,0,2797,5,neutral,4
15,0.23809523809523808,-5.226532,8.90379266905977,78.63287366816958,0,0.31352604097689735,0.3134247409229967,0.292538908597497,0.02092330973488067,0,0,0,0,0,0,0,2798,5,neutral,4
16,0.25396825396825395,-9.219101,4.411524658189666,77.77927561336932,0,0.3124394358680428,0.3124034164010243,0.2925730386571772,0.019867627635588865,0,0,0,0,0,0,0,2799,5,neutral,4
17,0.2698412698412698,-13.25832,0.0,76.91713752131062,0,0.31117370391715354,0.3111869426457926,0.29260684527594266,0.018617117258341816,0,0,0,0,0,0,0,2800,5,neutral,4
18,0.2857142857142857,-17.18132,0.0,76.04880577775383,0,0.30976416177510624,0.3098106203687093,0.29264032895491915,0.017207078801667667,0,0,0,0,0,0,0,2801,5,neutral,4
19,0.30158730158730157,-20.9675,0.0,75.17648300141363,0,0.3082461260927777,0.3083131851324369,0.29267349020597416,0.015676247304586097,0,0,0,0,0,0,0,2802,5,neutral,4
20,0.31746031746031744,-24.82346,0.0,74.30222826108125,0,0.30665491352104457,0.3067354224356164,0.2927063295509094,0.0140654077321399,0,0,0,0,0,0,0,2803,5,neutral,4
21,0.3333333333333333,-29.10055,0.0,73.42795856661216,0,0.3050258407107835,0.30511875351903756,0.292738847520584,0.012415980782441938,0,0,0,0,0,0,0,2804,5,neutral,4
22,0.3492063492063492,-34.09465,0.0,72.55545145263895,0,0.3033942243128713,0.3035038477874449,0.29277104465399106,0.010768635309404638,0,0,0,0,0,0,0,2805,5,neutral,4
23,0.36507936507936506,-39.91987,0.0,71.68634848290387,0,0.3017953809781839,0.3019293141317532,0.2928029214973122,0.009161979645901396,0,0,0,0,0,1,0,2806,5,neutral,4
24,0.38095238095238093,-46.19395,0.0,70.82215951413865,0,0.3002646273575995,0.30043051868462156,0.2928344786029722,0.007631379360285665,0,0,0,0,0,0,0,2807,5,neutral,4
25,0.3968253968253968,-51.96951,0.0,69.96426757081576,0,0.2988372801019941,0.29903857075424045,0.2928657165287166,0.0062079431911011215,0,0,0,0,0,0,0,2808,5,neutral,4
26,0.4126984126984127,-55.95182,0.0,69.11393419530941,0,0.2975486558622444,0.29777951171919104,0.29289663583673237,0.004917711942820188,0,0,0,0,0,0,0,2809,5,neutral,4
27,0.42857142857142855,-56.82123,0.0,68.27230515157007,0,0.296434071289227,0.2966737332661787,0.29292723709282875,0.0037810767243967314,0,0,0,0,0,0,0,2810,5,neutral,4
28,0.4444444444444444,-53.67028,0.0,67.44041637395794,0,0.2955252522096485,0.29573564130341334,0.2929575208656945,0.0028124428633894277,0,0,0,0,0,0,0,2811,5,neutral,4
29,0.4603174603174603,-46.41504,0.0,66.61920006609176,0,0.2948222603294794,0.29497357026206644,0.2929874877262421,0.002020144208074795,0,0,0,0,0,0,0,2812,5,neutral,4
30,0.47619047619047616,-35.84235,0.0,65.80949086722178,0,0.2943086779798528,0.2943899398725698,0.2930171382470481,0.0014065999043054653,0,0,0,0,0,0,0,2813,5,neutral,4
31,0.49206349206349204,-23.4362,0.0,65.01203201555886,0,0.29396794596659426,0.2939816339655177,0.29304647300189396,0.0009686931968724138,0,0,0,0,0,0,0,2814,5,neutral,4
32,0.5079365079365079,-11.0062,0.0,64.22748144906882,0,0.2937835050955293,0.293740569782002,0.2930754925654089,0.000698340740196212,0,0,0,0,0,0,0,2815,5,neutral,4
33,0.5238095238095237,-0.2324448,0.0,63.456417794404935,0,0.29373879617248333,0.29365441792433056,0.29310419751281347,0.0005832125493026689,0,0,0,0,0,0,0,2816,5,neutral,4
34,0.5396825396825397,7.760071,1.6793728711558842,62.699346203866455,0,0.2938172600032818,0.2937074281601479,0.2931325884197594,0.0006075578041041287,0,0,0,0,0,0,0,2817,5,neutral,4
35,0.5555555555555556,12.51748,5.222486040747989,61.9567040085364,0,0.29400233739375026,0.2938813149095917,0.2931606658622584,0.0007530903366267383,0,0,0,0,0,0,0,2818,5,neutral,4
36,0.5714285714285714,14.32285,5.866987614898259,61.2288661630877,0,0.2942774691497141,0.2941561579874004,0.2931884304166909,0.0009998893731097205,0,0,0,0,0,0,0,2819,5,neutral,4
37,0.5873015873015872,13.91855,4.1919593766732275,60.516150464190524,0,0.2946260960769989,0.2945112783327949,0.2932158826598852,0.0013272752638080233,0,0,0,0,0,0,0,2820,5,neutral,4
38,0.6031746031746031,12.15671,0.900920206000702,59.8188225300574,0,0.29503165898143024,0.2949260542317698,0.29324302316925477,0.0017146257051465288,0,0,0,0,0,0,0,2821,5,neutral,4
39,0.6190476190476191,9.661911,0.0,59.13710053348527,0,0.29547759866883316,0.2953806501618885,0.29326985252298277,0.002142104584330746,0,0,0,0,0,0,0,2822,5,neutral,4
40,0.6349206349206349,6.620605,0.0,58.47115968485741,0,0.2959473559450335,0.29585663726141864,0.29329637130024117,0.0025912824482630763,0,0,0,0,0,0,0,2823,5,neutral,4
41,0.6507936507936507,2.865494,0.0,57.82113646502308,0,0.29642437161585666,0.2963374911341919,0.2933225800814338,0.0030456343081600758,0,0,0,0,0,0,0,2824,5,neutral,4
42,0.6666666666666666,-1.891434,0.0,57.18713261084061,0,0.296892086487128,0.2968089590409603,0.29334847944845277,0.0034909068306524273,0,0,0,0,0,0,0,2825,5,neutral,4
43,0.6825396825396826,-7.770523,0.0,56.56921885851922,0,0.297333941364673,0.29725929444898574,0.29337406998493804,0.0039153528871149305,0,0,0,0,0,0,0,2826,5,neutral,4
44,0.6984126984126984,-14.53329,0.0,55.967438451786,0,0.2977344406443488,0.2976793624486273,0.2933993522765327,0.0043098369699986205,0,0,0,0,0,0,0,2827,5,neutral,4
45,0.7142857142857142,-21.63913,0.0,55.381810423394505,0,0.29808956286871513,0.29806262471412764,0.2934243269111271,0.004667820153373555,0,0,0,0,0,0,0,2828,5,neutral,4
46,0.7301587301587301,-28.43509,0.0,54.81233265963884,0,0.29840228741599367,0.29840501738350944,0.29344899447908607,0.004985237972597895,0,0,0,0,0,0,0,2829,5,neutral,4
47,0.746031746031746,-34.46011,0.0,54.258984758385346,0,0.2986756935507726,0.29870473919949914,0.29347335557345583,0.0052602885650350935,0,0,0,0,0,0,0,2830,5,neutral,4
48,0.7619047619047619,-39.56651,0.0,53.72173069173458,0,0.29891286053764005,0.29896197013653464,0.29349741079014796,0.005493151296877807,0,0,0,0,0,0,0,2831,5,neutral,4
49,0.7777777777777777,-44.03984,0.0,53.200521284815224,0,0.2991168676411841,0.29917854223709545,0.2935211607280991,0.005685657599318423,0,0,0,0,0,0,0,2832,5,neutral,4
50,0.7936507936507936,-48.45248,0.0,52.69529652242843,0,0.29929079412599313,0.299357584375465,0.2935446059894069,0.0058409357321754975,0,0,0,0,0,0,0,2833,5,neutral,4
51,0.8095238095238095,-53.50529,0.0,52.205987695336205,0,0.29943771925665513,0.29950316126215437,0.2935677471794431,0.00596304978820477,0,0,0,0,0,0,0,2834,5,neutral,4
52,0.8253968253968254,-59.80647,0.0,51.73251939795069,0,0.2995607222977583,0.299619924476065,0.29359058490694484,0.006056650725170809,0,0,0,0,0,0,0,2835,5,neutral,4
53,0.8412698412698412,-67.72264,0.0,51.274811389056794,0,0.29966288251389084,0.29971279003639406,0.2936131197840873,0.006126653937679841,0,0,0,0,0,0,0,2836,5,neutral,4
54,0.8571428571428571,-77.35802,0.0,50.832780327011186,0,0.2997472791696409,0.299786653392891,0.2936353524265393,0.006177954247380808,0,0,0,0,0,0,0,2837,5,neutral,4
55,0.873015873015873,-88.63873,0.0,50.40634139062384,0,0.2998169915295967,0.299846149073449,0.2936572834535059,0.006215185550514448,0,0,0,0,0,0,0,2838,5,neutral,4
56,0.8888888888888888,-101.4311,0.0,49.99540979666287,0,0.2998750988583462,0.2998954588589981,0.2936789134877594,0.006242528992775807,0,0,0,0,0,0,0,2839,5,neutral,4
57,0.9047619047619047,-115.5699,0.0,49.599902224640815,0,0.29992468042047776,0.29993816944081375,0.2937002431556626,0.006263570626599284,0,0,0,0,0,0,0,2840,5,neutral,4
58,0.9206349206349206,-130.7191,0.0,49.21973815925624,0,0.2999688154805795,0.29997717814357266,0.2937212730871858,0.006281207134198214,0,0,0,0,0,0,0,2841,5,neutral,4
59,0.9365079365079365,-146.1812,0.0,48.85484116058596,0,0.30001058330323965,0.300014643475843,0.2937420039159201,0.006297596378041644,0,0,0,0,0,0,0,2842,5,neutral,4
60,0.9523809523809523,-160.6763,0.0,48.50514007186368,0,0.30005288053207596,0.30005197594761424,0.2937624362790883,0.006314148218373377,0,0,0,0,0,0,0,2843,5,neutral,4
61,0.9682539682539681,-172.5231,0.0,48.17057017444416,0,0.3000961612134124,0.30008986369571616,0.29378257081755554,0.006331550138620997,0,0,0,0,0,0,0,2844,5,neutral,4
62,0.9841269841269841,-179.7944,0.0,47.85107429935099,0,0.30013913714793383,0.30012832691313174,0.2938024081758385,0.006349821674699125,0,0,0,0,0,0,0,2845,5,neutral,4
63,1.0,-180.7047,0.0,47.54660390464194,0,0.3001804826179665,0.3001667948449523,0.29382194900211633,0.0063683914109542265,0,0,0,0,0,0,0,2846,5,neutral,4
