timestamp,value,norm_ts
1618837280.67478,-2.234589,5.330579996109009
1618837280.6904,4.129677,5.346199989318848
1618837280.70603,9.594353,5.361829996109009
1618837280.72165,14.22195,5.377449989318848
1618837280.73728,18.11324,5.393079996109009
1618837280.7529,21.32837,5.408699989318848
1618837280.76853,23.79812,5.424329996109009
1618837280.78416,25.397,5.43996000289917
1618837280.79978,26.0228,5.455579996109009
1618837280.81541,25.69138,5.47121000289917
1618837280.83103,24.56062,5.486829996109009
1618837280.84666,22.92196,5.50246000289917
1618837280.86228,21.10014,5.518079996109009
1618837280.87791,19.34083,5.53371000289917
1618837280.89354,17.81196,5.549340009689331
1618837280.90916,16.57292,5.56496000289917
1618837280.92479,15.63654,5.580590009689331
1618837280.94041,15.00536,5.59621000289917
1618837280.95604,14.67721,5.611840009689331
1618837280.97167,14.61581,5.627470016479492
1618837280.98729,14.67977,5.643090009689331
1618837281.00292,14.69429,5.658720016479492
1618837281.01854,14.44417,5.674340009689331
1618837281.03417,13.81296,5.689970016479492
1618837281.04979,12.76387,5.705590009689331
1618837281.06542,11.37096,5.721220016479492
1618837281.08105,9.716621,5.736850023269653
1618837281.09667,7.869064,5.752470016479492
1618837281.1123,5.840508,5.768100023269653
1618837281.12792,3.649307,5.783720016479492
1618837281.14355,1.34259,5.799350023269653
1618837281.15917,-1.025833,5.814970016479492
1618837281.1748,-3.416351,5.830600023269653
1618837281.19043,-5.90358,5.8462300300598145
1618837281.20605,-8.665169,5.861850023269653
1618837281.22168,-11.93391,5.8774800300598145
1618837281.2373,-15.9273,5.893100023269653
1618837281.25293,-20.6573,5.9087300300598145
1618837281.26855,-25.96089,5.924350023269653
1618837281.28418,-31.49873,5.9399800300598145
1618837281.29981,-36.81723,5.955610036849976
1618837281.31543,-41.42258,5.9712300300598145
1618837281.33106,-44.78826,5.986860036849976
1618837281.34668,-46.4159,6.0024800300598145
1618837281.36231,-45.91134,6.018110036849976
1618837281.37793,-43.06916,6.0337300300598145
1618837281.39356,-38.01854,6.049360036849976
1618837281.40919,-31.23948,6.064990043640137
1618837281.42481,-23.47959,6.080610036849976
1618837281.44044,-15.58813,6.096240043640137
1618837281.45606,-8.248028,6.111860036849976
1618837281.47169,-1.824364,6.127490043640137
1618837281.48731,3.633293,6.143110036849976
1618837281.50294,8.293541,6.158740043640137
1618837281.51857,12.33543,6.174370050430298
1618837281.53419,15.8418,6.189990043640137
1618837281.54982,18.77832,6.205620050430298
1618837281.56544,21.08586,6.221240043640137
1618837281.58107,22.76542,6.236870050430298
1618837281.59669,23.92595,6.252490043640137
1618837281.61232,24.70989,6.268120050430298
1618837281.62795,25.22351,6.283750057220459
1618837281.64357,25.45031,6.299370050430298
1618837281.6592,25.29281,6.315000057220459
1618837281.67482,24.65928,6.330620050430298
1618837281.69045,23.57911,6.346250057220459
1618837281.70607,22.22511,6.361870050430298
1618837281.7217,20.86436,6.377500057220459
1618837281.73733,19.7451,6.39313006401062
1618837281.75295,18.97172,6.408750057220459
1618837281.76858,18.44769,6.42438006401062
1618837281.7842,17.94403,6.440000057220459
1618837281.79983,17.16732,6.45563006401062
1618837281.81545,15.91655,6.471250057220459
1618837281.83108,14.13946,6.48688006401062
1618837281.84671,11.95061,6.502510070800781
1618837281.86233,9.569908,6.51813006401062
1618837281.87796,7.203671,6.533760070800781
1618837281.89358,4.995026,6.54938006401062
1618837281.90921,2.977512,6.565010070800781
1618837281.92483,1.103733,6.58063006401062
1618837281.94046,-0.7366447,6.596260070800781
1618837281.95609,-2.681309,6.611890077590942
1618837281.97171,-4.880905,6.627510070800781
1618837281.98734,-7.53336,6.643140077590942
1618837282.00296,-10.82808,6.658760070800781
1618837282.01859,-14.89026,6.674390077590942
1618837282.03421,-19.65205,6.690010070800781
1618837282.04984,-24.87828,6.705640077590942
1618837282.06547,-30.14334,6.7212700843811035
1618837282.08109,-34.92889,6.736890077590942
1618837282.09672,-38.69937,6.7525200843811035
1618837282.11234,-41.02127,6.768140077590942
1618837282.12797,-41.56566,6.7837700843811035
1618837282.14359,-40.18282,6.799390077590942
1618837282.15922,-36.90483,6.8150200843811035
1618837282.17485,-31.97569,6.830650091171265
1618837282.19047,-25.83632,6.8462700843811035
1618837282.2061,-19.0535,6.861900091171265
1618837282.22172,-12.2165,6.8775200843811035
1618837282.23735,-5.766819,6.893150091171265
1618837282.25297,0.03293228,6.9087700843811035
1618837282.2686,5.121681,6.924400091171265
1618837282.28423,9.53595,6.940030097961426
1618837282.29985,13.30244,6.955650091171265
1618837282.31548,16.39208,6.971280097961426
1618837282.3311,18.77052,6.986900091171265
1618837282.34673,20.45921,7.002530097961426
1618837282.36235,21.59667,7.018150091171265
1618837282.37798,22.4165,7.033780097961426
1618837282.39361,23.1445,7.049410104751587
1618837282.40923,23.94761,7.065030097961426
1618837282.42486,24.83609,7.080660104751587
1618837282.44048,25.69585,7.096280097961426
1618837282.45611,26.33479,7.111910104751587
1618837282.47173,26.5757,7.127530097961426
1618837282.48736,26.29467,7.143160104751587
1618837282.50299,25.43228,7.158790111541748
1618837282.51861,24.00087,7.174410104751587
1618837282.53424,22.08185,7.190040111541748
1618837282.54986,19.84318,7.205660104751587
1618837282.56549,17.51445,7.221290111541748
1618837282.58111,15.35497,7.236910104751587
1618837282.59674,13.56021,7.252540111541748
1618837282.61237,12.17481,7.268170118331909
1618837282.62799,11.00926,7.283790111541748
1618837282.64362,9.695152,7.299420118331909
1618837282.65924,7.817558,7.315040111541748
1618837282.67487,5.057312,7.330670118331909
1618837282.69049,1.380745,7.346290111541748
1618837282.70612,-2.988815,7.361920118331909
1618837282.72175,-7.64143,7.37755012512207
1618837282.73737,-12.11956,7.393170118331909
1618837282.753,-16.12347,7.40880012512207
1618837282.76862,-19.58828,7.424420118331909
1618837282.78425,-22.68574,7.44005012512207
1618837282.79987,-25.74037,7.455670118331909
1618837282.8155,-29.04783,7.47130012512207
1618837282.83113,-32.68934,7.4869301319122314
1618837282.84675,-36.45799,7.50255012512207
1618837282.86238,-39.83213,7.5181801319122314
1618837282.878,-42.0931,7.53380012512207
1618837282.89363,-42.53127,7.5494301319122314
1618837282.90925,-40.68999,7.56505012512207
1618837282.92488,-36.48357,7.5806801319122314
1618837282.94051,-30.27563,7.596310138702393
1618837282.95613,-22.73817,7.6119301319122314
1618837282.97176,-14.65883,7.627560138702393
1618837282.98738,-6.769957,7.6431801319122314
1618837283.00301,0.3985596,7.658810138702393
1618837283.01863,6.582066,7.6744301319122314
1618837283.03426,11.74404,7.690060138702393
1618837283.04989,15.96215,7.705690145492554
1618837283.06551,19.33689,7.721310138702393
1618837283.08114,21.90935,7.736940145492554
1618837283.09676,23.62099,7.752560138702393
1618837283.11239,24.42951,7.768190145492554
1618837283.12801,24.35411,7.783810138702393
1618837283.14364,23.57869,7.799440145492554
1618837283.15927,22.38129,7.815070152282715
1618837283.17489,21.07131,7.830690145492554
1618837283.19052,19.82995,7.846320152282715
1618837283.20614,18.70276,7.861940145492554
1618837283.22177,17.59488,7.877570152282715
1618837283.2374,16.38927,7.893200159072876
1618837283.25302,15.05042,7.908820152282715
1618837283.26865,13.66566,7.924450159072876
1618837283.28427,12.4017,7.940070152282715
1618837283.2999,11.3873,7.955700159072876
1618837283.31552,10.62398,7.971320152282715
1618837283.33115,9.983213,7.986950159072876
1618837283.34678,9.237715,8.002580165863037
1618837283.3624,8.185909,8.018200159072876
1618837283.37803,6.691677,8.033830165863037
1618837283.39365,4.772589,8.049450159072876
1618837283.40928,2.525822,8.065080165863037
1618837283.4249,0.1041927,8.080700159072876
1618837283.44053,-2.383408,8.096330165863037
1618837283.45616,-4.921487,8.111960172653198
1618837283.47178,-7.560542,8.127580165863037
1618837283.48741,-10.43737,8.143210172653198
1618837283.50303,-13.66941,8.158830165863037
1618837283.51866,-17.32718,8.174460172653198
1618837283.53428,-21.43814,8.190080165863037
1618837283.54991,-25.96254,8.205710172653198
1618837283.56554,-30.82518,8.22134017944336
1618837283.58116,-35.81268,8.236960172653198
1618837283.59679,-40.55373,8.25259017944336
1618837283.61241,-44.48512,8.268210172653198
1618837283.62804,-46.89517,8.28384017944336
1618837283.64366,-47.15544,8.299460172653198
1618837283.65929,-44.9129,8.31509017944336
1618837283.67492,-40.24034,8.33072018623352
1618837283.69054,-33.66025,8.34634017944336
1618837283.70617,-25.98902,8.36197018623352
1618837283.72179,-18.09109,8.37759017944336
1618837283.73742,-10.63193,8.39322018623352
1618837283.75304,-3.940444,8.40884017944336
1618837283.76867,1.969571,8.42447018623352
1618837283.7843,7.231908,8.440100193023682
1618837283.79992,11.97067,8.45572018623352
1618837283.81555,16.17536,8.471350193023682
1618837283.83117,19.69212,8.48697018623352
1618837283.8468,22.34271,8.502600193023682
1618837283.86242,24.0624,8.51822018623352
1618837283.87805,24.97339,8.533850193023682
1618837283.89368,25.36035,8.549480199813843
1618837283.9093,25.59839,8.565100193023682
1618837283.92493,26.02097,8.580730199813843
1618837283.94055,26.83976,8.596350193023682
1618837283.95618,28.11036,8.611980199813843
1618837283.9718,29.77821,8.627600193023682
1618837283.98743,31.68036,8.643230199813843
1618837284.00306,33.52077,8.658860206604004
1618837284.01868,34.91916,8.674480199813843
1618837284.03431,35.45641,8.690110206604004
1618837284.04993,34.79926,8.705730199813843
1618837284.06556,32.87069,8.721360206604004
1618837284.08118,29.93967,8.736980199813843
1618837284.09681,26.55518,8.752610206604004
1618837284.11244,23.33361,8.768240213394165
1618837284.12806,20.76661,8.783860206604004
1618837284.14369,19.07889,8.799490213394165
1618837284.15931,18.21048,8.815110206604004
1618837284.17494,17.92014,8.830740213394165
1618837284.19056,17.87999,8.846360206604004
1618837284.20619,17.74972,8.861990213394165
1618837284.22182,17.1912,8.877620220184326
1618837284.23744,15.92935,8.893240213394165
1618837284.25307,13.79043,8.908870220184326
1618837284.26869,10.76365,8.924490213394165
1618837284.28432,7.036981,8.940120220184326
1618837284.29994,2.963198,8.955740213394165
1618837284.31557,-0.9734635,8.971370220184326
1618837284.3312,-4.306965,8.986999988555908
1618837284.34682,-6.573236,9.002620220184326
1618837284.36245,-7.387887,9.018249988555908
1618837284.37807,-6.464284,9.033870220184326
1618837284.3937,-3.696919,9.049499988555908
1618837284.40932,0.7799878,9.065120220184326
1618837284.42495,6.564404,9.080749988555908
1618837284.44058,13.07349,9.09637999534607
1618837284.4562,19.72821,9.111999988555908
1618837284.47183,26.06727,9.12762999534607
1618837284.48745,31.8828,9.143249988555908
1618837284.50308,37.14864,9.15887999534607
1618837284.5187,41.87527,9.174499988555908
1618837284.53433,45.97569,9.19012999534607
1618837284.54996,49.20487,9.20576000213623
1618837284.56558,51.21955,9.22137999534607
1618837284.58121,51.71593,9.23701000213623
1618837284.59683,50.58402,9.25262999534607
1618837284.61246,47.94749,9.26826000213623
1618837284.62808,44.11323,9.28387999534607
1618837284.64371,39.42244,9.29951000213623
1618837284.65934,34.14609,9.315140008926392
1618837284.67496,28.41969,9.33076000213623
1618837284.69059,22.33134,9.346390008926392
1618837284.70621,15.97119,9.36201000213623
1618837284.72184,9.548187,9.377640008926392
1618837284.73746,3.330688,9.39326000213623
1618837284.75309,-2.419659,9.408890008926392
1618837284.76872,-7.565353,9.424520015716553
1618837284.78434,-12.13,9.440140008926392
1618837284.79997,-16.25433,9.455770015716553
1618837284.81559,-20.03071,9.471390008926392
1618837284.83122,-23.44315,9.487020015716553
1618837284.84684,-26.33736,9.502640008926392
1618837284.86247,-28.50737,9.518270015716553
1618837284.8781,-29.82901,9.533900022506714
1618837284.89372,-30.40931,9.549520015716553
1618837284.90935,-30.54926,9.565150022506714
1618837284.92497,-30.64257,9.580770015716553
1618837284.9406,-31.04558,9.596400022506714
1618837284.95622,-31.89943,9.612020015716553
1618837284.97185,-33.16276,9.627650022506714
1618837284.98748,-34.62241,9.643280029296875
1618837285.0031,-36.03471,9.658900022506714
1618837285.01873,-37.22478,9.674530029296875
1618837285.03435,-38.16227,9.690150022506714
1618837285.04998,-38.97536,9.705780029296875
1618837285.0656,-39.87863,9.721400022506714
1618837285.08123,-41.11617,9.737030029296875
1618837285.09686,-42.81765,9.752660036087036
1618837285.11248,-44.90707,9.768280029296875
1618837285.12811,-47.01392,9.783910036087036
1618837285.14373,-48.5726,9.799530029296875
1618837285.15936,-48.89423,9.815160036087036
1618837285.17498,-47.48056,9.830780029296875
1618837285.19061,-44.11646,9.846410036087036
1618837285.20624,-39.02528,9.862040042877197
1618837285.22186,-32.74199,9.877660036087036
1618837285.23749,-25.91621,9.893290042877197
1618837285.25311,-19.11253,9.908910036087036
1618837285.26874,-12.66446,9.924540042877197
1618837285.28436,-6.684387,9.940160036087036
1618837285.29999,-1.124619,9.955790042877197
1618837285.31562,4.073212,9.971420049667358
1618837285.33124,8.903839,9.987040042877197
1618837285.34687,13.26723,10.002670049667358
1618837285.36249,16.96507,10.018290042877197
1618837285.37812,19.77402,10.033920049667358
1618837285.39374,21.51428,10.049540042877197
1618837285.40937,22.11287,10.065170049667358
1618837285.425,21.66212,10.08080005645752
1618837285.44062,20.4303,10.096420049667358
1618837285.45625,18.75119,10.11205005645752
1618837285.47187,16.94092,10.127670049667358
1618837285.4875,15.25626,10.14330005645752
1618837285.50312,13.85179,10.158920049667358
1618837285.51875,12.8058,10.17455005645752
1618837285.53438,12.17197,10.19018006324768
1618837285.55,12.00389,10.20580005645752
1618837285.56563,12.308,10.22143006324768
1618837285.58125,13.01813,10.23705005645752
1618837285.59688,13.93091,10.25268006324768
1618837285.6125,14.70523,10.26830005645752
1618837285.62813,14.9469,10.28393006324768
1618837285.64376,14.26448,10.299560070037842
1618837285.65938,12.44537,10.31518006324768
1618837285.67501,9.502213,10.330810070037842
1618837285.69063,5.745331,10.34643006324768
1618837285.70626,1.688187,10.362060070037842
1618837285.72188,-2.068954,10.37768006324768
1618837285.73751,-5.072098,10.393310070037842
1618837285.75314,-7.134521,10.408940076828003
1618837285.76876,-8.420502,10.424560070037842
1618837285.78439,-9.366379,10.440190076828003
1618837285.80001,-10.51071,10.455810070037842
1618837285.81564,-12.30388,10.471440076828003
1618837285.83127,-14.92963,10.487070083618164
1618837285.84689,-18.244,10.502690076828003
1618837285.86252,-21.76231,10.518320083618164
1618837285.87814,-24.79938,10.533940076828003
1618837285.89377,-26.59911,10.549570083618164
1618837285.90939,-26.54248,10.565190076828003
1618837285.92502,-24.28879,10.580820083618164
1618837285.94065,-19.82417,10.596450090408325
1618837285.95627,-13.46733,10.612070083618164
1618837285.9719,-5.775589,10.627700090408325
1618837285.98752,2.569717,10.643320083618164
1618837286.00315,10.88712,10.658950090408325
1618837286.01877,18.58447,10.674570083618164
1618837286.0344,25.23155,10.690200090408325
1618837286.05003,30.59053,10.705830097198486
1618837286.06565,34.66457,10.721450090408325
1618837286.08128,37.60509,10.737080097198486
1618837286.0969,39.60991,10.752700090408325
1618837286.11253,40.87384,10.768330097198486
1618837286.12815,41.46985,10.783950090408325
1618837286.14378,41.41338,10.799580097198486
1618837286.15941,40.71976,10.815210103988647
1618837286.17503,39.52518,10.830830097198486
1618837286.19066,38.07669,10.846460103988647
1618837286.20628,36.64117,10.862080097198486
1618837286.22191,35.38643,10.877710103988647
1618837286.23753,34.32057,10.893330097198486
1618837286.25316,33.33449,10.908960103988647
1618837286.26879,32.32918,10.924590110778809
1618837286.28441,31.32574,10.940210103988647
1618837286.30004,30.45628,10.955840110778809
1618837286.31566,29.82957,10.971460103988647
1618837286.33129,29.3605,10.987090110778809
1618837286.34691,28.68207,11.002710103988647
1618837286.36254,27.25885,11.018340110778809
1618837286.37817,24.62358,11.03397011756897
1618837286.39379,20.64323,11.049590110778809
1618837286.40942,15.59993,11.06522011756897
1618837286.42504,10.05344,11.080840110778809
1618837286.44067,4.575684,11.09647011756897
1618837286.45629,-0.5031281,11.112090110778809
1618837286.47192,-5.192123,11.12772011756897
1618837286.48755,-9.673569,11.14335012435913
1618837286.50317,-14.15228,11.15897011756897
1618837286.5188,-18.65771,11.17460012435913
1618837286.53442,-23.11932,11.19022011756897
1618837286.55005,-27.48929,11.20585012435913
1618837286.56567,-31.83798,11.22147011756897
1618837286.5813,-36.34924,11.23710012435913
1618837286.59693,-41.13889,11.252730131149292
1618837286.61255,-45.99573,11.26835012435913
1618837286.62818,-50.33868,11.283980131149292
1618837286.6438,-53.29401,11.29960012435913
1618837286.65943,-54.08792,11.315230131149292
1618837286.67505,-52.30875,11.33085012435913
1618837286.69068,-48.07309,11.346480131149292
1618837286.70631,-41.96497,11.362110137939453
1618837286.72193,-34.78775,11.377730131149292
1618837286.73756,-27.298,11.393360137939453
1618837286.75318,-20.05875,11.408980131149292
1618837286.76881,-13.39578,11.424610137939453
1618837286.78443,-7.481079,11.440230131149292
1618837286.80006,-2.363922,11.455860137939453
1618837286.81569,1.99884,11.471490144729614
1618837286.83131,5.72998,11.487110137939453
1618837286.84694,8.970062,11.502740144729614
1618837286.86256,11.83499,11.518360137939453
1618837286.87819,14.32059,11.533990144729614
1618837286.89381,16.32016,11.549610137939453
1618837286.90944,17.73383,11.565240144729614
1618837286.92507,18.51727,11.580870151519775
1618837286.94069,18.7395,11.596490144729614
1618837286.95632,18.53607,11.612120151519775
1618837286.97194,18.00742,11.627740144729614
1618837286.98757,17.20282,11.643370151519775
1618837287.00319,16.17413,11.658990144729614
1618837287.01882,14.97369,11.674620151519775
1618837287.03445,13.73462,11.690250158309937
1618837287.05007,12.62598,11.705870151519775
1618837287.0657,11.73694,11.721500158309937
1618837287.08132,11.07513,11.737120151519775
1618837287.09695,10.49213,11.752750158309937
1618837287.11257,9.805206,11.768370151519775
1618837287.1282,8.858215,11.784000158309937
1618837287.14383,7.58728,11.799630165100098
1618837287.15945,6.024048,11.815250158309937
1618837287.17508,4.229553,11.830880165100098
1618837287.1907,2.269379,11.846500158309937
1618837287.20633,0.1758118,11.862130165100098
1618837287.22195,-2.086761,11.877750158309937
1618837287.23758,-4.588867,11.893380165100098
1618837287.25321,-7.38443,11.909010171890259
1618837287.26883,-10.4733,11.924630165100098
1618837287.28446,-13.76187,11.940260171890259
1618837287.30008,-17.07245,11.955880165100098
1618837287.31571,-20.25665,11.971510171890259
1618837287.33133,-23.28214,11.987130165100098
1618837287.34696,-26.31903,12.002760171890259
1618837287.36259,-29.6803,12.01839017868042
1618837287.37821,-33.75754,12.034010171890259
1618837287.39384,-38.82068,12.04964017868042
1618837287.40946,-44.92123,12.065260171890259
1618837287.42509,-51.77319,12.08089017868042
1618837287.44071,-58.77026,12.096510171890259
1618837287.45634,-65.05081,12.11214017868042
1618837287.47197,-69.67068,12.127770185470581
1618837287.48759,-71.8443,12.14339017868042
1618837287.50322,-71.13846,12.159020185470581
1618837287.51884,-67.60995,12.17464017868042
1618837287.53447,-61.74042,12.190270185470581
1618837287.55009,-54.29541,12.20589017868042
1618837287.56572,-46.05402,12.221520185470581
1618837287.58135,-37.63391,12.237150192260742
1618837287.59697,-29.46674,12.252770185470581
1618837287.6126,-21.78922,12.268400192260742
1618837287.62822,-14.75894,12.284020185470581
1618837287.64385,-8.469391,12.299650192260742
1618837287.65947,-2.936462,12.315270185470581
1618837287.6751,1.883148,12.330900192260742
1618837287.69073,6.061951,12.346530199050903
1618837287.70635,9.64328,12.362150192260742
1618837287.72198,12.58951,12.377780199050903
1618837287.7376,14.8071,12.393400192260742
1618837287.75323,16.2435,12.409030199050903
1618837287.76885,16.95062,12.424650192260742
1618837287.78448,17.10278,12.440280199050903
1618837287.80011,16.95593,12.455910205841064
1618837287.81573,16.7821,12.471530199050903
1618837287.83136,16.75577,12.487160205841064
1618837287.84698,16.96246,12.502780199050903
1618837287.86261,17.40536,12.518410205841064
1618837287.87823,18.01282,12.534030199050903
1618837287.89386,18.68381,12.549660205841064
1618837287.90949,19.23837,12.565290212631226
1618837287.92511,19.44104,12.580910205841064
1618837287.94074,19.04733,12.596540212631226
1618837287.95636,17.88007,12.612160205841064
1618837287.97199,15.94095,12.627790212631226
1618837287.98761,13.44052,12.643410205841064
1618837288.00324,10.71445,12.659040212631226
1618837288.01887,8.098755,12.674670219421387
1618837288.03449,5.817047,12.690290212631226
1618837288.05012,3.833069,12.705920219421387
1618837288.06574,1.934998,12.721540212631226
1618837288.08137,-0.1963196,12.737170219421387
1618837288.097,-2.856903,12.752799987792969
1618837288.11262,-6.150574,12.768420219421387
1618837288.12825,-9.98114,12.784049987792969
1618837288.14387,-14.0871,12.799670219421387
1618837288.1595,-18.15601,12.815299987792969
1618837288.17512,-21.99792,12.830920219421387
1618837288.19075,-25.63168,12.846549987792969
1618837288.20638,-29.29449,12.86217999458313
1618837288.222,-33.34915,12.877799987792969
1618837288.23763,-38.09637,12.89342999458313
1618837288.25325,-43.59839,12.909049987792969
1618837288.26888,-49.57632,12.92467999458313
1618837288.2845,-55.41791,12.940299987792969
1618837288.30013,-60.3262,12.95592999458313
1618837288.31576,-63.51077,12.971560001373291
1618837288.33138,-64.39816,12.98717999458313
1618837288.34701,-62.73621,13.002810001373291
1618837288.36263,-58.6568,13.01842999458313
1618837288.37826,-52.64395,13.034060001373291
1618837288.39388,-45.41003,13.04967999458313
1618837288.40951,-37.75772,13.065310001373291
1618837288.42514,-30.41135,13.080940008163452
1618837288.44076,-23.83127,13.096560001373291
1618837288.45639,-18.13632,13.112190008163452
1618837288.47201,-13.09448,13.127810001373291
1618837288.48764,-8.276886,13.143440008163452
1618837288.50326,-3.218414,13.159060001373291
1618837288.51889,2.33316,13.174690008163452
1618837288.53452,8.320282,13.190320014953613
1618837288.55014,14.33517,13.205940008163452
1618837288.56577,19.76849,13.221570014953613
1618837288.58139,24.0545,13.237190008163452
1618837288.59702,26.87561,13.252820014953613
1618837288.61264,28.29236,13.268440008163452
1618837288.62827,28.68655,13.284070014953613
1618837288.6439,28.53152,13.299700021743774
1618837288.65952,28.14398,13.315320014953613
1618837288.67515,27.58679,13.330950021743774
1618837288.69077,26.68997,13.346570014953613
1618837288.7064,25.20935,13.362200021743774
1618837288.72202,23.00107,13.377820014953613
1618837288.73765,20.09373,13.393450021743774
1618837288.75328,16.60892,13.409080028533936
1618837288.7689,12.67578,13.424700021743774
1618837288.78453,8.381775,13.440330028533936
1618837288.80015,3.801605,13.455950021743774
1618837288.81578,-0.9013062,13.471580028533936
1618837288.8314,-5.44281,13.487200021743774
1618837288.84703,-9.486557,13.502830028533936
1618837288.86266,-12.74962,13.518460035324097
1618837288.87828,-15.15312,13.534080028533936
1618837288.89391,-16.78908,13.549710035324097
1618837288.90953,-17.84691,13.565330028533936
1618837288.92516,-18.53178,13.580960035324097
1618837288.94078,-18.99095,13.596580028533936
1618837288.95641,-19.3358,13.612210035324097
1618837288.97204,-19.71083,13.627840042114258
1618837288.98766,-20.37584,13.643460035324097
1618837289.00329,-21.65135,13.659090042114258
1618837289.01891,-23.83633,13.674710035324097
1618837289.03454,-27.07146,13.690340042114258
1618837289.05016,-31.19009,13.705960035324097
1618837289.06579,-35.62094,13.721590042114258
1618837289.08142,-39.45827,13.737220048904419
1618837289.09704,-41.63599,13.752840042114258
1618837289.11267,-41.26657,13.768470048904419
1618837289.12829,-37.97888,13.784090042114258
1618837289.14392,-32.05602,13.799720048904419
1618837289.15954,-24.39915,13.815340042114258
1618837289.17517,-16.17899,13.830970048904419
1618837289.1908,-8.401138,13.84660005569458
1618837289.20642,-1.648361,13.862220048904419
1618837289.22205,3.967514,13.87785005569458
1618837289.23767,8.59491,13.893470048904419
1618837289.2533,12.37882,13.90910005569458
1618837289.26892,15.26308,13.924720048904419
1618837289.28455,17.01121,13.94035005569458
1618837289.30018,17.41036,13.955980062484741
1618837289.3158,16.45166,13.97160005569458
1618837289.33143,14.39899,13.987230062484741
1618837289.34705,11.69566,14.00285005569458
1618837289.36268,8.816048,14.018480062484741
1618837289.3783,6.173088,14.03410005569458
1618837289.39393,4.159721,14.049730062484741
1618837289.40956,3.241711,14.065360069274902
1618837289.42518,3.933693,14.080980062484741
1618837289.44081,6.593742,14.096610069274902
1618837289.45643,11.18079,14.112230062484741
1618837289.47206,17.07414,14.127860069274902
1618837289.48768,23.13431,14.143480062484741
1618837289.50331,28.15283,14.159110069274902
1618837289.51894,31.31169,14.174740076065063
1618837289.53456,32.58386,14.190360069274902
1618837289.55019,32.6797,14.205990076065063
1618837289.56581,32.70465,14.221610069274902
1618837289.58144,33.54474,14.237240076065063
1618837289.59706,35.50946,14.252860069274902
1618837289.61269,38.23686,14.268490076065063
1618837289.62832,41.02282,14.284120082855225
1618837289.64394,43.22239,14.299740076065063
1618837289.65957,44.59295,14.315370082855225
1618837289.67519,45.27637,14.330990076065063
1618837289.69082,45.62664,14.346620082855225
1618837289.70644,45.95008,14.362240076065063
1618837289.72207,46.3665,14.377870082855225
1618837289.7377,46.84906,14.393500089645386
1618837289.75332,47.33037,14.409120082855225
1618837289.76895,47.8359,14.424750089645386
1618837289.78457,48.39639,14.440370082855225
1618837289.8002,48.93284,14.456000089645386
1618837289.81582,49.17679,14.471620082855225
1618837289.83145,48.73574,14.487250089645386
1618837289.84708,47.33217,14.502880096435547
1618837289.8627,45.03437,14.518500089645386
1618837289.87833,42.3586,14.534130096435547
1618837289.89395,40.0374,14.549750089645386
1618837289.90958,38.75138,14.565380096435547
1618837289.9252,38.81738,14.581000089645386
1618837289.94083,40.11246,14.596630096435547
1618837289.95646,42.2513,14.612260103225708
1618837289.97208,44.83466,14.627880096435547
1618837289.98771,47.60522,14.643510103225708
1618837290.00333,50.52325,14.659130096435547
1618837290.01896,53.60293,14.674760103225708
1618837290.03458,56.77362,14.690380096435547
1618837290.05021,59.80935,14.706010103225708
1618837290.06584,62.38106,14.72164011001587
1618837290.08146,64.11062,14.737260103225708
1618837290.09709,64.74132,14.75289011001587
1618837290.11271,64.14752,14.768510103225708
1618837290.12834,62.3453,14.78414011001587
1618837290.14396,59.48258,14.799760103225708
1618837290.15959,55.7839,14.81539011001587
1618837290.17522,51.48923,14.83102011680603
1618837290.19084,46.82996,14.84664011001587
1618837290.20647,41.93638,14.86227011680603
1618837290.22209,36.84593,14.87789011001587
1618837290.23772,31.5389,14.89352011680603
1618837290.25335,25.98565,14.909150123596191
1618837290.26897,20.22918,14.92477011680603
1618837290.2846,14.38686,14.940400123596191
1618837290.30022,8.556881,14.95602011680603
1618837290.31585,2.714548,14.971650123596191
1618837290.33147,-3.391514,14.98727011680603
1618837290.3471,-10.16236,15.002900123596191
1618837290.36273,-18.00055,15.018530130386353
1618837290.37835,-27.09458,15.034150123596191
1618837290.39398,-37.19023,15.049780130386353
1618837290.4096,-47.66413,15.065400123596191
1618837290.42523,-57.61876,15.081030130386353
1618837290.44085,-66.23985,15.096650123596191
1618837290.45648,-73.06577,15.112280130386353
1618837290.47211,-78.10088,15.127910137176514
1618837290.48773,-81.76085,15.143530130386353
1618837290.50336,-84.66149,15.159160137176514
1618837290.51898,-87.36044,15.174780130386353
1618837290.53461,-90.24818,15.190410137176514
1618837290.55023,-93.46539,15.206030130386353
1618837290.56586,-96.95657,15.221660137176514
1618837290.58149,-100.5057,15.237290143966675
1618837290.59711,-103.6896,15.252910137176514
1618837290.61274,-105.8876,15.268540143966675
1618837290.62836,-106.331,15.284160137176514
1618837290.64399,-104.243,15.299790143966675
1618837290.65961,-99.10073,15.315410137176514
1618837290.67524,-90.86469,15.331040143966675
1618837290.69087,-80.07045,15.346670150756836
1618837290.70649,-67.71362,15.362290143966675
1618837290.72212,-54.96679,15.377920150756836
1618837290.73774,-42.86371,15.393540143966675
1618837290.75337,-32.01128,15.409170150756836
1618837290.76899,-22.59183,15.424790143966675
1618837290.78462,-14.51829,15.440420150756836
1618837290.80025,-7.651306,15.456050157546997
1618837290.81587,-1.946938,15.471670150756836
1618837290.8315,2.562187,15.487300157546997
1618837290.84712,5.905373,15.502920150756836
1618837290.86275,8.328049,15.518550157546997
1618837290.87837,10.27092,15.534170150756836
1618837290.894,12.24586,15.549800157546997
1618837290.90963,14.61871,15.565430164337158
1618837290.92525,17.40267,15.581050157546997
1618837290.94088,20.31367,15.596680164337158
1618837290.9565,22.91353,15.612300157546997
1618837290.97213,24.90491,15.627930164337158
1618837290.98775,26.31854,15.643550157546997
1618837291.00338,27.5105,15.659180164337158
1618837291.01901,29.03517,15.67481017112732
1618837291.03463,31.29391,15.690430164337158
1618837291.05026,34.41009,15.70606017112732
1618837291.06588,38.22726,15.721680164337158
1618837291.08151,42.49238,15.73731017112732
1618837291.09713,47.02771,15.752930164337158
1618837291.11276,51.79273,15.76856017112732
1618837291.12839,56.69888,15.78419017791748
1618837291.14401,61.38926,15.79981017112732
1618837291.15964,65.12948,15.81544017791748
1618837291.17526,66.94242,15.83106017112732
1618837291.19089,66.0528,15.84669017791748
1618837291.20651,62.28236,15.86231017112732
1618837291.22214,56.25539,15.87794017791748
1618837291.23777,49.10051,15.893570184707642
1618837291.25339,41.99008,15.90919017791748
1618837291.26902,35.55083,15.924820184707642
1618837291.28464,29.67694,15.94044017791748
1618837291.30027,23.69667,15.956070184707642
1618837291.31589,16.82864,15.97169017791748
1618837291.33152,8.653912,15.987320184707642
1618837291.34715,-0.6850281,16.002950191497803
1618837291.36277,-10.48676,16.01857018470764
1618837291.3784,-19.81416,16.034200191497803
1618837291.39402,-27.75741,16.04982018470764
1618837291.40965,-33.6191,16.065450191497803
1618837291.42527,-37.01781,16.08107018470764
1618837291.4409,-37.85596,16.096700191497803
1618837291.45653,-36.3271,16.112330198287964
1618837291.47215,-32.87196,16.127950191497803
1618837291.48778,-28.16932,16.143580198287964
1618837291.5034,-23.06465,16.159200191497803
1618837291.51903,-18.41767,16.174830198287964
1618837291.53465,-14.90704,16.190450191497803
1618837291.55028,-12.90289,16.206080198287964
1618837291.56591,-12.3793,16.221710205078125
1618837291.58153,-12.92908,16.237330198287964
1618837291.59716,-13.96181,16.252960205078125
1618837291.61278,-14.85062,16.268580198287964
1618837291.62841,-15.10551,16.284210205078125
1618837291.64403,-14.449,16.299830198287964
1618837291.65966,-12.82804,16.315460205078125
1618837291.67529,-10.36612,16.331090211868286
1618837291.69091,-7.319427,16.346710205078125
1618837291.70654,-4.016479,16.362340211868286
1618837291.72216,-0.7916489,16.377960205078125
1618837291.73779,2.048862,16.393590211868286
1618837291.75341,4.339378,16.409210205078125
1618837291.76904,6.047092,16.424840211868286
1618837291.78467,7.309464,16.440470218658447
1618837291.80029,8.338642,16.456090211868286
1618837291.81592,9.344822,16.471720218658447
1618837291.83154,10.46932,16.487340211868286
1618837291.84717,11.68941,16.502970218658447
1618837291.86279,12.8381,16.518590211868286
1618837291.87842,13.69038,16.534220218658447
1618837291.89405,13.98402,16.54984998703003
1618837291.90967,13.5698,16.565470218658447
1618837291.9253,12.38607,16.58109998703003
1618837291.94092,10.54385,16.596720218658447
1618837291.95655,8.245865,16.61234998703003
1618837291.97217,5.711723,16.627970218658447
1618837291.9878,3.082355,16.64359998703003
1618837292.00343,0.3461838,16.65922999382019
1618837292.01905,-2.683079,16.67484998703003
1618837292.03468,-6.325237,16.69047999382019
1618837292.0503,-10.98998,16.70609998703003
1618837292.06593,-17.04696,16.72172999382019
1618837292.08155,-24.68919,16.73734998703003
1618837292.09718,-33.74765,16.75297999382019
1618837292.11281,-43.60932,16.76861000061035
1618837292.12843,-53.22489,16.78422999382019
1618837292.14406,-61.29118,16.79986000061035
1618837292.15968,-66.61026,16.81547999382019
1618837292.17531,-68.42403,16.83111000061035
1618837292.19093,-66.63115,16.84672999382019
1618837292.20656,-61.78645,16.86236000061035
1618837292.22219,-54.90441,16.877990007400513
1618837292.23781,-47.0972,16.89361000061035
1618837292.25344,-39.31815,16.909240007400513
1618837292.26906,-32.19371,16.92486000061035
1618837292.28469,-26.02641,16.940490007400513
1618837292.30031,-20.90788,16.95611000061035
1618837292.31594,-16.84595,16.971740007400513
1618837292.33157,-13.80009,16.987370014190674
1618837292.34719,-11.6861,17.002990007400513
1618837292.36282,-10.31642,17.018620014190674
1618837292.37844,-9.349319,17.034240007400513
1618837292.39407,-8.410831,17.049870014190674
1618837292.40969,-7.169728,17.065490007400513
1618837292.42532,-5.499819,17.081120014190674
1618837292.44095,-3.517446,17.096750020980835
1618837292.45657,-1.517662,17.112370014190674
1618837292.4722,0.2306442,17.128000020980835
1618837292.48782,1.665571,17.143620014190674
1618837292.50345,2.973701,17.159250020980835
1618837292.51907,4.513855,17.174870014190674
1618837292.5347,6.601192,17.190500020980835
1618837292.55033,9.329292,17.206130027770996
1618837292.56595,12.49644,17.221750020980835
1618837292.58158,15.66018,17.237380027770996
1618837292.5972,18.31441,17.253000020980835
1618837292.61283,20.04314,17.268630027770996
1618837292.62845,20.61969,17.284250020980835
1618837292.64408,19.98597,17.299880027770996
1618837292.65971,18.22435,17.315510034561157
1618837292.67533,15.47357,17.331130027770996
1618837292.69096,11.91312,17.346760034561157
1618837292.70658,7.779251,17.362380027770996
1618837292.72221,3.323776,17.378010034561157
1618837292.73783,-1.18364,17.393630027770996
1618837292.75346,-5.536407,17.409260034561157
1618837292.76909,-9.590019,17.42489004135132
1618837292.78471,-13.33936,17.440510034561157
1618837292.80034,-16.87513,17.45614004135132
1618837292.81596,-20.39015,17.471760034561157
1618837292.83159,-24.07317,17.48739004135132
1618837292.84721,-28.02789,17.503010034561157
1618837292.86284,-32.21263,17.51864004135132
1618837292.87847,-36.31943,17.53427004814148
1618837292.89409,-39.8343,17.54989004135132
1618837292.90972,-42.10084,17.56552004814148
1618837292.92534,-42.47113,17.58114004135132
1618837292.94097,-40.49077,17.59677004814148
1618837292.9566,-36.04349,17.61240005493164
1618837292.97222,-29.41319,17.62802004814148
1618837292.98785,-21.20094,17.64365005493164
1618837293.00347,-12.1723,17.65927004814148
1618837293.0191,-3.04686,17.67490005493164
1618837293.03472,5.639801,17.69052004814148
1618837293.05035,13.64243,17.70615005493164
1618837293.06598,20.94275,17.7217800617218
1618837293.0816,27.6553,17.73740005493164
1618837293.09723,33.89621,17.7530300617218
1618837293.11285,39.68863,17.76865005493164
1618837293.12848,44.92934,17.7842800617218
1618837293.1441,49.43217,17.79990005493164
1618837293.15973,53.02234,17.8155300617218
1618837293.17536,55.58466,17.831160068511963
1618837293.19098,57.10748,17.8467800617218
1618837293.20661,57.71931,17.862410068511963
1618837293.22223,57.67526,17.8780300617218
1618837293.23786,57.25082,17.893660068511963
1618837293.25348,56.73605,17.9092800617218
1618837293.26911,56.31892,17.924910068511963
1618837293.28474,56.1256,17.940540075302124
1618837293.30036,56.17165,17.956160068511963
1618837293.31599,56.42125,17.971790075302124
1618837293.33161,56.73907,17.987410068511963
1618837293.34724,56.94389,18.003040075302124
1618837293.36286,56.79919,18.018660068511963
1618837293.37849,56.05232,18.034290075302124
1618837293.39412,54.47612,18.049920082092285
1618837293.40974,51.95674,18.065540075302124
1618837293.42537,48.5031,18.081170082092285
1618837293.44099,44.3237,18.096790075302124
1618837293.45662,39.80827,18.112420082092285
1618837293.47224,35.42563,18.128040075302124
1618837293.48787,31.51674,18.143670082092285
1618837293.5035,28.20294,18.159300088882446
1618837293.51912,25.29492,18.174920082092285
1618837293.53475,22.39256,18.190550088882446
1618837293.55037,19.07622,18.206170082092285
1618837293.566,15.10452,18.221800088882446
1618837293.58162,10.42322,18.237420082092285
1618837293.59725,5.119766,18.253050088882446
1618837293.61288,-0.7623596,18.268680095672607
1618837293.6285,-7.331528,18.284300088882446
1618837293.64413,-14.7959,18.299930095672607
1618837293.65975,-23.28415,18.315550088882446
1618837293.67538,-32.6366,18.331180095672607
1618837293.691,-42.32834,18.346800088882446
1618837293.70663,-51.44812,18.362430095672607
1618837293.72226,-58.97411,18.37806010246277
1618837293.73788,-64.10155,18.393680095672607
1618837293.75351,-66.36403,18.40931010246277
1618837293.76913,-65.7052,18.424930095672607
1618837293.78476,-62.30933,18.44056010246277
1618837293.80038,-56.60034,18.456180095672607
1618837293.81601,-49.15028,18.47181010246277
1618837293.83164,-40.63881,18.48744010925293
1618837293.84726,-31.71437,18.50306010246277
1618837293.86289,-22.93568,18.51869010925293
1618837293.87851,-14.72495,18.53431010246277
1618837293.89414,-7.304062,18.54994010925293
1618837293.90976,-0.7092133,18.56556010246277
1618837293.92539,5.125961,18.58119010925293
1618837293.94102,10.24899,18.59682011604309
1618837293.95664,14.56009,18.61244010925293
1618837293.97227,17.86946,18.62807011604309
1618837293.98789,20.08122,18.64369010925293
1618837294.00352,21.14801,18.65932011604309
1618837294.01914,21.03508,18.67494010925293
1618837294.03477,19.71204,18.69057011604309
1618837294.0504,17.22417,18.706200122833252
1618837294.06602,13.77605,18.72182011604309
1618837294.08165,9.698364,18.737450122833252
1618837294.09727,5.440048,18.75307011604309
1618837294.1129,1.444199,18.768700122833252
1618837294.12852,-1.446167,18.78432011604309
1618837294.14415,-2.668579,18.799950122833252
1618837294.15978,-2.28511,18.815580129623413
1618837294.1754,-0.9479065,18.831200122833252
1618837294.19103,0.4391479,18.846830129623413
1618837294.20665,1.225586,18.862450122833252
1618837294.22228,1.258163,18.878080129623413
1618837294.2379,0.7124329,18.893700122833252
1618837294.25353,-0.1612396,18.909330129623413
1618837294.26916,-0.2159119,18.924960136413574
1618837294.28478,1.346085,18.940580129623413
1618837294.30041,4.497192,18.956210136413574
1618837294.31603,8.339523,18.971830129623413
1618837294.33166,11.71841,18.987460136413574
1618837294.34728,13.86911,19.003080129623413
1618837294.36291,14.65233,19.018710136413574
1618837294.37854,14.25391,19.034340143203735
1618837294.39416,12.90717,19.049960136413574
1618837294.40979,12.35817,19.065590143203735
1618837294.42541,13.98027,19.081210136413574
1618837294.44104,17.89711,19.096840143203735
1618837294.45666,22.78104,19.112460136413574
1618837294.47229,26.90417,19.128090143203735
1618837294.48792,29.36644,19.143720149993896
1618837294.50354,30.80623,19.159340143203735
1618837294.51917,33.04694,19.174970149993896
1618837294.53479,38.3669,19.190590143203735
1618837294.55042,50.7506,19.206220149993896
1618837294.56604,72.91086,19.221840143203735
1618837294.58167,104.7052,19.237470149993896
1618837294.5973,142.8284,19.253100156784058
1618837294.61292,182.3462,19.268720149993896
1618837294.62855,218.4444,19.284350156784058
1618837294.64417,248.1427,19.299970149993896
1618837294.6598,270.2588,19.315600156784058
1618837294.67542,271.8407,19.331220149993896
1618837294.69105,245.5657,19.346850156784058
1618837294.70668,194.1801,19.36248016357422
1618837294.7223,130.751,19.378100156784058
1618837294.73793,70.39832,19.39373016357422
1618837294.75355,22.20616,19.409350156784058
1618837294.76918,-12.43816,19.42498016357422
1618837294.7848,-35.61269,19.440600156784058
1618837294.80043,-50.19021,19.45623016357422
1618837294.81606,-58.5522,19.47186017036438
1618837294.83168,-60.66684,19.48748016357422
1618837294.84731,-56.72458,19.50311017036438
1618837294.86293,-48.59819,19.51873016357422
1618837294.87856,-39.9785,19.53436017036438
1618837294.89418,-34.63861,19.54998016357422
1618837294.90981,-35.38727,19.56561017036438
1618837294.92544,-41.79698,19.58124017715454
1618837294.94106,-51.66329,19.59686017036438
1618837294.95669,-62.16935,19.61249017715454
1618837294.97231,-70.82378,19.62811017036438
1618837294.98794,-76.52587,19.64374017715454
1618837295.00356,-80.24556,19.65936017036438
1618837295.01919,-84.90662,19.67499017715454
1618837295.03482,-94.01303,19.690620183944702
1618837295.05044,-111.0972,19.70624017715454
1618837295.06607,-136.2764,19.721870183944702
1618837295.08169,-166.5778,19.73749017715454
1618837295.09732,-196.5912,19.753120183944702
1618837295.11294,-218.9686,19.76874017715454
1618837295.12857,-227.0724,19.784370183944702
1618837295.1442,-217.4812,19.800000190734863
1618837295.15982,-191.5132,19.815620183944702
1618837295.17545,-148.036,19.831250190734863
1618837295.19107,-97.53709,19.846870183944702
1618837295.2067,-51.99954,19.862500190734863
1618837295.22233,-19.73751,19.878130197525024
1618837295.23795,-3.189377,19.893750190734863
1618837295.25358,0.2196145,19.909380197525024
1618837295.2692,-4.587902,19.925000190734863
1618837295.28483,-12.87758,19.940630197525024
1618837295.30045,-21.2854,19.956250190734863
1618837295.31608,-27.6146,19.971880197525024
1618837295.33171,-31.30104,19.987510204315186
1618837295.34733,-30.96969,20.003130197525024
1618837295.36296,-26.54849,20.018760204315186
1618837295.37858,-17.79202,20.034380197525024
1618837295.39421,-6.01009,20.050010204315186
1618837295.40983,6.450706,20.065630197525024
1618837295.42546,17.10746,20.081260204315186
1618837295.44109,24.26604,20.096890211105347
1618837295.45671,27.52518,20.112510204315186
1618837295.47234,26.86274,20.128140211105347
1618837295.48796,23.89655,20.143760204315186
1618837295.50359,20.64671,20.159390211105347
1618837295.51921,18.68638,20.175010204315186
1618837295.53484,18.46563,20.190640211105347
1618837295.55047,19.62771,20.206270217895508
1618837295.56609,21.40145,20.221890211105347
1618837295.58172,22.99307,20.237520217895508
1618837295.59734,23.79593,20.253140211105347
1618837295.61297,22.93459,20.268770217895508
1618837295.62859,20.53597,20.284390211105347
1618837295.64422,17.28656,20.300020217895508
1618837295.65985,14.10766,20.31564998626709
1618837295.67547,11.54532,20.331270217895508
1618837295.6911,9.876003,20.34689998626709
1618837295.70672,9.042969,20.362520217895508
1618837295.72235,8.767451,20.37814998626709
1618837295.73797,8.62327,20.393770217895508
1618837295.7536,7.914947,20.40939998626709
1618837295.76923,6.362681,20.42502999305725
1618837295.78485,3.978817,20.44064998626709
1618837295.80048,1.017004,20.45627999305725
1618837295.8161,-2.26884,20.47189998626709
1618837295.83173,-5.592491,20.48752999305725
1618837295.84735,-8.702224,20.50314998626709
1618837295.86298,-11.43028,20.51877999305725
1618837295.87861,-13.79884,20.534409999847412
1618837295.89423,-16.07375,20.55002999305725
1618837295.90986,-18.47508,20.565659999847412
1618837295.92548,-21.16364,20.58127999305725
1618837295.94111,-24.11359,20.596909999847412
1618837295.95673,-27.23694,20.61252999305725
1618837295.97236,-30.37181,20.628159999847412
1618837295.98799,-33.37477,20.643790006637573
1618837296.00361,-36.13737,20.659409999847412
1618837296.01924,-38.66203,20.675040006637573
1618837296.03486,-41.01902,20.690659999847412
1618837296.05049,-43.32981,20.706290006637573
1618837296.06611,-45.77134,20.721909999847412
1618837296.08174,-48.54583,20.737540006637573
1618837296.09737,-51.8853,20.753170013427734
1618837296.11299,-56.00471,20.768790006637573
1618837296.12862,-60.98055,20.784420013427734
1618837296.14424,-66.63899,20.800040006637573
1618837296.15987,-72.4922,20.815670013427734
1618837296.17549,-77.69797,20.831290006637573
1618837296.19112,-81.16697,20.846920013427734
1618837296.20675,-81.78207,20.862550020217896
1618837296.22237,-78.74978,20.878170013427734
1618837296.238,-71.84216,20.893800020217896
1618837296.25362,-61.56152,20.909420013427734
1618837296.26925,-48.97195,20.925050020217896
1618837296.28487,-35.42005,20.940670013427734
1618837296.3005,-22.13408,20.956300020217896
1618837296.31613,-9.902107,20.971930027008057
1618837296.33175,0.9516144,20.987550020217896
1618837296.34738,10.49368,21.003180027008057
1618837296.363,18.91991,21.018800020217896
1618837296.37863,26.34494,21.034430027008057
1618837296.39425,32.70796,21.050050020217896
1618837296.40988,37.82573,21.065680027008057
1618837296.42551,41.5163,21.081310033798218
1618837296.44113,43.72346,21.096930027008057
1618837296.45676,44.61942,21.112560033798218
1618837296.47238,44.57211,21.128180027008057
1618837296.48801,44.0204,21.143810033798218
1618837296.50363,43.323,21.159430027008057
1618837296.51926,42.65926,21.175060033798218
1618837296.53489,42.00076,21.19069004058838
1618837296.55051,41.23836,21.206310033798218
1618837296.56614,40.29883,21.22194004058838
1618837296.58176,39.26575,21.237560033798218
1618837296.59739,38.33154,21.25319004058838
1618837296.61301,37.65729,21.268810033798218
1618837296.62864,37.2157,21.28444004058838
1618837296.64427,36.74016,21.30007004737854
1618837296.65989,35.81726,21.31569004058838
1618837296.67552,34.0872,21.33132004737854
1618837296.69114,31.3898,21.34694004058838
1618837296.70677,27.83589,21.36257004737854
1618837296.72239,23.74843,21.37819004058838
1618837296.73802,19.48068,21.39382004737854
1618837296.75365,15.29221,21.4094500541687
1618837296.76927,11.31534,21.42507004737854
1618837296.7849,7.547043,21.4407000541687
1618837296.80052,3.908585,21.45632004737854
1618837296.81615,0.3392639,21.4719500541687
1618837296.83177,-3.200134,21.48757004737854
1618837296.8474,-6.711578,21.5032000541687
1618837296.86303,-10.15625,21.518830060958862
1618837296.87865,-13.49625,21.5344500541687
1618837296.89428,-16.72556,21.550080060958862
1618837296.9099,-19.90967,21.5657000541687
1618837296.92553,-23.1915,21.581330060958862
1618837296.94115,-26.80066,21.5969500541687
1618837296.95678,-31.00098,21.612580060958862
1618837296.97241,-35.98825,21.628210067749023
1618837296.98803,-41.8114,21.643830060958862
1618837297.00366,-48.24527,21.659460067749023
1618837297.01928,-54.75092,21.675080060958862
1618837297.03491,-60.47144,21.690710067749023
1618837297.05053,-64.29324,21.706330060958862
1618837297.06616,-65.14532,21.721960067749023
1618837297.08179,-62.20847,21.737590074539185
1618837297.09741,-55.22745,21.753210067749023
1618837297.11304,-44.58347,21.768840074539185
1618837297.12866,-31.2814,21.784460067749023
1618837297.14429,-16.67657,21.800090074539185
1618837297.15991,-2.199188,21.815710067749023
1618837297.17554,10.98505,21.831340074539185
1618837297.19117,22.15976,21.846970081329346
1618837297.20679,31.11191,21.862590074539185
1618837297.22242,38.02667,21.878220081329346
1618837297.23804,43.28552,21.893840074539185
1618837297.25367,47.22833,21.909470081329346
1618837297.26929,50.02338,21.925090074539185
1618837297.28492,51.68036,21.940720081329346
1618837297.30055,52.16739,21.956350088119507
1618837297.31617,51.57779,21.971970081329346
1618837297.3318,50.17734,21.987600088119507
1618837297.34742,48.40378,22.003220081329346
1618837297.36305,46.6738,22.018850088119507
1618837297.37867,45.29224,22.034470081329346
1618837297.3943,44.37979,22.050100088119507
1618837297.40993,43.93643,22.065730094909668
1618837297.42555,43.91739,22.081350088119507
1618837297.44118,44.3038,22.096980094909668
1618837297.4568,45.03323,22.112600088119507
1618837297.47243,45.9494,22.128230094909668
1618837297.48805,46.75464,22.143850088119507
1618837297.50368,47.06525,22.159480094909668
1618837297.51931,46.5563,22.17511010169983
1618837297.53493,45.06253,22.190730094909668
1618837297.55056,42.6868,22.20636010169983
1618837297.56618,39.69061,22.221980094909668
1618837297.58181,36.34152,22.23761010169983
1618837297.59744,32.80865,22.25324010848999
1618837297.61306,29.11404,22.26886010169983
1618837297.62869,25.17044,22.28449010848999
1618837297.64431,20.91965,22.30011010169983
1618837297.65994,16.43036,22.31574010848999
1618837297.67556,11.86404,22.33136010169983
1618837297.69119,7.446228,22.34699010848999
1618837297.70682,3.313324,22.36262011528015
1618837297.72244,-0.5986938,22.37824010848999
1618837297.73807,-4.578735,22.39387011528015
1618837297.75369,-9.053314,22.40949010848999
1618837297.76932,-14.44702,22.42512011528015
1618837297.78494,-20.92081,22.44074010848999
1618837297.80057,-28.16653,22.45637011528015
1618837297.8162,-35.39175,22.472000122070312
1618837297.83182,-41.41534,22.48762011528015
1618837297.84745,-44.98099,22.503250122070312
1618837297.86307,-45.14075,22.51887011528015
1618837297.8787,-41.50681,22.534500122070312
1618837297.89432,-34.3335,22.55012011528015
1618837297.90995,-24.40305,22.565750122070312
1618837297.92558,-12.76917,22.581380128860474
1618837297.9412,-0.5076294,22.597000122070312
1618837297.95683,11.42505,22.612630128860474
1618837297.97245,22.25909,22.628250122070312
1618837297.98808,31.41876,22.643880128860474
1618837298.0037,38.52783,22.659500122070312
1618837298.01933,43.45724,22.675130128860474
1618837298.03496,46.34836,22.690760135650635
1618837298.05058,47.55069,22.706380128860474
1618837298.06621,47.47711,22.722010135650635
1618837298.08183,46.50772,22.737630128860474
1618837298.09746,44.86511,22.753260135650635
1618837298.11308,42.65546,22.768880128860474
1618837298.12871,39.94696,22.784510135650635
1618837298.14434,36.80386,22.800140142440796
1618837298.15996,33.39221,22.815760135650635
1618837298.17559,29.9216,22.831390142440796
1618837298.19121,26.61679,22.847010135650635
1618837298.20684,23.71631,22.862640142440796
1618837298.22246,21.38455,22.878260135650635
1618837298.23809,19.68677,22.893890142440796
1618837298.25372,18.55444,22.909520149230957
1618837298.26934,17.76123,22.925140142440796
1618837298.28497,16.96844,22.940770149230957
1618837298.30059,15.87479,22.956390142440796
1618837298.31622,14.2594,22.972020149230957
1618837298.33184,12.10349,22.987640142440796
1618837298.34747,9.511261,23.003270149230957
1618837298.3631,6.656891,23.018900156021118
1618837298.37872,3.668762,23.034520149230957
1618837298.39435,0.5947571,23.050150156021118
1618837298.40997,-2.569794,23.065770149230957
1618837298.4256,-5.85321,23.081400156021118
1618837298.44122,-9.23053,23.097020149230957
1618837298.45685,-12.67361,23.112650156021118
1618837298.47248,-16.10635,23.12828016281128
1618837298.4881,-19.51843,23.143900156021118
1618837298.50373,-22.96576,23.15953016281128
1618837298.51935,-26.62476,23.175150156021118
1618837298.53498,-30.71298,23.19078016281128
1618837298.5506,-35.47791,23.206400156021118
1618837298.56623,-41.10056,23.22203016281128
1618837298.58186,-47.56647,23.23766016960144
1618837298.59748,-54.61365,23.25328016281128
1618837298.61311,-61.64343,23.26891016960144
1618837298.62873,-67.76181,23.28453016281128
1618837298.64436,-71.93127,23.30016016960144
1618837298.65998,-73.19714,23.31578016281128
1618837298.67561,-70.93005,23.33141016960144
1618837298.69124,-65.021,23.3470401763916
1618837298.70686,-55.92929,23.36266016960144
1618837298.72249,-44.56638,23.3782901763916
1618837298.73811,-32.03552,23.39391016960144
1618837298.75374,-19.39722,23.4095401763916
1618837298.76936,-7.451447,23.42516016960144
1618837298.78499,3.296082,23.4407901763916
1618837298.80062,12.62192,23.456420183181763
1618837298.81624,20.50858,23.4720401763916
1618837298.83187,27.02576,23.487670183181763
1618837298.84749,32.29276,23.5032901763916
1618837298.86312,36.46207,23.518920183181763
1618837298.87874,39.67682,23.5345401763916
1618837298.89437,42.03308,23.550170183181763
1618837298.91,43.58112,23.565800189971924
1618837298.92562,44.3624,23.581420183181763
1618837298.94125,44.42206,23.597050189971924
1618837298.95687,43.86096,23.612670183181763
1618837298.9725,42.87057,23.628300189971924
1618837298.98812,41.72699,23.643920183181763
1618837299.00375,40.71042,23.659550189971924
1618837299.01938,40.04739,23.675180196762085
1618837299.035,39.82996,23.690800189971924
1618837299.05063,39.98645,23.706430196762085
1618837299.06625,40.31052,23.722050189971924
1618837299.08188,40.53415,23.737680196762085
1618837299.0975,40.41711,23.753300189971924
1618837299.11313,39.77682,23.768930196762085
1618837299.12876,38.52399,23.784560203552246
1618837299.14438,36.64307,23.800180196762085
1618837299.16001,34.15262,23.815810203552246
1618837299.17563,31.08478,23.831430196762085
1618837299.19126,27.51135,23.847060203552246
1618837299.20688,23.53381,23.862680196762085
1618837299.22251,19.2753,23.878310203552246
1618837299.23814,14.89807,23.893940210342407
1618837299.25376,10.51862,23.909560203552246
1618837299.26939,6.219391,23.925190210342407
1618837299.28501,2.021881,23.940810203552246
1618837299.30064,-2.098541,23.956440210342407
1618837299.31626,-6.164856,23.972060203552246
1618837299.33189,-10.20801,23.987690210342407
1618837299.34752,-14.31387,24.00332021713257
1618837299.36314,-18.65265,24.018940210342407
1618837299.37877,-23.45026,24.03457021713257
1618837299.39439,-28.9133,24.050190210342407
1618837299.41002,-35.06171,24.06582021713257
1618837299.42564,-41.54507,24.081440210342407
1618837299.44127,-47.62354,24.09707021713257
1618837299.4569,-52.26062,24.11269998550415
1618837299.47252,-54.44284,24.12832021713257
1618837299.48815,-53.4386,24.14394998550415
1618837299.50377,-49.08649,24.15957021713257
1618837299.5194,-41.82922,24.17519998550415
1618837299.53502,-32.55359,24.19082021713257
1618837299.55065,-22.36011,24.20644998550415
1618837299.56628,-12.25299,24.22207999229431
1618837299.5819,-2.938416,24.23769998550415
1618837299.59753,5.234772,24.25332999229431
1618837299.61315,12.19327,24.26894998550415
1618837299.62878,18.06015,24.28457999229431
1618837299.6444,22.98547,24.30019998550415
1618837299.66003,27.08621,24.31582999229431
1618837299.67566,30.36499,24.331459999084473
1618837299.69128,32.78259,24.34707999229431
1618837299.70691,34.31186,24.362709999084473
1618837299.72253,34.98026,24.37832999229431
1618837299.73816,34.8999,24.393959999084473
1618837299.75378,34.24799,24.40957999229431
1618837299.76941,33.17606,24.425209999084473
1618837299.78504,31.81042,24.440840005874634
1618837299.80066,30.23425,24.456459999084473
1618837299.81629,28.54544,24.472090005874634
1618837299.83191,26.95258,24.487709999084473
1618837299.84754,25.68726,24.503340005874634
1618837299.86316,24.8779,24.518959999084473
1618837299.87879,24.46976,24.534590005874634
1618837299.89442,24.2359,24.550220012664795
1618837299.91004,23.83328,24.565840005874634
1618837299.92567,22.9509,24.581470012664795
1618837299.94129,21.40231,24.597090005874634
1618837299.95692,19.20557,24.612720012664795
1618837299.97254,16.57117,24.628340005874634
1618837299.98817,13.73312,24.643970012664795
1618837300.0038,10.78229,24.659600019454956
1618837300.01942,7.652252,24.675220012664795
1618837300.03505,4.193909,24.690850019454956
1618837300.05067,0.2844849,24.706470012664795
1618837300.0663,-4.055481,24.722100019454956
1618837300.08193,-8.677399,24.737730026245117
1618837300.09755,-13.3259,24.753350019454956
1618837300.11318,-17.60217,24.768980026245117
1618837300.1288,-21.2373,24.784600019454956
1618837300.14443,-24.20416,24.800230026245117
1618837300.16005,-26.75369,24.815850019454956
1618837300.17568,-29.35855,24.831480026245117
1618837300.19131,-32.49738,24.84711003303528
1618837300.20693,-36.50729,24.862730026245117
1618837300.22256,-41.42062,24.87836003303528
1618837300.23818,-46.80084,24.893980026245117
1618837300.25381,-51.29327,24.90961003303528
1618837300.26943,-53.34982,24.925230026245117
1618837300.28506,-51.73495,24.94086003303528
1618837300.30069,-46.01337,24.95649003982544
1618837300.31631,-36.73376,24.97211003303528
1618837300.33194,-25.15494,24.98774003982544
1618837300.34756,-12.90378,25.00336003303528
1618837300.36319,-1.452942,25.01899003982544
1618837300.37881,8.243988,25.03461003303528
1618837300.39444,16.79565,25.05024003982544
1618837300.41007,25.14255,25.0658700466156
1618837300.42569,33.87766,25.08149003982544
1618837300.44132,42.80429,25.0971200466156
1618837300.45694,51.05795,25.11274003982544
1618837300.47257,57.68713,25.1283700466156
1618837300.48819,62.03574,25.14399003982544
1618837300.50382,63.905,25.1596200466156
1618837300.51945,63.58139,25.17525005340576
1618837300.53507,63.04947,25.1908700466156
1618837300.5507,64.12891,25.20650005340576
1618837300.56632,67.74542,25.2221200466156
1618837300.58195,73.74496,25.23775005340576
1618837300.59757,81.35684,25.2533700466156
1618837300.6132,89.99265,25.26900005340576
1618837300.62883,99.36044,25.284630060195923
1618837300.64445,109.1268,25.30025005340576
1618837300.66008,118.5355,25.315880060195923
1618837300.6757,128.0641,25.33150005340576
1618837300.69133,137.5731,25.347130060195923
1618837300.70695,146.2504,25.36275005340576
1618837300.72258,152.9538,25.378380060195923
1618837300.73821,157.0254,25.394010066986084
1618837300.75383,158.9498,25.409630060195923
1618837300.76946,159.9203,25.425260066986084
1618837300.78508,161.0515,25.440880060195923
1618837300.80071,151.7145,25.456510066986084
1618837300.81633,125.7691,25.472130060195923
1618837300.83196,84.01649,25.487760066986084
1618837300.84759,34.94559,25.503390073776245
1618837300.86321,-10.4722,25.519010066986084
1618837300.87884,-45.03812,25.534640073776245
1618837300.89446,-66.93207,25.550260066986084
1618837300.91009,-78.21619,25.565890073776245
1618837300.92571,-82.55542,25.581510066986084
1618837300.94134,-83.44513,25.597140073776245
1618837300.95697,-81.51469,25.612770080566406
1618837300.97259,-76.5686,25.628390073776245
1618837300.98822,-68.63431,25.644020080566406
1618837301.00384,-58.63905,25.659640073776245
1618837301.01947,-48.49415,25.675270080566406
1618837301.03509,-39.81905,25.690890073776245
1618837301.05072,-33.64983,25.706520080566406
1618837301.06635,-30.5501,25.722150087356567
1618837301.08197,-30.69813,25.737770080566406
1618837301.0976,-32.58298,25.753400087356567
1618837301.11322,-34.49097,25.769020080566406
1618837301.12885,-35.82568,25.784650087356567
1618837301.14447,-36.71747,25.800270080566406
1618837301.1601,-38.24517,25.815900087356567
1618837301.17573,-41.01819,25.83153009414673
1618837301.19135,-45.2051,25.847150087356567
1618837301.20698,-50.75068,25.86278009414673
1618837301.2226,-57.58398,25.878400087356567
1618837301.23823,-64.97305,25.89403009414673
1618837301.25385,-72.617,25.909650087356567
1618837301.26948,-80.75903,25.92528009414673
1618837301.28511,-89.74619,25.94091010093689
1618837301.30073,-99.87664,25.95653009414673
1618837301.31636,-109.6577,25.97216010093689
1618837301.33198,-116.256,25.98778009414673
1618837301.34761,-116.7384,26.00341010093689
1618837301.36323,-109.4146,26.01903009414673
1618837301.37886,-94.37487,26.03466010093689
1618837301.39449,-74.01392,26.05029010772705
1618837301.41011,-52.47915,26.06591010093689
1618837301.42574,-29.96049,26.08154010772705
1618837301.44136,-9.391373,26.09716010093689
1618837301.45699,7.15686,26.11279010772705
1618837301.47261,18.98259,26.12841010093689
1618837301.48824,26.55946,26.14404010772705
1618837301.50387,30.94151,26.159670114517212
1618837301.51949,33.37732,26.17529010772705
1618837301.53512,34.767,26.190920114517212
1618837301.55074,35.4572,26.20654010772705
1618837301.56637,35.35425,26.222170114517212
1618837301.58199,33.29608,26.23779010772705
1618837301.59762,28.54161,26.253420114517212
1618837301.61325,20.83188,26.269050121307373
1618837301.62887,10.51213,26.284670114517212
1618837301.6445,-1.598022,26.300300121307373
1618837301.66012,-14.32491,26.315920114517212
1618837301.67575,-26.36044,26.331550121307373
1618837301.69137,-36.51596,26.347170114517212
1618837301.707,-43.89537,26.362800121307373
1618837301.72263,-48.62582,26.378430128097534
1618837301.73825,-51.04124,26.394050121307373
1618837301.75388,-51.8842,26.409680128097534
1618837301.7695,-52.20583,26.425300121307373
1618837301.78513,-53.15172,26.440930128097534
1618837301.80075,-55.60405,26.456550121307373
1618837301.81638,-59.94267,26.472180128097534
1618837301.83201,-65.86699,26.487810134887695
1618837301.84763,-72.42964,26.503430128097534
1618837301.86326,-78.59065,26.519060134887695
1618837301.87888,-83.08397,26.534680128097534
1618837301.89451,-84.94193,26.550310134887695
1618837301.91013,-83.80185,26.565930128097534
1618837301.92576,-80.02409,26.581560134887695
1618837301.94139,-74.47029,26.597190141677856
1618837301.95701,-68.15086,26.612810134887695
1618837301.97264,-61.83389,26.628440141677856
1618837301.98826,-55.81726,26.644060134887695
1618837302.00389,-50.10284,26.659690141677856
1618837302.01951,-44.3195,26.675310134887695
1618837302.03514,-38.11479,26.690940141677856
1618837302.05077,-31.3521,26.706570148468018
1618837302.06639,-24.24254,26.722190141677856
1618837302.08202,-17.2254,26.737820148468018
1618837302.09764,-10.81621,26.753440141677856
1618837302.11327,-5.450439,26.769070148468018
1618837302.12889,-1.386017,26.784690141677856
1618837302.14452,1.273895,26.800320148468018
1618837302.16015,2.660538,26.81595015525818
1618837302.17577,3.060944,26.831570148468018
1618837302.1914,2.87117,26.84720015525818
1618837302.20702,2.460846,26.862820148468018
1618837302.22265,2.115051,26.87845015525818
1618837302.23828,1.916946,26.89408016204834
1618837302.2539,1.825882,26.90970015525818
1618837302.26953,1.6595,26.92533016204834
1618837302.28515,1.256805,26.94095015525818
1618837302.30078,0.5797424,26.95658016204834
1618837302.3164,-0.3000641,26.97220015525818
1618837302.33203,-1.184677,26.98783016204834
1618837302.34766,-1.907211,27.0034601688385
1618837302.36328,-2.406952,27.01908016204834
1618837302.37891,-2.778442,27.0347101688385
1618837302.39453,-3.257675,27.05033016204834
1618837302.41016,-4.112061,27.0659601688385
1618837302.42578,-5.592148,27.08158016204834
1618837302.44141,-7.869766,27.0972101688385
1618837302.45704,-10.98611,27.112840175628662
1618837302.47266,-14.84512,27.1284601688385
1618837302.48829,-19.24168,27.144090175628662
1618837302.50391,-23.86563,27.1597101688385
1618837302.51954,-28.39066,27.175340175628662
1618837302.53516,-32.57921,27.1909601688385
1618837302.55079,-36.38167,27.206590175628662
1618837302.56642,-39.91862,27.222220182418823
1618837302.58204,-43.5,27.237840175628662
1618837302.59767,-47.48706,27.253470182418823
1618837302.61329,-52.14229,27.269090175628662
1618837302.62892,-57.466,27.284720182418823
1618837302.64454,-63.0722,27.300340175628662
1618837302.66017,-68.18367,27.315970182418823
1618837302.6758,-71.71165,27.331600189208984
1618837302.69142,-72.55997,27.347220182418823
1618837302.70705,-69.93744,27.362850189208984
1618837302.72267,-63.65802,27.378470182418823
1618837302.7383,-54.25047,27.394100189208984
1618837302.75392,-42.83842,27.409720182418823
1618837302.76955,-30.76775,27.425350189208984
1618837302.78518,-19.20054,27.440980195999146
1618837302.8008,-8.81221,27.456600189208984
1618837302.81643,0.2859116,27.472230195999146
1618837302.83205,8.317673,27.487850189208984
1618837302.84768,15.60738,27.503480195999146
1618837302.8633,22.27425,27.519100189208984
1618837302.87893,28.25667,27.534730195999146
1618837302.89456,33.25743,27.550360202789307
1618837302.91018,37.02995,27.565980195999146
1618837302.92581,39.4852,27.581610202789307
1618837302.94143,40.7045,27.597230195999146
1618837302.95706,40.94258,27.612860202789307
1618837302.97268,40.50407,27.628480195999146
1618837302.98831,39.64291,27.644110202789307
1618837303.00394,38.53688,27.659740209579468
1618837303.01956,37.29966,27.675360202789307
1618837303.03519,36.05049,27.690990209579468
1618837303.05081,34.92583,27.706610202789307
1618837303.06644,34.11773,27.722240209579468
1618837303.08206,33.74578,27.737860202789307
1618837303.09769,33.80656,27.753490209579468
1618837303.11332,34.06024,27.76912021636963
1618837303.12894,34.08215,27.784740209579468
1618837303.14457,33.39067,27.80037021636963
1618837303.16019,31.59795,27.815990209579468
1618837303.17582,28.65903,27.83162021636963
1618837303.19144,24.85353,27.847240209579468
1618837303.20707,20.72374,27.86287021636963
1618837303.2227,16.83015,27.87850022315979
1618837303.23832,13.51672,27.89412021636963
1618837303.25395,10.81599,27.90975022315979
1618837303.26957,8.45536,27.92537021636963
1618837303.2852,6.027916,27.94100022315979
1618837303.30082,3.183533,27.95662021636963
1618837303.31645,-0.1899071,27.97225022315979
1618837303.33208,-3.944244,27.987879991531372
1618837303.3477,-7.735855,28.00350022315979
1618837303.36333,-11.20999,28.019129991531372
1618837303.37895,-14.08368,28.03475022315979
1618837303.39458,-16.34544,28.050379991531372
1618837303.4102,-18.19994,28.06600022315979
1618837303.42583,-20.01016,28.081629991531372
1618837303.44146,-22.21098,28.097259998321533
1618837303.45708,-25.1855,28.112879991531372
1618837303.47271,-29.18719,28.128509998321533
1618837303.48833,-34.24374,28.144129991531372
1618837303.50396,-40.08004,28.159759998321533
1618837303.51958,-46.05505,28.175379991531372
1618837303.53521,-51.1904,28.191009998321533
1618837303.55084,-54.32118,28.206640005111694
1618837303.56646,-54.40767,28.222259998321533
1618837303.58209,-50.9063,28.237890005111694
1618837303.59771,-43.97598,28.253509998321533
1618837303.61334,-34.47342,28.269140005111694
1618837303.62896,-23.65349,28.284759998321533
1618837303.64459,-12.74104,28.300390005111694
1618837303.66022,-2.570114,28.316020011901855
1618837303.67584,6.525284,28.331640005111694
1618837303.69147,14.57918,28.347270011901855
1618837303.70709,21.73842,28.362890005111694
1618837303.72272,28.05719,28.378520011901855
1618837303.73834,33.42413,28.394140005111694
1618837303.75397,37.66055,28.409770011901855
1618837303.7696,40.66759,28.425400018692017
1618837303.78522,42.5023,28.441020011901855
1618837303.80085,43.35304,28.456650018692017
1618837303.81647,43.43304,28.472270011901855
1618837303.8321,42.9176,28.487900018692017
1618837303.84772,41.93945,28.503520011901855
1618837303.86335,40.59003,28.519150018692017
1618837303.87898,39.0674,28.534780025482178
1618837303.8946,37.68585,28.550400018692017
1618837303.91023,36.77097,28.566030025482178
1618837303.92585,36.56917,28.581650018692017
1618837303.94148,37.11198,28.597280025482178
1618837303.9571,38.15819,28.612900018692017
1618837303.97273,39.24088,28.628530025482178
1618837303.98836,39.83537,28.64416003227234
1618837304.00398,39.54865,28.659780025482178
1618837304.01961,38.2746,28.67541003227234
1618837304.03523,36.20374,28.691030025482178
1618837304.05086,33.72748,28.70666003227234
1618837304.06648,31.26938,28.722280025482178
1618837304.08211,29.01669,28.73791003227234
1618837304.09774,26.8826,28.7535400390625
1618837304.11336,24.53867,28.76916003227234
1618837304.12899,21.57596,28.7847900390625
1618837304.14461,17.74988,28.80041003227234
1618837304.16024,13.08441,28.8160400390625
1618837304.17586,7.878418,28.83166003227234
1618837304.19149,2.546783,28.8472900390625
1618837304.20712,-2.584015,28.86292004585266
1618837304.22274,-7.415131,28.8785400390625
1618837304.23837,-12.12109,28.89417004585266
1618837304.25399,-17.0704,28.9097900390625
1618837304.26962,-22.63574,28.92542004585266
1618837304.28524,-29.05338,28.9410400390625
1618837304.30087,-36.27509,28.95667004585266
1618837304.3165,-43.87521,28.972300052642822
1618837304.33212,-51.08817,28.98792004585266
1618837304.34775,-56.88681,29.003550052642822
1618837304.36337,-60.21109,29.01917004585266
1618837304.379,-60.2193,29.034800052642822
1618837304.39462,-56.53561,29.05042004585266
1618837304.41025,-49.4028,29.066050052642822
1618837304.42588,-39.66418,29.081680059432983
1618837304.4415,-28.57242,29.097300052642822
1618837304.45713,-17.41745,29.112930059432983
1618837304.47275,-7.182343,29.128550052642822
1618837304.48838,1.651703,29.144180059432983
1618837304.504,9.114502,29.159800052642822
1618837304.51963,15.53345,29.175430059432983
1618837304.53526,21.23914,29.191060066223145
1618837304.55088,26.37234,29.206680059432983
1618837304.56651,30.85605,29.222310066223145
1618837304.58213,34.45038,29.237930059432983
1618837304.59776,36.98129,29.253560066223145
1618837304.61338,38.42233,29.269180059432983
1618837304.62901,38.94449,29.284810066223145
1618837304.64464,38.81219,29.300440073013306
1618837304.66026,38.25122,29.316060066223145
1618837304.67589,37.41699,29.331690073013306
1618837304.69151,36.38733,29.347310066223145
1618837304.70714,35.22839,29.362940073013306
1618837304.72276,34.08426,29.378560066223145
1618837304.73839,33.1875,29.394190073013306
1618837304.75402,32.75113,29.409820079803467
1618837304.76964,32.90131,29.425440073013306
1618837304.78527,33.50922,29.441070079803467
1618837304.80089,34.21786,29.456690073013306
1618837304.81652,34.55774,29.472320079803467
1618837304.83214,34.0881,29.487940073013306
1618837304.84777,32.5787,29.503570079803467
1618837304.8634,30.08929,29.519200086593628
1618837304.87902,26.89761,29.534820079803467
1618837304.89465,23.37656,29.550450086593628
1618837304.91027,19.82184,29.566070079803467
1618837304.9259,16.37613,29.581700086593628
1618837304.94153,12.94122,29.59733009338379
1618837304.95715,9.324402,29.612950086593628
1618837304.97278,5.320801,29.62858009338379
1618837304.9884,0.8457947,29.644200086593628
1618837305.00403,-4.037079,29.65983009338379
1618837305.01965,-9.100311,29.675450086593628
1618837305.03528,-14.10974,29.69108009338379
1618837305.05091,-18.86349,29.70671010017395
1618837305.06653,-23.30255,29.72233009338379
1618837305.08216,-27.49667,29.73796010017395
1618837305.09778,-31.63882,29.75358009338379
1618837305.11341,-36.04016,29.76921010017395
1618837305.12903,-40.98651,29.78483009338379
1618837305.14466,-46.66293,29.80046010017395
1618837305.16029,-52.94089,29.81609010696411
1618837305.17591,-59.30273,29.83171010017395
1618837305.19154,-64.77441,29.84734010696411
1618837305.20716,-68.14407,29.86296010017395
1618837305.22279,-68.311,29.87859010696411
1618837305.23841,-64.64523,29.89421010017395
1618837305.25404,-57.22583,29.90984010696411
1618837305.26967,-46.81287,29.925470113754272
1618837305.28529,-34.6554,29.94109010696411
1618837305.30092,-22.06152,29.956720113754272
1618837305.31654,-10.13132,29.97234010696411
1618837305.33217,0.4729614,29.987970113754272
1618837305.34779,9.494171,30.00359010696411
1618837305.36342,16.95581,30.019220113754272
1618837305.37905,23.01978,30.034850120544434
1618837305.39467,27.87732,30.050470113754272
1618837305.4103,31.73013,30.066100120544434
1618837305.42592,34.7728,30.081720113754272
1618837305.44155,37.23584,30.097350120544434
1618837305.45717,39.3175,30.112970113754272
1618837305.4728,41.15515,30.128600120544434
1618837305.48843,42.77353,30.144230127334595
1618837305.50405,44.11371,30.159850120544434
1618837305.51968,45.02054,30.175480127334595
1618837305.5353,45.38849,30.191100120544434
1618837305.55093,45.20038,30.206730127334595
1618837305.56655,44.6095,30.222350120544434
1618837305.58218,43.86737,30.237980127334595
1618837305.59781,43.28223,30.253610134124756
1618837305.61343,43.06451,30.269230127334595
1618837305.62906,43.23022,30.284860134124756
1618837305.64468,43.6087,30.300480127334595
1618837305.66031,43.88354,30.316110134124756
1618837305.67593,43.67346,30.331730127334595
1618837305.69156,42.68744,30.347360134124756
1618837305.70719,40.81445,30.362990140914917
1618837305.72281,38.16302,30.378610134124756
1618837305.73844,34.98932,30.394240140914917
1618837305.75406,31.61536,30.409860134124756
1618837305.76969,28.27808,30.425490140914917
1618837305.78531,25.04309,30.441110134124756
1618837305.80094,21.81042,30.456740140914917
1618837305.81657,18.30872,30.472370147705078
1618837305.83219,14.30957,30.487990140914917
1618837305.84782,9.656433,30.503620147705078
1618837305.86344,4.405457,30.519240140914917
1618837305.87907,-1.190796,30.534870147705078
1618837305.89469,-6.810059,30.550490140914917
1618837305.91032,-12.17175,30.566120147705078
1618837305.92595,-17.26184,30.58175015449524
1618837305.94157,-22.33026,30.597370147705078
1618837305.9572,-27.80737,30.61300015449524
1618837305.97282,-34.07404,30.628620147705078
1618837305.98845,-41.2417,30.64425015449524
1618837306.00407,-48.96838,30.659870147705078
1618837306.0197,-56.43042,30.67550015449524
1618837306.03533,-62.51166,30.6911301612854
1618837306.05095,-66.04932,30.70675015449524
1618837306.06658,-66.15088,30.7223801612854
1618837306.0822,-62.42456,30.73800015449524
1618837306.09783,-55.10382,30.7536301612854
1618837306.11345,-45.01593,30.76925015449524
1618837306.12908,-33.35211,30.7848801612854
1618837306.14471,-21.3728,30.80051016807556
1618837306.16033,-10.12,30.8161301612854
1618837306.17596,-0.2018433,30.83176016807556
1618837306.19158,8.215271,30.8473801612854
1618837306.20721,15.27478,30.86301016807556
1618837306.22283,21.28619,30.8786301612854
1618837306.23846,26.43982,30.89426016807556
1618837306.25409,30.84186,30.909890174865723
1618837306.26971,34.43079,30.92551016807556
1618837306.28534,37.07361,30.941140174865723
1618837306.30096,38.7019,30.95676016807556
1618837306.31659,39.28613,30.972390174865723
1618837306.33221,38.92059,30.98801016807556
1618837306.34784,37.80847,31.003640174865723
1618837306.36347,36.22009,31.019270181655884
1618837306.37909,34.45282,31.034890174865723
1618837306.39472,32.75549,31.050520181655884
1618837306.41034,31.31586,31.066140174865723
1618837306.42597,30.23987,31.081770181655884
1618837306.44159,29.5741,31.097390174865723
1618837306.45722,29.284,31.113020181655884
1618837306.47285,29.2511,31.128650188446045
1618837306.48847,29.21454,31.144270181655884
1618837306.5041,28.81067,31.159900188446045
1618837306.51972,27.68524,31.175520181655884
1618837306.53535,25.60712,31.191150188446045
1618837306.55097,22.62445,31.206770181655884
1618837306.5666,19.00995,31.222400188446045
1618837306.58223,15.14703,31.238030195236206
1618837306.59785,11.30225,31.253650188446045
1618837306.61348,7.532593,31.269280195236206
1618837306.6291,3.670898,31.284900188446045
1618837306.64473,-0.4655762,31.300530195236206
1618837306.66035,-4.896057,31.316150188446045
1618837306.67598,-9.380371,31.331780195236206
1618837306.69161,-13.50635,31.347410202026367
1618837306.70723,-16.90784,31.363030195236206
1618837306.72286,-19.43054,31.378660202026367
1618837306.73848,-21.26587,31.394280195236206
1618837306.75411,-22.88477,31.409910202026367
1618837306.76973,-24.84808,31.425530195236206
1618837306.78536,-27.65131,31.441160202026367
1618837306.80099,-31.54504,31.45679020881653
1618837306.81661,-36.48309,31.472410202026367
1618837306.83224,-42.07166,31.48804020881653
1618837306.84786,-47.63068,31.503660202026367
1618837306.86349,-52.17639,31.51929020881653
1618837306.87911,-54.60931,31.534910202026367
1618837306.89474,-53.95581,31.55054020881653
1618837306.91037,-49.61908,31.56617021560669
1618837306.92599,-41.68036,31.58179020881653
1618837306.94162,-30.88751,31.59742021560669
1618837306.95724,-18.51788,31.61304020881653
1618837306.97287,-5.970215,31.62867021560669
1618837306.98849,5.596313,31.64429020881653
1618837307.00412,15.50165,31.65992021560669
1618837307.01975,23.61249,31.67555022239685
1618837307.03537,30.12561,31.69117021560669
1618837307.051,35.35968,31.70680022239685
1618837307.06662,39.51819,31.72242021560669
1618837307.08225,42.62885,31.73805022239685
1618837307.09788,44.60461,31.753679990768433
1618837307.1135,45.43384,31.76930022239685
1618837307.12913,45.21509,31.784929990768433
1618837307.14475,44.21344,31.80055022239685
1618837307.16038,42.75122,31.816179990768433
1618837307.176,41.09662,31.83180022239685
1618837307.19163,39.3877,31.847429990768433
1618837307.20726,37.67365,31.863059997558594
1618837307.22288,35.9715,31.878679990768433
1618837307.23851,34.34723,31.894309997558594
1618837307.25413,32.914,31.909929990768433
1618837307.26976,31.75024,31.925559997558594
1618837307.28538,30.86255,31.941179990768433
1618837307.30101,30.07892,31.956809997558594
1618837307.31664,29.10913,31.972440004348755
1618837307.33226,27.65802,31.988059997558594
1618837307.34789,25.55328,32.003690004348755
1618837307.36351,22.81915,32.019309997558594
1618837307.37914,19.62463,32.034940004348755
1618837307.39476,16.16644,32.050559997558594
1618837307.41039,12.58887,32.066190004348755
1618837307.42602,8.90686,32.081820011138916
1618837307.44164,5.064392,32.097440004348755
1618837307.45727,1.022278,32.113070011138916
1618837307.47289,-3.178345,32.128690004348755
1618837307.48852,-7.427307,32.144320011138916
1618837307.50414,-11.5954,32.159940004348755
1618837307.51977,-15.64594,32.175570011138916
1618837307.5354,-19.69812,32.19120001792908
1618837307.55102,-24.03448,32.206820011138916
1618837307.56665,-28.97351,32.22245001792908
1618837307.58227,-34.70197,32.238070011138916
1618837307.5979,-41.1308,32.25370001792908
1618837307.61352,-47.78339,32.269320011138916
1618837307.62915,-53.85791,32.28495001792908
1618837307.64478,-58.35602,32.30058002471924
1618837307.6604,-60.29474,32.31620001792908
1618837307.67603,-58.97949,32.33183002471924
1618837307.69165,-54.22699,32.34745001792908
1618837307.70728,-46.40277,32.36308002471924
1618837307.7229,-36.38214,32.37870001792908
1618837307.73853,-25.28543,32.39433002471924
1618837307.75416,-14.19724,32.4099600315094
1618837307.76978,-3.956604,32.42558002471924
1618837307.78541,4.988037,32.4412100315094
1618837307.80103,12.5777,32.45683002471924
1618837307.81666,18.98108,32.4724600315094
1618837307.83228,24.43109,32.48808002471924
1618837307.84791,29.09964,32.5037100315094
1618837307.86354,33.04163,32.51934003829956
1618837307.87916,36.21112,32.5349600315094
1618837307.89479,38.55484,32.55059003829956
1618837307.91041,40.077,32.5662100315094
1618837307.92604,40.853,32.58184003829956
1618837307.94166,41.00754,32.5974600315094
1618837307.95729,40.6564,32.61309003829956
1618837307.97292,39.92715,32.62872004508972
1618837307.98854,38.92361,32.64434003829956
1618837308.00417,37.76462,32.65997004508972
1618837308.01979,36.57828,32.67559003829956
1618837308.03542,35.49878,32.69122004508972
1618837308.05104,34.5975,32.70684003829956
1618837308.06667,33.81448,32.72247004508972
1618837308.0823,32.96335,32.73810005187988
1618837308.09792,31.80692,32.75372004508972
1618837308.11355,30.12787,32.76935005187988
1618837308.12917,27.88367,32.78497004508972
1618837308.1448,25.1507,32.80060005187988
1618837308.16042,22.09665,32.81622004508972
1618837308.17605,18.86389,32.83185005187988
1618837308.19168,15.50153,32.847480058670044
1618837308.2073,11.93112,32.86310005187988
1618837308.22293,8.058319,32.878730058670044
1618837308.23855,3.864166,32.89435005187988
1618837308.25418,-0.5571594,32.909980058670044
1618837308.2698,-4.999481,32.92560005187988
1618837308.28543,-9.229797,32.941230058670044
1618837308.30106,-13.09781,32.956860065460205
1618837308.31668,-16.57797,32.972480058670044
1618837308.33231,-19.80798,32.988110065460205
1618837308.34793,-23.02451,33.003730058670044
1618837308.36356,-26.51111,33.019360065460205
1618837308.37918,-30.5546,33.034980058670044
1618837308.39481,-35.37167,33.050610065460205
1618837308.41044,-41.03601,33.066240072250366
1618837308.42606,-47.36096,33.081860065460205
1618837308.44169,-53.80457,33.097490072250366
1618837308.45731,-59.48898,33.113110065460205
1618837308.47294,-63.33279,33.128740072250366
1618837308.48856,-64.31052,33.144360065460205
1618837308.50419,-61.78473,33.159990072250366
1618837308.51982,-55.78458,33.17562007904053
1618837308.53544,-46.97638,33.191240072250366
1618837308.55107,-36.51315,33.20687007904053
1618837308.56669,-25.61157,33.222490072250366
1618837308.58232,-15.26563,33.23812007904053
1618837308.59794,-5.980988,33.253740072250366
1618837308.61357,2.187408,33.26937007904053
1618837308.6292,9.396759,33.28500008583069
1618837308.64482,15.82645,33.30062007904053
1618837308.66045,21.5014,33.31625008583069
1618837308.67607,26.28342,33.33187007904053
1618837308.6917,30.02921,33.34750008583069
1618837308.70732,32.67285,33.36312007904053
1618837308.72295,34.32535,33.37875008583069
1618837308.73858,35.17551,33.39438009262085
1618837308.7542,35.4343,33.41000008583069
1618837308.76983,35.2171,33.42563009262085
1618837308.78545,34.57687,33.44125008583069
1618837308.80108,33.53241,33.45688009262085
1618837308.8167,32.18011,33.47250008583069
1618837308.83233,30.70062,33.48813009262085
1618837308.84796,29.31906,33.50376009941101
1618837308.86358,28.24313,33.51938009262085
1618837308.87921,27.54965,33.53501009941101
1618837308.89483,27.16705,33.55063009262085
1618837308.91046,26.89606,33.56626009941101
1618837308.92608,26.48569,33.58188009262085
1618837308.94171,25.72006,33.59751009941101
1618837308.95734,24.46884,33.61314010620117
1618837308.97296,22.69919,33.62876009941101
1618837308.98859,20.43915,33.64439010620117
1618837309.00421,17.77298,33.66001009941101
1618837309.01984,14.75491,33.67564010620117
1618837309.03546,11.44244,33.69126009941101
1618837309.05109,7.837616,33.70689010620117
1618837309.06672,3.951843,33.72252011299133
1618837309.08234,-0.1841736,33.73814010620117
1618837309.09797,-4.49231,33.75377011299133
1618837309.11359,-8.813843,33.76939010620117
1618837309.12922,-12.97052,33.78502011299133
1618837309.14484,-16.86597,33.80064010620117
1618837309.16047,-20.51007,33.81627011299133
1618837309.1761,-24.15027,33.831900119781494
1618837309.19172,-28.1434,33.84752011299133
1618837309.20735,-32.85788,33.863150119781494
1618837309.22297,-38.4227,33.87877011299133
1618837309.2386,-44.59412,33.894400119781494
1618837309.25422,-50.68909,33.91002011299133
1618837309.26985,-55.72879,33.925650119781494
1618837309.28548,-58.67865,33.941280126571655
1618837309.3011,-58.73584,33.956900119781494
1618837309.31673,-55.5575,33.972530126571655
1618837309.33235,-49.35321,33.988150119781494
1618837309.34798,-40.78326,34.003780126571655
1618837309.36361,-30.76105,34.019410133361816
1618837309.37923,-20.24203,34.035030126571655
1618837309.39486,-9.9841,34.050660133361816
1618837309.41048,-0.4684753,34.066280126571655
1618837309.42611,8.104156,34.081910133361816
1618837309.44173,15.79103,34.097530126571655
1618837309.45736,22.71916,34.113160133361816
1618837309.47299,28.93954,34.12879014015198
1618837309.48861,34.2643,34.144410133361816
1618837309.50424,38.23566,34.16004014015198
1618837309.51986,40.26411,34.175660133361816
1618837309.53549,39.89052,34.19129014015198
1618837309.55111,37.05481,34.206910133361816
1618837309.56674,32.23363,34.22254014015198
1618837309.58237,26.35135,34.23817014694214
1618837309.59799,20.49013,34.25379014015198
1618837309.61362,15.54503,34.26942014694214
1618837309.62924,12.0267,34.28504014015198
1618837309.64487,9.958267,34.30067014694214
1618837309.66049,9.115707,34.31629014015198
1618837309.67612,9.163025,34.33192014694214
1618837309.69175,9.810593,34.3475501537323
1618837309.70737,10.8033,34.36317014694214
1618837309.723,11.88446,34.3788001537323
1618837309.73862,12.74304,34.39442014694214
1618837309.75425,13.08702,34.4100501537323
1618837309.76987,12.71983,34.42567014694214
1618837309.7855,11.6073,34.4413001537323
1618837309.80113,9.910721,34.45693016052246
1618837309.81675,7.878784,34.4725501537323
1618837309.83238,5.768723,34.48818016052246
1618837309.848,3.725128,34.5038001537323
1618837309.86363,1.761688,34.51943016052246
1618837309.87925,-0.2486267,34.5350501537323
1618837309.89488,-2.508545,34.55068016052246
1618837309.91051,-5.239105,34.56631016731262
1618837309.92613,-8.582123,34.58193016052246
1618837309.94176,-12.55165,34.59756016731262
1618837309.95738,-17.05841,34.61318016052246
1618837309.97301,-21.97208,34.62881016731262
1618837309.98863,-27.22369,34.64443016052246
1618837310.00426,-32.8125,34.66006016731262
1618837310.01989,-38.76027,34.67569017410278
1618837310.03551,-44.97493,34.69131016731262
1618837310.05114,-51.02208,34.70694017410278
1618837310.06676,-56.15417,34.72256016731262
1618837310.08239,-59.40231,34.73819017410278
1618837310.09801,-59.89012,34.75381016731262
1618837310.11364,-57.16287,34.76944017410278
1618837310.12927,-51.38594,34.785070180892944
1618837310.14489,-43.2939,34.80069017410278
1618837310.16052,-33.96306,34.816320180892944
1618837310.17614,-24.46796,34.83194017410278
1618837310.19177,-15.59998,34.847570180892944
1618837310.20739,-7.772369,34.86319017410278
1618837310.22302,-1.041382,34.878820180892944
1618837310.23865,4.725739,34.894450187683105
1618837310.25427,9.713089,34.910070180892944
1618837310.2699,14.02242,34.925700187683105
1618837310.28552,17.63055,34.941320180892944
1618837310.30115,20.41841,34.956950187683105
1618837310.31677,22.24605,34.972570180892944
1618837310.3324,23.05416,34.988200187683105
1618837310.34803,22.92005,35.00383019447327
1618837310.36365,22.08045,35.019450187683105
1618837310.37928,20.85531,35.03508019447327
1618837310.3949,19.58547,35.050700187683105
1618837310.41053,18.52077,35.06633019447327
1618837310.42615,17.77224,35.081950187683105
1618837310.44178,17.32663,35.09758019447327
1618837310.45741,17.11458,35.11321020126343
1618837310.47303,17.00991,35.12883019447327
1618837310.48866,16.92844,35.14446020126343
1618837310.50428,16.79681,35.16008019447327
1618837310.51991,16.53176,35.17571020126343
1618837310.53553,16.05321,35.19133019447327
1618837310.55116,15.23466,35.20696020126343
1618837310.56679,14.01032,35.22259020805359
1618837310.58241,12.36502,35.23821020126343
1618837310.59804,10.36405,35.25384020805359
1618837310.61366,8.113335,35.26946020126343
1618837310.62929,5.709229,35.28509020805359
1618837310.64491,3.173332,35.30071020126343
1618837310.66054,0.460968,35.31634020805359
1618837310.67617,-2.486061,35.33197021484375
1618837310.69179,-5.66703,35.34759020805359
1618837310.70742,-8.993103,35.36322021484375
1618837310.72304,-12.30112,35.37884020805359
1618837310.73867,-15.47034,35.39447021484375
1618837310.75429,-18.52663,35.41009020805359
1618837310.76992,-21.64857,35.42572021484375
1618837310.78555,-25.15782,35.44135022163391
1618837310.80117,-29.38285,35.45697021484375
1618837310.8168,-34.51944,35.47260022163391
1618837310.83242,-40.53794,35.48822021484375
1618837310.84805,-47.08578,35.50385022163391
1618837310.86367,-53.52151,35.51947021484375
1618837310.8793,-58.93665,35.53510022163391
1618837310.89493,-62.35468,35.55072999000549
1618837310.91055,-62.93681,35.56635022163391
1618837310.92618,-60.24493,35.58197999000549
1618837310.9418,-54.39087,35.59760022163391
1618837310.95743,-46.04688,35.61322999000549
1618837310.97305,-36.25847,35.62885022163391
1618837310.98868,-26.13567,35.64447999000549
1618837311.00431,-16.52956,35.660109996795654
1618837311.01993,-7.891762,35.67572999000549
1618837311.03556,-0.2724152,35.691359996795654
1618837311.05118,6.488579,35.70697999000549
1618837311.06681,12.5471,35.722609996795654
1618837311.08243,17.94921,35.73822999000549
1618837311.09806,22.5928,35.753859996795654
1618837311.11369,26.3595,35.769490003585815
1618837311.12931,29.21074,35.785109996795654
1618837311.14494,31.22911,35.800740003585815
1618837311.16056,32.58856,35.816359996795654
1618837311.17619,33.45349,35.831990003585815
1618837311.19181,33.91253,35.847609996795654
1618837311.20744,33.95243,35.863240003585815
1618837311.22307,33.55058,35.87887001037598
1618837311.23869,32.74046,35.894490003585815
1618837311.25432,31.65917,35.91012001037598
1618837311.26994,30.52747,35.925740003585815
1618837311.28557,29.53165,35.94137001037598
1618837311.30119,28.71026,35.956990003585815
1618837311.31682,27.92092,35.97262001037598
1618837311.33245,26.91013,35.98825001716614
1618837311.34807,25.42137,36.00387001037598
1618837311.3637,23.39468,36.01950001716614
1618837311.37932,20.97939,36.03512001037598
1618837311.39495,18.43917,36.05075001716614
1618837311.41057,16.03996,36.06637001037598
1618837311.4262,13.85721,36.08200001716614
1618837311.44183,11.79175,36.0976300239563
1618837311.45745,9.538006,36.11325001716614
1618837311.47308,6.76424,36.1288800239563
1618837311.4887,3.232922,36.14450001716614
1618837311.50433,-1.052231,36.1601300239563
1618837311.51995,-5.894543,36.17575001716614
1618837311.53558,-10.97319,36.1913800239563
1618837311.55121,-15.96138,36.20701003074646
1618837311.56683,-20.63519,36.2226300239563
1618837311.58246,-24.93343,36.23826003074646
1618837311.59808,-29.03632,36.2538800239563
1618837311.61371,-33.26853,36.26951003074646
1618837311.62933,-37.95489,36.2851300239563
1618837311.64496,-43.28368,36.30076003074646
1618837311.66059,-49.16402,36.31639003753662
1618837311.67621,-55.16428,36.33201003074646
1618837311.69184,-60.53466,36.34764003753662
1618837311.70746,-64.23584,36.36326003074646
1618837311.72309,-65.34656,36.37889003753662
1618837311.73871,-63.46332,36.39451003074646
1618837311.75434,-58.78245,36.41014003753662
1618837311.76997,-52.00093,36.42577004432678
1618837311.78559,-44.00043,36.44139003753662
1618837311.80122,-35.58942,36.45702004432678
1618837311.81684,-27.37384,36.47264003753662
1618837311.83247,-19.6978,36.48827004432678
1618837311.84809,-12.42654,36.50389003753662
1618837311.86372,-5.472458,36.51952004432678
1618837311.87935,0.9429054,36.53515005111694
1618837311.89497,6.38763,36.55077004432678
1618837311.9106,10.47965,36.56640005111694
1618837311.92622,13.12065,36.58202004432678
1618837311.94185,14.56952,36.59765005111694
1618837311.95748,15.24187,36.613280057907104
1618837311.9731,15.53029,36.62890005111694
1618837311.98873,16.14189,36.644530057907104
1618837312.00435,17.43681,36.66015005111694
1618837312.01998,19.12374,36.675780057907104
1618837312.0356,20.51578,36.69140005111694
1618837312.05123,20.98839,36.707030057907104
1618837312.06686,20.45751,36.722660064697266
1618837312.08248,19.46846,36.738280057907104
1618837312.09811,19.00015,36.753910064697266
1618837312.11373,20.18853,36.769530057907104
1618837312.12936,24.73761,36.785160064697266
1618837312.14498,33.75571,36.800780057907104
1618837312.16061,46.99598,36.816410064697266
1618837312.17624,62.82773,36.83204007148743
1618837312.19186,78.62962,36.847660064697266
1618837312.20749,91.66968,36.86329007148743
1618837312.22311,99.93416,36.878910064697266
1618837312.23874,102.7756,36.89454007148743
1618837312.25436,96.9752,36.910160064697266
1618837312.26999,82.54024,36.92579007148743
1618837312.28562,63.24548,36.94142007827759
1618837312.30124,44.91593,36.95704007148743
1618837312.31687,32.08026,36.97267007827759
1618837312.33249,25.52458,36.98829007148743
1618837312.34812,23.26259,37.00392007827759
1618837312.36374,22.75067,37.01954007148743
1618837312.37937,22.54329,37.03517007827759
1618837312.395,22.56909,37.05080008506775
1618837312.41062,24.13815,37.06642007827759
1618837312.42625,28.17221,37.08205008506775
1618837312.44187,33.9274,37.09767007827759
1618837312.4575,39.65924,37.11330008506775
1618837312.47312,43.11414,37.12892007827759
1618837312.48875,42.68435,37.14455008506775
1618837312.50438,38.00842,37.16018009185791
1618837312.52,30.06167,37.17580008506775
1618837312.53563,20.56662,37.19143009185791
1618837312.55125,11.72846,37.20705008506775
1618837312.56688,5.076265,37.22268009185791
1618837312.5825,-0.3563099,37.23830008506775
1618837312.59813,-6.18545,37.25393009185791
1618837312.61376,-14.35949,37.26956009864807
1618837312.62938,-26.25286,37.28518009185791
1618837312.64501,-42.35648,37.30081009864807
1618837312.66063,-62.30492,37.31643009185791
1618837312.67626,-85.18349,37.33206009864807
1618837312.69188,-109.188,37.34768009185791
1618837312.70751,-131.6355,37.36331009864807
1618837312.72314,-149.4992,37.37894010543823
1618837312.73876,-158.6729,37.39456009864807
1618837312.75439,-155.9922,37.41019010543823
1618837312.77001,-140.7765,37.42581009864807
1618837312.78564,-115.7758,37.44144010543823
1618837312.80126,-86.52147,37.45706009864807
1618837312.81689,-59.45338,37.47269010543823
1618837312.83252,-39.34005,37.488320112228394
1618837312.84814,-24.5947,37.50394010543823
1618837312.86377,-14.60175,37.519570112228394
1618837312.87939,-6.222748,37.53519010543823
1618837312.89502,3.498867,37.550820112228394
1618837312.91064,14.94363,37.56644010543823
1618837312.92627,25.6335,37.582070112228394
1618837312.9419,32.39145,37.597700119018555
1618837312.95752,33.705,37.613320112228394
1618837312.97315,30.76168,37.628950119018555
1618837312.98877,26.51067,37.644570112228394
1618837313.0044,22.75131,37.660200119018555
1618837313.02002,20.64238,37.675820112228394
1618837313.03565,19.56869,37.691450119018555
1618837313.05128,17.93011,37.707080125808716
1618837313.0669,14.39262,37.722700119018555
1618837313.08253,9.041649,37.738330125808716
1618837313.09815,3.177582,37.753950119018555
1618837313.11378,-1.512592,37.769580125808716
1618837313.1294,-3.951546,37.785200119018555
1618837313.14503,-4.669739,37.800830125808716
1618837313.16066,-4.810749,37.81646013259888
1618837313.17628,-6.220322,37.832080125808716
1618837313.19191,-9.330784,37.84771013259888
1618837313.20753,-14.44785,37.863330125808716
1618837313.22316,-21.01398,37.87896013259888
1618837313.23878,-27.88754,37.894580125808716
1618837313.25441,-33.91316,37.91021013259888
1618837313.27004,-38.46339,37.92584013938904
1618837313.28566,-41.88012,37.94146013259888
1618837313.30129,-44.73969,37.95709013938904
1618837313.31691,-47.9057,37.97271013259888
1618837313.33254,-52.04693,37.98834013938904
1618837313.34816,-57.44014,38.00396013259888
1618837313.36379,-63.53064,38.01959013938904
1618837313.37942,-69.16237,38.0352201461792
1618837313.39504,-72.98152,38.05084013938904
1618837313.41067,-73.88765,38.0664701461792
1618837313.42629,-71.40995,38.08209013938904
1618837313.44192,-65.59051,38.0977201461792
1618837313.45754,-57.06219,38.11334013938904
1618837313.47317,-46.80836,38.1289701461792
1618837313.4888,-36.01396,38.14460015296936
1618837313.50442,-25.56437,38.1602201461792
1618837313.52005,-15.98861,38.17585015296936
1618837313.53567,-7.471788,38.1914701461792
1618837313.5513,-0.001102448,38.20710015296936
1618837313.56692,6.467625,38.2227201461792
1618837313.58255,12.03293,38.23835015296936
1618837313.59818,16.73329,38.25398015975952
1618837313.6138,20.54786,38.26960015296936
1618837313.62943,23.38376,38.28523015975952
1618837313.64505,25.22706,38.30085015296936
1618837313.66068,26.17414,38.31648015975952
1618837313.6763,26.41762,38.33210015296936
1618837313.69193,26.17254,38.34773015975952
1618837313.70756,25.63365,38.36336016654968
1618837313.72318,24.95168,38.37898015975952
1618837313.73881,24.22639,38.39461016654968
1618837313.75443,23.56796,38.41023015975952
1618837313.77006,23.04599,38.42586016654968
1618837313.78568,22.70367,38.44148015975952
1618837313.80131,22.53977,38.45711016654968
1618837313.81694,22.45708,38.472740173339844
1618837313.83256,22.2938,38.48836016654968
1618837313.84819,21.89032,38.503990173339844
1618837313.86381,21.16437,38.51961016654968
1618837313.87944,20.14824,38.535240173339844
1618837313.89506,18.93285,38.55086016654968
1618837313.91069,17.59319,38.566490173339844
1618837313.92632,16.13162,38.582120180130005
1618837313.94194,14.4888,38.597740173339844
1618837313.95757,12.53759,38.613370180130005
1618837313.97319,10.17455,38.628990173339844
1618837313.98882,7.302345,38.644620180130005
1618837314.00444,3.878105,38.660240173339844
1618837314.02007,-0.07472229,38.675870180130005
1618837314.0357,-4.461357,38.691500186920166
1618837314.05132,-9.0774,38.707120180130005
1618837314.06695,-13.65717,38.722750186920166
1618837314.08257,-17.92591,38.738370180130005
1618837314.0982,-21.75895,38.754000186920166
1618837314.11382,-25.26434,38.769620180130005
1618837314.12945,-28.79558,38.785250186920166
1618837314.14508,-32.88966,38.80088019371033
1618837314.1607,-38.01863,38.816500186920166
1618837314.17633,-44.37907,38.83213019371033
1618837314.19195,-51.63234,38.847750186920166
1618837314.20758,-58.85065,38.86338019371033
1618837314.22321,-64.66211,38.87901020050049
1618837314.23883,-67.66441,38.89463019371033
1618837314.25446,-66.83835,38.91026020050049
1618837314.27008,-61.90121,38.92588019371033
1618837314.28571,-53.43755,38.94151020050049
1618837314.30133,-42.6443,38.95713019371033
1618837314.31696,-30.92882,38.97276020050049
1618837314.33259,-19.46266,38.98839020729065
1618837314.34821,-8.931259,39.00401020050049
1618837314.36384,0.4677582,39.01964020729065
1618837314.37946,8.874985,39.03526020050049
1618837314.39509,16.51591,39.05089020729065
1618837314.41071,23.49942,39.06651020050049
1618837314.42634,29.79581,39.08214020729065
1618837314.44197,35.24071,39.09777021408081
1618837314.45759,39.68193,39.11339020729065
1618837314.47322,43.01662,39.12902021408081
1618837314.48884,45.23613,39.14464020729065
1618837314.50447,46.43681,39.16027021408081
1618837314.52009,46.77859,39.17589020729065
1618837314.53572,46.42947,39.19152021408081
1618837314.55135,45.54482,39.20715022087097
1618837314.56697,44.27151,39.22277021408081
1618837314.5826,42.75925,39.23840022087097
1618837314.59822,41.1682,39.25402021408081
1618837314.61385,39.6937,39.26965022087097
1618837314.62947,38.51414,39.28527021408081
1618837314.6451,37.67575,39.30090022087097
1618837314.66073,37.07495,39.316529989242554
1618837314.67635,36.4505,39.33215022087097
1618837314.69198,35.45758,39.347779989242554
1618837314.7076,33.81979,39.36340022087097
1618837314.72323,31.43991,39.379029989242554
1618837314.73885,28.40564,39.39465022087097
1618837314.75448,24.9743,39.410279989242554
1618837314.77011,21.42709,39.425909996032715
1618837314.78573,17.9628,39.441529989242554
1618837314.80136,14.61841,39.457159996032715
1618837314.81698,11.27701,39.472779989242554
1618837314.83261,7.780487,39.488409996032715
1618837314.84823,3.987976,39.504029989242554
1618837314.86386,-0.1279907,39.519659996032715
1618837314.87949,-4.482452,39.535290002822876
1618837314.89511,-8.88446,39.550909996032715
1618837314.91074,-13.10934,39.566540002822876
1618837314.92636,-16.97983,39.582159996032715
1618837314.94199,-20.44183,39.597790002822876
1618837314.95761,-23.62112,39.613409996032715
1618837314.97324,-26.81604,39.629040002822876
1618837314.98887,-30.44238,39.64467000961304
1618837315.00449,-34.84332,39.660290002822876
1618837315.02012,-40.0795,39.67592000961304
1618837315.03574,-45.78528,39.691540002822876
1618837315.05137,-51.16498,39.70717000961304
1618837315.06699,-55.09991,39.722790002822876
1618837315.08262,-56.5119,39.73842000961304
1618837315.09825,-54.67032,39.7540500164032
1618837315.11387,-49.44592,39.76967000961304
1618837315.1295,-41.32571,39.7853000164032
1618837315.14512,-31.23373,39.80092000961304
1618837315.16075,-20.25473,39.8165500164032
1618837315.17637,-9.324402,39.83217000961304
1618837315.192,0.9060669,39.8478000164032
1618837315.20763,10.10248,39.86343002319336
1618837315.22325,18.1022,39.8790500164032
1618837315.23888,24.81119,39.89468002319336
1618837315.2545,30.17279,39.9103000164032
1618837315.27013,34.18182,39.92593002319336
1618837315.28575,36.96909,39.9415500164032
1618837315.30138,38.78824,39.95718002319336
1618837315.31701,39.97052,39.97281002998352
1618837315.33263,40.76419,39.98843002319336
1618837315.34826,41.25082,40.00406002998352
1618837315.36388,41.37189,40.01968002319336
1618837315.37951,41.00555,40.03531002998352
1618837315.39513,40.13794,40.05093002319336
1618837315.41076,38.96091,40.06656002998352
1618837315.42639,37.79254,40.08219003677368
1618837315.44201,36.92676,40.09781002998352
1618837315.45764,36.53177,40.11344003677368
1618837315.47326,36.55646,40.12906002998352
1618837315.48889,36.85007,40.14469003677368
1618837315.50451,37.22272,40.16031002998352
1618837315.52014,37.51929,40.17594003677368
1618837315.53577,37.59573,40.19157004356384
1618837315.55139,37.20825,40.20719003677368
1618837315.56702,36.06412,40.22282004356384
1618837315.58264,33.85345,40.23844003677368
1618837315.59827,30.46509,40.25407004356384
1618837315.61389,26.02734,40.26969003677368
1618837315.62952,20.93948,40.28532004356384
1618837315.64515,15.70316,40.300950050354004
1618837315.66077,10.7338,40.31657004356384
1618837315.6764,6.265747,40.332200050354004
1618837315.69202,2.403107,40.34782004356384
1618837315.70765,-0.8511353,40.363450050354004
1618837315.72327,-3.541382,40.37907004356384
1618837315.7389,-5.823303,40.394700050354004
1618837315.75453,-8.00589,40.410330057144165
1618837315.77015,-10.57446,40.425950050354004
1618837315.78578,-14.04517,40.441580057144165
1618837315.8014,-18.7551,40.457200050354004
1618837315.81703,-24.63309,40.472830057144165
1618837315.83265,-31.1134,40.488450050354004
1618837315.84828,-37.22083,40.504080057144165
1618837315.86391,-41.74426,40.519710063934326
1618837315.87953,-43.55185,40.535330057144165
1618837315.89516,-41.89224,40.550960063934326
1618837315.91078,-36.57275,40.566580057144165
1618837315.92641,-28.01913,40.582210063934326
1618837315.94203,-17.18973,40.597830057144165
1618837315.95766,-5.289581,40.613460063934326
1618837315.97329,6.502625,40.62909007072449
1618837315.98891,17.27155,40.644710063934326
1618837316.00454,26.48972,40.66034007072449
1618837316.02016,33.98154,40.675960063934326
1618837316.03579,39.76529,40.69159007072449
1618837316.05141,43.94818,40.707210063934326
1618837316.06704,46.64618,40.72284007072449
1618837316.08267,48.00568,40.73847007751465
1618837316.09829,48.22537,40.75409007072449
1618837316.11392,47.58832,40.76972007751465
1618837316.12954,46.35037,40.78534007072449
1618837316.14517,44.75085,40.80097007751465
1618837316.16079,42.96347,40.81659007072449
1618837316.17642,41.11731,40.83222007751465
1618837316.19205,39.32419,40.84785008430481
1618837316.20767,37.68964,40.86347007751465
1618837316.2233,36.27588,40.87910008430481
1618837316.23892,35.05872,40.89472007751465
1618837316.25455,33.97128,40.91035008430481
1618837316.27017,32.89343,40.92597007751465
1618837316.2858,31.77704,40.94160008430481
1618837316.30143,30.62418,40.95723009109497
1618837316.31705,29.48141,40.97285008430481
1618837316.33268,28.35455,40.98848009109497
1618837316.3483,27.14679,41.00410008430481
1618837316.36393,25.63968,41.01973009109497
1618837316.37955,23.57016,41.03535008430481
1618837316.39518,20.73431,41.05098009109497
1618837316.41081,17.07788,41.06661009788513
1618837316.42643,12.72549,41.08223009109497
1618837316.44206,7.900909,41.09786009788513
1618837316.45768,2.821259,41.11348009109497
1618837316.47331,-2.389191,41.12911009788513
1618837316.48893,-7.700073,41.14473009109497
1618837316.50456,-13.08142,41.16036009788513
1618837316.52019,-18.45139,41.17599010467529
1618837316.53581,-23.61581,41.19161009788513
1618837316.55144,-28.39478,41.20724010467529
1618837316.56706,-32.69562,41.22286009788513
1618837316.58269,-36.59552,41.23849010467529
1618837316.59832,-40.29858,41.254120111465454
1618837316.61394,-43.89954,41.26974010467529
1618837316.62957,-47.23233,41.285370111465454
1618837316.64519,-49.72754,41.30099010467529
1618837316.66082,-50.50461,41.316620111465454
1618837316.67644,-48.60138,41.33224010467529
1618837316.69207,-43.25757,41.347870111465454
1618837316.7077,-34.1936,41.363500118255615
1618837316.72332,-21.66504,41.379120111465454
1618837316.73895,-6.410156,41.394750118255615
1618837316.75457,10.54324,41.410370111465454
1618837316.7702,28.09274,41.426000118255615
1618837316.78582,45.22696,41.441620111465454
1618837316.80145,61.10605,41.457250118255615
1618837316.81708,75.14142,41.472880125045776
1618837316.8327,86.9552,41.488500118255615
1618837316.84833,96.39362,41.504130125045776
1618837316.86395,103.5153,41.519750118255615
1618837316.87958,108.4692,41.535380125045776
1618837316.8952,111.4394,41.551000118255615
1618837316.91083,112.4961,41.566630125045776
1618837316.92646,111.5762,41.58226013183594
1618837316.94208,108.5439,41.597880125045776
1618837316.95771,103.4478,41.61351013183594
1618837316.97333,96.74481,41.629130125045776
1618837316.98896,89.39578,41.64476013183594
1618837317.00458,82.7944,41.660380125045776
1618837317.02021,78.43329,41.67601013183594
1618837317.03584,77.48499,41.6916401386261
1618837317.05146,80.40054,41.70726013183594
1618837317.06709,86.65799,41.7228901386261
1618837317.08271,94.74652,41.73851013183594
1618837317.09834,102.3409,41.7541401386261
1618837317.11396,106.7882,41.76976013183594
1618837317.12959,105.7643,41.7853901386261
1618837317.14522,98.06064,41.80102014541626
1618837317.16084,84.06586,41.8166401386261
1618837317.17647,65.79358,41.83227014541626
1618837317.19209,46.36288,41.8478901386261
1618837317.20772,28.96381,41.86352014541626
1618837317.22334,15.76595,41.8791401386261
1618837317.23897,7.266769,41.89477014541626
1618837317.2546,2.262543,41.91040015220642
1618837317.27022,-1.437851,41.92602014541626
1618837317.28585,-6.089951,41.94165015220642
1618837317.30147,-13.15771,41.95727014541626
1618837317.3171,-22.96669,41.97290015220642
1618837317.33272,-34.91461,41.98852014541626
1618837317.34835,-47.95215,42.00415015220642
1618837317.36398,-61.08359,42.01978015899658
1618837317.3796,-73.61835,42.03540015220642
1618837317.39523,-85.16412,42.05103015899658
1618837317.41085,-95.49394,42.06665015220642
1618837317.42648,-104.4,42.08228015899658
1618837317.4421,-111.6722,42.09790015220642
1618837317.45773,-117.1185,42.11353015899658
1618837317.47336,-120.5838,42.12916016578674
1618837317.48898,-121.9282,42.14478015899658
1618837317.50461,-121.0318,42.16041016578674
1618837317.52023,-117.8244,42.17603015899658
1618837317.53586,-112.4533,42.19166016578674
1618837317.55148,-105.4697,42.20728015899658
1618837317.56711,-97.88097,42.22291016578674
1618837317.58274,-90.91812,42.238540172576904
1618837317.59836,-85.68098,42.25416016578674
1618837317.61399,-82.76022,42.269790172576904
1618837317.62961,-82.10426,42.28541016578674
1618837317.64524,-83.1524,42.301040172576904
1618837317.66086,-85.13246,42.31666016578674
1618837317.67649,-87.39632,42.332290172576904
1618837317.69212,-89.52572,42.347920179367065
1618837317.70774,-91.20457,42.363540172576904
1618837317.72337,-92.07514,42.379170179367065
1618837317.73899,-91.63482,42.394790172576904
1618837317.75462,-89.41149,42.410420179367065
1618837317.77024,-85.22378,42.426040172576904
1618837317.78587,-79.41617,42.441670179367065
1618837317.8015,-72.72375,42.45730018615723
1618837317.81712,-65.93266,42.472920179367065
1618837317.83275,-59.52428,42.48855018615723
1618837317.84837,-53.55815,42.504170179367065
1618837317.864,-47.80124,42.51980018615723
1618837317.87962,-41.90224,42.535420179367065
1618837317.89525,-35.81434,42.55105018615723
1618837317.91088,-29.96335,42.56668019294739
1618837317.9265,-25.05808,42.58230018615723
1618837317.94213,-21.67897,42.59793019294739
1618837317.95775,-19.81823,42.61355018615723
1618837317.97338,-18.83993,42.62918019294739
1618837317.989,-17.741,42.64480018615723
1618837318.00463,-15.55565,42.66043019294739
1618837318.02026,-11.65366,42.67606019973755
1618837318.03588,-5.976849,42.69168019294739
1618837318.05151,0.8153744,42.70731019973755
1618837318.06713,7.609726,42.72293019294739
1618837318.08276,13.2883,42.73856019973755
1618837318.09838,17.22921,42.75418019294739
1618837318.11401,19.47579,42.76981019973755
1618837318.12964,20.53337,42.78544020652771
1618837318.14526,21.39114,42.80106019973755
1618837318.16089,23.19859,42.81669020652771
1618837318.17651,27.08346,42.83231019973755
1618837318.19214,33.56558,42.84794020652771
1618837318.20776,42.24215,42.86356019973755
1618837318.22339,51.96322,42.87919020652771
1618837318.23902,61.33572,42.89482021331787
1618837318.25464,69.3718,42.91044020652771
1618837318.27027,75.49247,42.92607021331787
1618837318.28589,78.55263,42.94169020652771
1618837318.30152,78.01848,42.95732021331787
1618837318.31714,75.21616,42.97294020652771
1618837318.33277,72.5457,42.98857021331787
1618837318.3484,71.6945,43.00420022010803
1618837318.36402,72.69508,43.01982021331787
1618837318.37965,74.67669,43.03545022010803
1618837318.39527,77.22062,43.05107021331787
1618837318.4109,79.98042,43.06670022010803
1618837318.42652,83.21362,43.08232021331787
1618837318.44215,86.43553,43.09795022010803
1618837318.45778,88.92345,43.113579988479614
1618837318.4734,89.23434,43.12920022010803
1618837318.48903,85.62012,43.144829988479614
1618837318.50465,76.99005,43.16045022010803
1618837318.52028,63.66272,43.176079988479614
1618837318.5359,48.24673,43.19170022010803
1618837318.55153,31.99015,43.207329988479614
1618837318.56716,16.06323,43.222959995269775
1618837318.58278,0.05226898,43.238579988479614
1618837318.59841,-16.80001,43.254209995269775
1618837318.61403,-35.73805,43.269829988479614
1618837318.62966,-58.07214,43.285459995269775
1618837318.64528,-84.76558,43.301079988479614
1618837318.66091,-116.0962,43.316709995269775
1618837318.67654,-151.0148,43.33234000205994
1618837318.69216,-188.8038,43.347959995269775
1618837318.70779,-220.1904,43.36359000205994
1618837318.72341,-239.219,43.379209995269775
1618837318.73904,-240.6891,43.39484000205994
1618837318.75466,-221.7509,43.410459995269775
1618837318.77029,-183.7955,43.42609000205994
1618837318.78592,-133.0011,43.4417200088501
1618837318.80154,-82.85269,43.45734000205994
1618837318.81717,-38.71038,43.4729700088501
1618837318.83279,-4.774578,43.48859000205994
1618837318.84842,17.47071,43.5042200088501
1618837318.86404,28.38061,43.51984000205994
1618837318.87967,30.57859,43.5354700088501
1618837318.8953,26.94679,43.55110001564026
1618837318.91092,19.54922,43.5667200088501
1618837318.92655,9.725719,43.58235001564026
1618837318.94217,-1.235634,43.5979700088501
1618837318.9578,-11.00477,43.61360001564026
1618837318.97342,-16.91939,43.6292200088501
1618837318.98905,-17.22401,43.64485001564026
1618837319.00468,-12.18433,43.66048002243042
1618837319.0203,-3.076504,43.67610001564026
1618837319.03593,7.943333,43.69173002243042
1618837319.05155,18.41651,43.70735001564026
1618837319.06718,26.46568,43.72298002243042
1618837319.08281,31.40518,43.73861002922058
1618837319.09843,34.24715,43.75423002243042
1618837319.11406,35.86815,43.76986002922058
1618837319.12968,37.21474,43.78548002243042
1618837319.14531,38.53052,43.80111002922058
1618837319.16093,39.8832,43.81673002243042
1618837319.17656,40.92987,43.83236002922058
1618837319.19219,41.10505,43.84799003601074
1618837319.20781,39.92421,43.86361002922058
1618837319.22344,37.30275,43.87924003601074
1618837319.23906,33.96027,43.89486002922058
1618837319.25469,30.40833,43.91049003601074
1618837319.27031,27.12725,43.92611002922058
1618837319.28594,24.27872,43.94174003601074
1618837319.30157,21.85757,43.9573700428009
1618837319.31719,19.57444,43.97299003601074
1618837319.33282,17.01889,43.9886200428009
1618837319.34844,13.94053,44.00424003601074
1618837319.36407,10.45908,44.0198700428009
1618837319.37969,7.197247,44.03549003601074
1618837319.39532,4.644635,44.0511200428009
1618837319.41095,3.014496,44.066750049591064
1618837319.42657,2.110235,44.0823700428009
1618837319.4422,1.41545,44.098000049591064
1618837319.45782,0.2487409,44.1136200428009
1618837319.47345,-2.003871,44.129250049591064
1618837319.48907,-5.688393,44.1448700428009
1618837319.5047,-10.71233,44.160500049591064
1618837319.52033,-16.56977,44.176130056381226
1618837319.53595,-22.57752,44.191750049591064
1618837319.55158,-28.07483,44.207380056381226
1618837319.5672,-32.52692,44.223000049591064
1618837319.58283,-35.70283,44.238630056381226
1618837319.59845,-37.77071,44.254250049591064
1618837319.61408,-39.2816,44.269880056381226
1618837319.62971,-40.97227,44.28551006317139
1618837319.64533,-43.55765,44.301130056381226
1618837319.66096,-47.44973,44.31676006317139
1618837319.67658,-52.58836,44.332380056381226
1618837319.69221,-58.4273,44.34801006317139
1618837319.70783,-64.01561,44.363630056381226
1618837319.72346,-68.22038,44.37926006317139
1618837319.73909,-69.95949,44.39489006996155
1618837319.75471,-68.4849,44.41051006317139
1618837319.77034,-63.55451,44.42614006996155
1618837319.78596,-55.51239,44.44176006317139
1618837319.80159,-45.23149,44.45739006996155
1618837319.81721,-33.89738,44.47301006317139
1618837319.83284,-22.70493,44.48864006996155
1618837319.84847,-12.55573,44.50427007675171
1618837319.86409,-3.831902,44.51989006996155
1618837319.87972,3.509155,44.53552007675171
1618837319.89534,9.799713,44.55114006996155
1618837319.91097,15.36871,44.56677007675171
1618837319.92659,20.35664,44.58239006996155
1618837319.94222,24.65723,44.59802007675171
1618837319.95785,28.00905,44.61365008354187
1618837319.97347,30.18005,44.62927007675171
1618837319.9891,31.07323,44.64490008354187
1618837320.00472,30.79764,44.66052007675171
1618837320.02035,29.6142,44.67615008354187
1618837320.03597,27.84309,44.69177007675171
1618837320.0516,25.79689,44.70740008354187
1618837320.06723,23.74104,44.72303009033203
1618837320.08285,21.86601,44.73865008354187
1618837320.09848,20.27177,44.75428009033203
1618837320.1141,18.97448,44.76990008354187
1618837320.12973,17.90862,44.78553009033203
1618837320.14535,16.96725,44.80115008354187
1618837320.16098,15.99477,44.81678009033203
1618837320.17661,14.85255,44.83241009712219
1618837320.19223,13.42084,44.84803009033203
1618837320.20786,11.63054,44.86366009712219
1618837320.22348,9.445282,44.87928009033203
1618837320.23911,6.888779,44.89491009712219
1618837320.25473,4.032074,44.91053009033203
1618837320.27036,0.9463501,44.92616009712219
1618837320.28599,-2.28392,44.94179010391235
1618837320.30161,-5.638077,44.95741009712219
1618837320.31724,-9.120422,44.97304010391235
1618837320.33286,-12.76207,44.98866009712219
1618837320.34849,-16.59116,45.00429010391235
1618837320.36411,-20.5799,45.01991009712219
1618837320.37974,-24.68158,45.03554010391235
1618837320.39537,-28.83432,45.051170110702515
1618837320.41099,-33.00761,45.06679010391235
1618837320.42662,-37.2327,45.082420110702515
1618837320.44224,-41.63303,45.09804010391235
1618837320.45787,-46.32336,45.113670110702515
1618837320.47349,-51.26965,45.12929010391235
1618837320.48912,-56.16229,45.144920110702515
1618837320.50475,-60.29434,45.160550117492676
1618837320.52037,-62.67763,45.176170110702515
1618837320.536,-62.31512,45.191800117492676
1618837320.55162,-58.56485,45.207420110702515
1618837320.56725,-51.43347,45.223050117492676
1618837320.58287,-41.61118,45.238670110702515
1618837320.5985,-30.29919,45.254300117492676
1618837320.61413,-18.797,45.26993012428284
1618837320.62975,-8.128418,45.285550117492676
1618837320.64538,1.110443,45.30118012428284
1618837320.661,8.801575,45.316800117492676
1618837320.67663,15.09204,45.33243012428284
1618837320.69225,20.17758,45.348050117492676
1618837320.70788,24.21033,45.36368012428284
1618837320.72351,27.2467,45.379310131073
1618837320.73913,29.31213,45.39493012428284
1618837320.75476,30.47479,45.410560131073
1618837320.77038,30.8652,45.42618012428284
1618837320.78601,30.71994,45.441810131073
1618837320.80163,30.27899,45.45743012428284
1618837320.81726,29.78192,45.473060131073
1618837320.83289,29.40042,45.48869013786316
1618837320.84851,29.16705,45.504310131073
1618837320.86414,29.04773,45.51994013786316
1618837320.87976,28.95081,45.535560131073
1618837320.89539,28.81305,45.55119013786316
1618837320.91101,28.59314,45.566810131073
1618837320.92664,28.30554,45.58244013786316
1618837320.94227,27.93875,45.59807014465332
1618837320.95789,27.42914,45.61369013786316
1618837320.97352,26.63242,45.62932014465332
1618837320.98914,25.35251,45.64494013786316
1618837321.00477,23.39398,45.66057014465332
1618837321.02039,20.62769,45.67619013786316
1618837321.03602,17.07394,45.69182014465332
1618837321.05165,12.88403,45.70745015144348
1618837321.06727,8.343201,45.72307014465332
1618837321.0829,3.80011,45.73870015144348
1618837321.09852,-0.4601746,45.75432014465332
1618837321.11415,-4.286469,45.76995015144348
1618837321.12977,-7.703064,45.78557014465332
1618837321.1454,-10.91467,45.80120015144348
1618837321.16103,-14.24878,45.81683015823364
1618837321.17665,-18.02991,45.83245015144348
1618837321.19228,-22.52512,45.84808015823364
1618837321.2079,-27.80734,45.86370015144348
1618837321.22353,-33.74689,45.87933015823364
1618837321.23916,-39.90707,45.894960165023804
1618837321.25478,-45.56882,45.91058015823364
1618837321.27041,-49.80502,45.926210165023804
1618837321.28603,-51.64456,45.94183015823364
1618837321.30166,-50.33105,45.957460165023804
1618837321.31728,-45.59265,45.97308015823364
1618837321.33291,-37.74933,45.988710165023804
1618837321.34854,-27.69952,46.004340171813965
1618837321.36416,-16.6488,46.019960165023804
1618837321.37979,-5.775879,46.035590171813965
1618837321.39541,4.060913,46.051210165023804
1618837321.41104,12.4762,46.066840171813965
1618837321.42666,19.48779,46.082460165023804
1618837321.44229,25.32831,46.098090171813965
1618837321.45792,30.25562,46.113720178604126
1618837321.47354,34.37518,46.129340171813965
1618837321.48917,37.67133,46.144970178604126
1618837321.50479,40.0722,46.160590171813965
1618837321.52042,41.54529,46.176220178604126
1618837321.53604,42.20038,46.191840171813965
1618837321.55167,42.1958,46.207470178604126
1618837321.5673,41.71552,46.22310018539429
1618837321.58292,40.91669,46.238720178604126
1618837321.59855,39.90399,46.25435018539429
1618837321.61417,38.77594,46.269970178604126
1618837321.6298,37.64569,46.28560018539429
1618837321.64542,36.6593,46.301220178604126
1618837321.66105,35.95868,46.31685018539429
1618837321.67668,35.61206,46.33248019218445
1618837321.6923,35.58105,46.34810018539429
1618837321.70793,35.7041,46.36373019218445
