,index,PPG_Raw,PPG_Clean,PPG_Rate,PPG_Peaks,EDA_Raw,EDA_Clean,EDA_Tonic,EDA_Phasic,SCR_Onsets,SCR_Peaks,SCR_Height,SCR_Amplitude,SCR_RiseTime,SCR_Recovery,SCR_RecoveryTime,Index,Label,Condition,id
0,0.0,140.102,77.78584905220515,92.07500768521365,0,0.6075406,0.6074943072021765,0.5968770210318968,0.0106175075266195,0,0,0,0,0,0,1,0,1,neutral,0
1,0.015873015873015872,160.4214,143.0845698226619,92.07500768521365,0,0.6074530261798311,0.607051475232492,0.5968186938448884,0.010233003463536179,0,0,0,0,0,0,1,1,1,neutral,0
2,0.031746031746031744,179.8626,186.05236415062922,92.07500768521365,0,0.6072003847974883,0.6066009258461914,0.5967603505238046,0.009840798117555265,0,0,0,0,0,0,0,2,1,neutral,0
3,0.047619047619047616,195.4586,207.99566596196553,92.07500768521365,0,0.606797795970218,0.6061242162863318,0.5967019923461435,0.009422447454215766,0,0,0,0,0,0,0,3,1,neutral,0
4,0.06349206349206349,204.8844,214.34416194623577,92.07500768521365,0,0.6062603798152669,0.6056046866900904,0.5966436205951093,0.008961290327470707,0,0,0,0,0,0,0,4,1,neutral,0
5,0.07936507936507936,207.2099,211.44239364737382,92.07500768521365,0,0.6056032564498808,0.6050286510910751,0.5965852365593646,0.008443639482245788,0,0,0,0,0,0,0,5,1,neutral,0
6,0.09523809523809523,203.15,204.27865853650175,92.07500768521365,0,0.6048415459913062,0.6043862929521552,0.5965268415327579,0.007859677087540835,0,0,0,0,0,0,0,6,1,neutral,0
7,0.1111111111111111,194.668,195.81113200532207,92.07500768521365,0,0.6039903685567896,0.6036722150358785,0.5964684368140216,0.0072040046071510065,0,0,0,0,0,0,0,7,1,neutral,0
8,0.12698412698412698,184.1818,187.3541750970585,92.07500768521365,0,0.6030648442635771,0.6028856288882636,0.5964100237064305,0.006475832283799348,0,0,0,0,0,0,0,8,1,neutral,0
9,0.14285714285714285,173.6802,179.26159515993842,92.07500768521365,0,0.6020800932289152,0.6020302012986118,0.596351603517421,0.005678825599330488,0,0,0,0,0,0,0,9,1,neutral,0
10,0.15873015873015872,164.1527,171.44506737711146,92.07500768521365,0,0.6010512355700501,0.6011136012495898,0.5962931775581698,0.004820652225213521,0,0,0,0,0,0,0,10,1,neutral,0
11,0.1746031746031746,155.5258,163.64358204780817,92.07500768521365,0,0.5999933914042284,0.6001468097542451,0.5962347471431327,0.003912291860019354,0,0,0,0,0,0,0,11,1,neutral,0
12,0.19047619047619047,147.0667,155.5613996648329,92.07500768521365,0,0.5989216808486958,0.5991432662188442,0.5961763135895501,0.0029671825927532237,0,0,0,0,0,0,0,12,1,neutral,0
13,0.20634920634920634,138.0125,146.99032719429513,92.07500768521365,0,0.5978512240206992,0.5981179289145262,0.5961178782169229,0.0020002813750320016,0,0,0,0,0,0,0,13,1,neutral,0
14,0.2222222222222222,128.0369,137.93216449301042,92.07500768521365,0,0.5967971410374848,0.5970863246157805,0.5960594423464682,0.0010271136601063217,0,0,0,0,0,0,0,14,1,neutral,0
15,0.23809523809523808,117.4694,128.65791918390556,92.07500768521365,0,0.5957745520162988,0.5960636545965562,0.5960010073005629,6.287939952726897e-05,0,0,0,0,0,0,0,15,1,neutral,0
16,0.25396825396825395,107.0506,119.63937515448796,92.07500768521365,0,0.5947985770743878,0.5950640122478662,0.5959425744021823,-0.0008783293386892977,0,0,0,0,0,0,0,16,1,neutral,0
17,0.2698412698412698,97.46323,111.35042314701793,92.07500768521365,0,0.593881953060972,0.5940997529412029,0.5958841449743448,-0.0017841585060910884,0,0,0,0,0,0,0,17,1,neutral,0
18,0.2857142857142857,88.95401,104.00712921178427,92.07500768521365,0,0.593025573521502,0.593181040777286,0.5958257203395688,-0.002644445324498909,0,0,0,0,0,0,0,18,1,neutral,0
19,0.30158730158730157,81.17114,97.35228180321988,92.07500768521365,0,0.5922266601378813,0.5923155808916284,0.5957673018193499,-0.003451485979917235,0,0,0,0,0,0,0,19,1,neutral,0
20,0.31746031746031744,73.23807,90.58108206560414,92.07500768521365,0,0.5914824334731565,0.5915085313355912,0.5957088907336636,-0.004200123740983008,0,0,0,0,0,0,0,20,1,neutral,0
21,0.3333333333333333,64.04504,82.46552281222151,92.07500768521365,0,0.5907901140903739,0.5907625763242714,0.5956504884004984,-0.00488767571060944,0,0,0,0,0,0,0,21,1,neutral,0
22,0.3492063492063492,52.5239,71.68465916080314,92.07500768521365,0,0.5901469225525798,0.5900781336096842,0.5955920961354214,-0.005513725452371176,0,0,0,0,0,0,0,22,1,neutral,0
23,0.36507936507936506,37.81433,57.31139401898818,92.07500768521365,0,0.5895500794228207,0.5894536632325617,0.5955337152511796,-0.006079814238305396,0,0,0,0,0,0,0,23,1,neutral,0
24,0.38095238095238093,19.70444,39.34014799548454,92.07500768521365,0,0.588996805264143,0.5888860428393072,0.5954753470573356,-0.006589065731594283,0,0,0,0,0,0,0,24,1,neutral,0
25,0.3968253968253968,-1.085541,19.073769359395733,92.07500768521365,0,0.5884843206395929,0.5883709757037782,0.5954169928599385,-0.007045777964452625,0,0,0,0,0,0,0,25,1,neutral,0
26,0.4126984126984127,-22.49402,0.0,92.07500768521365,0,0.588009846112217,0.587903400939417,0.5953586539612271,-0.007455013125699461,0,0,0,0,0,0,0,26,1,neutral,0
27,0.42857142857142855,-41.10178,0.0,92.07500768521365,0,0.5875706022450612,0.5874778804024839,0.5953003316593628,-0.007822210657258879,0,0,0,0,0,0,0,27,1,neutral,0
28,0.4444444444444444,-52.82422,0.0,92.07500768521365,0,0.5871638096011724,0.5870889427451763,0.5952420272481905,-0.008152843200802125,0,0,0,0,0,0,0,28,1,neutral,0
29,0.4603174603174603,-54.36084,0.0,92.07500768521365,0,0.5867866887435969,0.5867313713187066,0.5951837420170243,-0.008452128694453772,0,0,0,0,0,0,0,29,1,neutral,0
30,0.47619047619047616,-44.83722,0.0,92.07500768521365,0,0.5864364602353808,0.5864004286055009,0.5951254772504534,-0.008724805940400263,0,0,0,0,0,0,0,30,1,neutral,0
31,0.49206349206349204,-26.73593,2.936935034773928,92.07500768521365,0,0.5861103446395707,0.586092015170342,0.5950672342281673,-0.00897497565357218,0,0,0,0,0,0,0,31,1,neutral,0
32,0.5079365079365079,-5.505615,22.698936776992742,92.07500768521365,0,0.5858055625192127,0.5858027655007056,0.5950090142247964,-0.00920600462114785,0,0,0,0,0,0,0,32,1,neutral,0
33,0.5238095238095237,12.29855,39.71134699785133,92.07500768521365,0,0.5855195934789309,0.5855300864278052,0.5949508185097652,-0.009420487281362277,0,0,0,0,0,0,0,33,1,neutral,0
34,0.5396825396825397,21.40265,49.68852740620387,92.07500768521365,0,0.5852515225833599,0.5852721460619008,0.5948926483471579,-0.00962025678806381,0,0,0,0,0,0,0,34,1,neutral,0
35,0.5555555555555556,19.62213,50.44883543496418,92.07500768521365,0,0.5850010491499373,0.5850278223972634,0.5948345049955936,-0.009806436405624558,0,0,0,0,0,0,0,35,1,neutral,0
36,0.5714285714285714,8.241547,42.29974559428456,92.07500768521365,0,0.584767873736248,0.5847966210564204,0.5947763897081093,-0.009979521764578387,0,0,0,0,0,0,0,36,1,neutral,0
37,0.5873015873015872,-9.132416,27.530695971676934,92.07500768521365,0,0.5845516968998766,0.5845785712020363,0.5947183037320519,-0.010139484949632741,0,0,0,0,0,0,0,37,1,neutral,0
38,0.6031746031746031,-28.47006,9.32838893138444,92.07500768521365,0,0.5843522191984083,0.58437410763416,0.594660248308978,-0.010285892402319903,0,0,0,0,0,0,0,38,1,neutral,0
39,0.6190476190476191,-46.91489,0.0,92.07500768521365,0,0.5841691411894278,0.5841839457229494,0.5946022246745609,-0.010418029988179608,0,0,0,0,0,0,0,39,1,neutral,0
40,0.6349206349206349,-63.3158,0.0,92.07500768521365,0,0.5840021634305201,0.5840089543236547,0.5945442340585058,-0.010535030081692164,0,0,0,0,0,0,0,40,1,neutral,0
41,0.6507936507936507,-77.85889,0.0,92.07500768521365,0,0.5838509864792698,0.5838500303884535,0.5944862776844729,-0.010635996954365724,0,0,0,0,0,0,0,41,1,neutral,0
42,0.6666666666666666,-91.07428,0.0,92.07500768521365,0,0.5837153108932621,0.5837079777986774,0.5944283567700112,-0.010720127942442249,0,0,0,0,0,0,0,42,1,neutral,0
43,0.6825396825396826,-103.2172,0.0,92.07500768521365,0,0.5835948372300815,0.5835833921077175,0.5943704725264983,-0.010786828703934052,0,0,0,0,0,0,0,43,1,neutral,0
44,0.6984126984126984,-114.0712,0.0,92.07500768521365,0,0.5834892660473131,0.5834765524634574,0.5943126261590931,-0.010835821296141624,0,0,0,0,0,0,0,44,1,neutral,0
45,0.7142857142857142,-123.2631,0.0,92.07500768521365,0,0.5833982979025416,0.583387321958907,0.5942548188666958,-0.010867243824981184,0,0,0,0,0,0,0,45,1,neutral,0
46,0.7301587301587301,-130.6379,0.0,92.07500768521365,0,0.5833216333533521,0.5833150579709251,0.594197051841921,-0.01088174010623397,0,0,0,0,0,0,0,46,1,neutral,0
47,0.746031746031746,-136.4536,0.0,92.07500768521365,0,0.5832589729573291,0.5832585345724143,0.5941393262710776,-0.010880537253332578,0,0,0,0,0,0,0,47,1,neutral,0
48,0.7619047619047619,-141.2715,0.0,92.07500768521365,0,0.5832100172720577,0.5832158796972329,0.5940816433341615,-0.010865508512440718,0,0,0,0,0,0,0,48,1,neutral,0
49,0.7777777777777777,-145.7546,0.0,92.07500768521365,0,0.583174067385286,0.5831845302489006,0.5940240042048549,-0.010839218153746761,0,0,0,0,0,0,0,49,1,neutral,0
50,0.7936507936507936,-150.4687,0.0,92.07500768521365,0,0.5831473120255024,0.583161208647169,0.5939664100505345,-0.010804944924902596,0,0,0,0,0,0,0,50,1,neutral,0
51,0.8095238095238095,-155.7847,0.0,92.07500768521365,0,0.5831244797762286,0.5831419243228247,0.5939088620322858,-0.010766680556233468,0,0,0,0,0,0,0,51,1,neutral,0
52,0.8253968253968254,-161.8467,0.0,92.07500768521365,0,0.5831002908155802,0.5831220033810148,0.5938513613049218,-0.010729100097431932,0,0,0,0,0,0,0,52,1,neutral,0
53,0.8412698412698412,-168.5676,0.0,92.07500768521365,0,0.5830694653216724,0.5830961490786468,0.5937939090170039,-0.010697501440178878,0,0,0,0,0,0,0,53,1,neutral,0
54,0.8571428571428571,-175.6214,0.0,92.07500768521365,0,0.5830267234726203,0.5830585349309335,0.5937365063108625,-0.01067771221161875,0,0,0,0,0,0,0,54,1,neutral,0
55,0.873015873015873,-182.3962,0.0,92.07500768521365,0,0.5829667854465393,0.5830029311856518,0.593679154322613,-0.010675963300117077,0,0,0,0,0,0,0,55,1,neutral,0
56,0.8888888888888888,-187.9468,0.0,92.07500768521365,0,0.5828843714215447,0.5829228640703438,0.5936218541821658,-0.010698729608069587,0,0,0,0,0,0,0,56,1,neutral,0
57,0.9047619047619047,-190.9327,0.0,92.07500768521365,0,0.5827742015757519,0.5828118056160002,0.5935646070132258,-0.010752540228217927,0,0,0,0,0,0,0,57,1,neutral,0
58,0.9206349206349206,-189.7793,0.0,92.07500768521365,0,0.5826309960872759,0.5826633900048012,0.5935074139332766,-0.010843762095893396,0,0,0,0,0,0,0,58,1,neutral,0
59,0.9365079365079365,-182.9896,0.0,92.07500768521365,0,0.5824494751342323,0.5824716503408164,0.5934502760535479,-0.010978363218283606,0,0,0,0,0,0,0,59,1,neutral,0
60,0.9523809523809523,-169.6444,0.0,92.07500768521365,0,0.5822243588947362,0.5822312676231198,0.5933931944789609,-0.011161663701263659,0,0,0,0,0,0,0,60,1,neutral,0
61,0.9682539682539681,-149.8136,0.0,92.07500768521365,0,0.5819503675469031,0.58193782169452,0.593336170308048,-0.01139808480058594,0,0,0,0,0,0,0,61,1,neutral,0
62,0.9841269841269841,-124.814,0.0,92.07500768521365,0,0.5816222212688482,0.5815880322811688,0.593279204632846,-0.011690907882163131,0,0,0,0,0,0,0,62,1,neutral,0
63,1.0,-96.94046,0.0,92.07500768521365,0,0.5812346402386867,0.5811799771903327,0.5932222985387574,-0.012042056224159691,0,0,0,0,0,0,0,63,1,neutral,0
0,0.0,10.78975,26.390308473019168,108.32793992565202,0,0.5522668060516797,0.5522863263625226,0.5593894337556422,-0.007110565203240153,0,0,0,0,0,0,0,1100,3,neutral,2
1,0.015873015873015872,8.46492,25.745066449879303,107.66869061639947,0,0.5521221031298692,0.5521388376144821,0.5593543131845855,-0.007222935563940502,0,0,0,0,0,0,0,1101,3,neutral,2
2,0.031746031746031744,7.332809,25.893280129269833,106.99016111388255,0,0.5519680356410526,0.5519813816274137,0.5593191712906774,-0.00734525167564971,0,0,0,0,0,0,0,1102,3,neutral,2
3,0.047619047619047616,5.998672,25.688539569634422,106.29681471000154,0,0.5518111253837232,0.551822488852678,0.5592840094581761,-0.007468984470066116,0,0,0,0,0,0,0,1103,3,neutral,2
4,0.06349206349206349,2.878067,23.855216356641947,105.59292942108678,0,0.5516578941563747,0.551670299685415,0.5592488290670792,-0.007585994930843415,0,0,0,0,0,0,0,1104,3,neutral,2
5,0.07936507936507936,-3.219528,19.409834208969247,104.88259111557957,0,0.5515148637575003,0.5515322210473941,0.5592136314930538,-0.007688877510671623,0,0,0,0,0,0,0,1105,3,neutral,2
6,0.09523809523809523,-12.62045,11.999386860503114,104.16969019495166,0,0.5513885559855933,0.5514146193136779,0.559178418107371,-0.007771267204546718,0,0,0,0,0,0,0,1106,3,neutral,2
7,0.1111111111111111,-24.66255,2.028743596928845,103.45792145682611,0,0.5512854926391471,0.5513225585111948,0.5591431902768479,-0.007828101351140433,0,0,0,0,0,0,0,1107,3,neutral,2
8,0.12698412698412698,-38.12996,0.0,102.75078677213386,0,0.551212195516655,0.551259591761512,0.559107949363801,-0.007855828189981585,0,0,0,0,0,0,0,1108,3,neutral,2
9,0.14285714285714285,-51.58731,0.0,102.05160022071743,0,0.551175186384033,0.5512276127023333,0.5590726967260151,-0.007852555439925052,0,0,0,0,0,0,0,1109,3,neutral,2
10,0.15873015873015872,-63.94695,0.0,101.3634953499969,0,0.5511784686061935,0.5512267719536066,0.5590374337167265,-0.007818133833029896,0,0,0,0,0,0,0,1110,3,neutral,2
11,0.1746031746031746,-74.64389,0.0,100.68943424724506,0,0.5512166723785233,0.5512554615380106,0.5590021616846259,-0.007754172694073722,0,0,0,0,0,0,0,1111,3,neutral,2
12,0.19047619047619047,-83.68494,0.0,100.03221814602789,0,0.551282247694788,0.5513103676102544,0.5589668819738776,-0.007663987211273624,0,0,0,0,0,0,0,1112,3,neutral,2
13,0.20634920634920634,-91.5755,0.0,99.39449932004825,0,0.5513676445487525,0.5513865891251583,0.5589315959241553,-0.007552479768240233,0,0,0,0,0,0,0,1113,3,neutral,2
14,0.2222222222222222,-99.27377,0.0,98.77879405184814,0,0.5514653129341822,0.5514778174748104,0.5588963048706939,-0.007425960306872804,0,0,0,0,0,0,0,1114,3,neutral,2
15,0.23809523809523808,-108.0298,0.0,98.18749649869166,0,0.5515677028448421,0.5515765698938876,0.5588610101443514,-0.007291912922101504,0,0,0,0,0,0,0,1115,3,neutral,2
16,0.25396825396825395,-118.9639,0.0,97.62289331282439,0,0.5516672642744981,0.5516744676861133,0.5588257130716812,-0.007158717635500415,0,0,0,0,0,0,0,1116,3,neutral,2
17,0.2698412698412698,-132.3061,0.0,97.0871789077572,0,0.5517564472169147,0.5517625490501032,0.5587904149750066,-0.007035337569517009,0,0,0,0,0,0,0,1117,3,neutral,2
18,0.2857142857142857,-146.6008,0.0,96.58247129603745,0,0.5518277016658577,0.5518316053843295,0.5587551171724962,-0.006930982642583513,0,0,0,0,0,0,0,1118,3,neutral,2
19,0.30158730158730157,-158.5561,0.0,96.11082845709765,0,0.551873477615092,0.551872529313421,0.5587198209782326,-0.006854761542884568,0,0,0,0,0,0,0,1119,3,neutral,2
20,0.31746031746031744,-163.8475,0.0,95.67426522634086,0,0.5518862250583831,0.5518766622175334,0.5586845277022705,-0.006815334199046407,0,0,0,0,0,0,0,1120,3,neutral,2
21,0.3333333333333333,-158.7488,0.0,95.27477072889761,0,0.5518583939894961,0.5518361287438873,0.5586492386506782,-0.006820577268639017,0,0,0,0,0,0,0,1121,3,neutral,2
22,0.3492063492063492,-141.9718,0.0,94.91432641388853,0,0.5517824344021962,0.5517441456945253,0.5586139551255583,-0.0068772752504409375,0,0,0,0,0,0,0,1122,3,neutral,2
23,0.36507936507936506,-115.5188,0.0,94.59492477810157,0,0.5516507962902489,0.5515952929494935,0.5585786784250432,-0.006990849561252007,0,0,0,0,0,0,0,1123,3,neutral,2
24,0.38095238095238093,-84.23477,0.0,94.31858890243929,0,0.5514559296474193,0.5513857348793806,0.5585434098432596,-0.007165137123320106,0,0,0,0,0,0,0,1124,3,neutral,2
25,0.3968253968253968,-54.09058,0.0,94.08739296116684,0,0.5511902844674725,0.5511133822060513,0.5585081506702625,-0.00740222850354035,0,0,0,0,0,0,0,1125,3,neutral,2
26,0.4126984126984127,-30.11655,20.085258869672618,93.90348390393098,0,0.5508486709967306,0.5507779866046523,0.5584729021919329,-0.007702373311348144,0,0,0,0,0,0,0,1126,3,neutral,2
27,0.42857142857142855,-14.92773,37.69270020447237,93.76910455497729,0,0.5504368073745266,0.5503811634893789,0.5584376656898399,-0.008063957412813435,0,0,0,0,0,0,0,1127,3,neutral,2
28,0.4444444444444444,-8.610138,46.61251703250663,93.68661842449009,0,0.5499635606823056,0.5499263421876499,0.5584024424410671,-0.00848355275629368,0,0,0,0,0,0,0,1128,3,neutral,2
29,0.4603174603174603,-9.57901,47.35615920516364,93.65853658536585,1,0.5494377983055747,0.5494186466993018,0.5583672337180036,-0.008956036613029277,0,0,0,0,0,0,0,1129,3,neutral,2
30,0.47619047619047616,-15.83109,41.426330113995654,93.67820349008856,0,0.5488683876298409,0.5488647139919903,0.558332040788102,-0.009474773281500724,0,0,0,0,0,0,0,1130,3,neutral,2
31,0.49206349206349204,-25.89758,30.687382275263197,93.7358082485286,0,0.5482641960406119,0.5482724598934802,0.5582968649136059,-0.010031848194866076,0,0,0,0,0,0,0,1131,3,neutral,2
32,0.5079365079365079,-38.78293,16.987348678648463,93.82931828520407,0,0.547634090923395,0.5476508048633326,0.5582617073512509,-0.010618342148974561,0,0,0,0,0,0,0,1132,3,neutral,2
33,0.5238095238095237,-53.55661,2.0687422729389913,93.95676996359256,0,0.5469869396636972,0.5470093732024841,0.5582265693519441,-0.011224632092467272,0,0,0,0,0,0,0,1133,3,neutral,2
34,0.5396825396825397,-68.78207,0.0,94.11625351470697,0,0.5463316096470255,0.5463581796696104,0.5581914521604261,-0.011840704510075226,0,0,0,0,0,0,0,1134,3,neutral,2
35,0.5555555555555556,-82.50562,0.0,94.30589905440779,0,0.5456769682588878,0.5457073171707519,0.5581563570149214,-0.012456467732644754,0,0,0,0,0,0,0,1135,3,neutral,2
36,0.5714285714285714,-92.71893,0.0,94.52386355849876,0,0.5450318828847912,0.5450666583407602,0.5581212851467845,-0.01306205035533644,0,0,0,0,0,0,0,1136,3,neutral,2
37,0.5873015873015872,-98.13867,0.0,94.76831868987988,0,0.5444052209102426,0.5444455825821154,0.5580862377801447,-0.013648074198452494,0,0,0,0,0,0,0,1137,3,neutral,2
38,0.6031746031746031,-98.74905,0.0,95.03743939459827,0,0.5438058497207496,0.5438527385585583,0.5580512161315571,-0.014205891813456703,0,0,0,0,0,0,0,1138,3,neutral,2
39,0.6190476190476191,-95.72977,0.0,95.32939320408573,0,0.543242636701819,0.5432958502918935,0.5580162214096654,-0.014727780385832634,0,0,0,0,0,0,0,1139,3,neutral,2
40,0.6349206349206349,-91.07568,0.0,95.6423301996315,0,0.5427244492389589,0.5427815728701905,0.5579812548148801,-0.015207086026561543,0,0,0,0,0,0,0,1140,3,neutral,2
41,0.6507936507936507,-86.61758,0.0,95.97437361255778,0,0.542260154717676,0.5423154013177265,0.557946317539077,-0.015638314901878024,0,0,0,0,0,0,0,1141,3,neutral,2
42,0.6666666666666666,-83.44302,0.0,96.32361104989667,0,0.5418573869735152,0.541901633399003,0.5579114107653204,-0.016017170428977146,0,0,0,0,0,0,0,1142,3,neutral,2
43,0.6825396825396826,-81.53836,0.0,96.68808635080462,0,0.541516682154791,0.5415433841015764,0.5578765356676147,-0.016340538792934445,0,0,0,0,0,0,0,1143,3,neutral,2
44,0.6984126984126984,-80.10294,0.0,97.06579209361074,0,0.5412360429146327,0.5412426464477685,0.5578416934106853,-0.016606428134776287,0,0,0,0,0,0,0,1144,3,neutral,2
45,0.7142857142857142,-78.07504,0.0,97.4546627873361,0,0.5410134687611488,0.5410003904169091,0.5578068851497907,-0.016813869629050453,0,0,0,0,0,0,0,1145,3,neutral,2
46,0.7301587301587301,-74.82413,0.0,97.85256879473941,0,0.5408469592024479,0.540816689460589,0.5577721120305688,-0.01696279096841834,0,0,0,0,0,0,0,1146,3,neutral,2
47,0.746031746031746,-70.51019,0.0,98.25731104637211,0,0.5407345137466381,0.5406908626583975,0.5577373751889166,-0.01705387420779835,0,0,0,0,0,0,0,1147,3,neutral,2
48,0.7619047619047619,-66.00775,0.0,98.66661661664202,0,0.5406741319018282,0.5406216201598628,0.5577026757509034,-0.01708841032233726,0,0,0,0,0,0,0,1148,3,neutral,2
49,0.7777777777777777,-62.64261,0.0,99.07813524330254,0,0.5406638131761268,0.5406072002106448,0.5576680148327172,-0.017068162181165584,0,0,0,0,0,0,0,1149,3,neutral,2
50,0.7936507936507936,-61.61905,0.0,99.48943688086842,0,0.5407015570776422,0.5406454876625607,0.5576333935406449,-0.01699524603735027,0,0,0,0,0,0,0,1150,3,neutral,2
51,0.8095238095238095,-63.64099,0.0,99.89801038590983,0,0.540785363114483,0.5407341062258715,0.5575988129710829,-0.01687203927562005,0,0,0,0,0,0,0,1151,3,neutral,2
52,0.8253968253968254,-68.60974,0.0,100.3012634376581,0,0.5409132307947577,0.5408704795958424,0.5575642742105789,-0.016701119285846208,0,0,0,0,0,0,0,1152,3,neutral,2
53,0.8412698412698412,-75.52869,0.0,100.69652380047638,0,0.5410831596265747,0.5410518597101182,0.5575297783359027,-0.016485235205738805,0,0,0,0,0,0,0,1153,3,neutral,2
54,0.8571428571428571,-82.66287,0.0,101.08104203509585,0,0.5412931491180427,0.5412753235065345,0.5574953264141443,-0.01622731116313262,0,0,0,0,0,0,0,1154,3,neutral,2
55,0.873015873015873,-87.83929,0.0,101.4519957626522,0,0.54154119877727,0.5415377424091972,0.557460919502839,-0.01593047679003333,0,0,0,0,0,0,0,1155,3,neutral,2
56,0.8888888888888888,-88.94962,0.0,101.8064955790472,0,0.5418253081123654,0.5418357311633681,0.5574265586501158,-0.015598118387879943,0,0,0,0,0,0,0,1156,3,neutral,2
57,0.9047619047619047,-84.44586,0.0,102.14159270658455,0,0.542143476631437,0.5421655844012655,0.5573922448948689,-0.015233942361916419,0,0,0,0,0,0,0,1157,3,neutral,2
58,0.9206349206349206,-73.9086,0.0,102.45428845482256,0,0.5424933157697104,0.5425232103425908,0.5573579792669497,-0.014842041520855907,0,0,0,0,0,0,0,1158,3,neutral,2
59,0.9365079365079365,-58.13895,0.0,102.74154554285319,0,0.5428696386556329,0.5429040712758741,0.5573237627873769,-0.014426954595746437,0,0,0,0,0,0,0,1159,3,neutral,2
60,0.9523809523809523,-39.0379,3.089223950415813,103.00030131056859,0,0.5432660310077801,0.5433031399670987,0.5572895964685627,-0.013993709831572108,0,0,0,0,0,0,0,1160,3,neutral,2
61,0.9682539682539681,-19.05687,21.394901692598115,103.2274828168709,0,0.5436760733067288,0.5437148800088342,0.5572554813145522,-0.013547844638359084,0,0,0,0,0,0,0,1161,3,neutral,2
62,0.9841269841269841,-0.5118713,38.653462949539275,103.42002378834434,0,0.5440933460330551,0.5441332565069482,0.5572214183212735,-0.013095394904714517,0,0,0,0,0,0,0,1162,3,neutral,2
63,1.0,14.90359,53.14675936445708,103.57488334298041,0,0.5445114296673358,0.5445517815545821,0.5571874084767949,-0.012642849524107911,0,0,0,0,0,0,0,1163,3,neutral,2
0,0.0,8.774399,4.165840216995409,86.96837010231368,0,0.5485953362731363,0.5484393611423939,0.5453893835448508,0.0030509885438661146,0,0,0,0,0,0,0,2244,5,neutral,4
1,0.015873015873015872,8.621506,4.021741081331592,86.35633451403307,0,0.5489509451878396,0.548795104399667,0.5453637054476819,0.003430548684702075,0,0,0,0,0,0,0,2245,5,neutral,4
2,0.031746031746031744,8.170563,3.563117931708091,85.72172648740097,0,0.5492993775290169,0.5491344739639761,0.5453380467388893,0.003793702799251921,0,0,0,0,0,0,0,2246,5,neutral,4
3,0.047619047619047616,7.220306,2.534805990717385,85.06752510948911,0,0.5496049361798614,0.549420580126204,0.5453124081995419,0.004103560352469901,0,0,0,0,0,0,0,2247,5,neutral,4
4,0.06349206349206349,5.638092,0.8138447789493646,84.39660681966944,0,0.5498319240235663,0.5496218221011079,0.5452867906128974,0.004328519730996662,0,0,0,0,0,0,0,2248,5,neutral,4
5,0.07936507936507936,3.394348,0.0,83.71173617611412,0,0.5499446439433247,0.5497128085317579,0.5452611947645746,0.004443188747427841,0,0,0,0,0,0,0,2249,5,neutral,4
6,0.09523809523809523,0.5148468,0.0,83.01555872713149,0,0.5499073988223295,0.5496749849726951,0.5452356214426773,0.004429012123348637,0,0,0,0,0,0,0,2250,5,neutral,4
7,0.1111111111111111,-2.881348,0.0,82.3105958364198,0,0.5496915840834516,0.5494969584120218,0.545210071437857,0.004274596011362794,0,0,0,0,0,0,0,2251,5,neutral,4
8,0.12698412698412698,-6.662018,0.0,81.59924129807409,0,0.5493065097654827,0.5491745211358658,0.545184545543302,0.003975731859568691,0,0,0,0,0,0,0,2252,5,neutral,4
9,0.14285714285714285,-10.70253,0.0,80.88375956963264,0,0.5487741029807978,0.5487103889472095,0.5451590445546477,0.003535134630478742,0,0,0,0,0,0,0,2253,5,neutral,4
10,0.15873015873015872,-15.00829,0.0,80.16628544883925,0,0.5481162993809923,0.5481136809124882,0.5451335692698056,0.00296192254779137,0,0,0,0,0,0,0,2254,5,neutral,4
11,0.1746031746031746,-19.72708,0.0,79.44882502134709,0,0.5473550346176614,0.5473991781579277,0.5451081204887108,0.0022708758929808857,0,0,0,0,0,0,0,2255,5,neutral,4
12,0.19047619047619047,-25.22104,0.0,78.73325771154053,0,0.5465122443424006,0.5465864067209718,0.5450826990129948,0.0014815198570538755,0,0,0,0,0,0,0,2256,5,neutral,4
13,0.20634920634920634,-31.90222,0.0,78.02133927627645,0,0.545609864206805,0.5456985935925581,0.5450573056455906,0.0006170805832208682,0,0,0,0,0,0,0,2257,5,neutral,4
14,0.2222222222222222,-40.03444,0.0,77.31470559099013,0,0.54466982986247,0.5447615459969652,0.5450319411902828,-0.0002966355528050985,0,0,0,0,0,0,0,2258,5,neutral,4
15,0.23809523809523808,-49.41414,0.0,76.61487708867382,0,0.5437140769609904,0.543802502228708,0.5450066064512136,-0.0012323911054187685,0,0,0,0,0,0,0,2259,5,neutral,4
16,0.25396825396825395,-59.06551,0.0,75.92326372420727,0,0.5427645411539626,0.5428489987848736,0.5449813022323625,-0.002162650426264014,0,0,0,0,0,0,0,2260,5,neutral,4
17,0.2698412698412698,-67.22951,0.0,75.24117034895808,0,0.5418431580929812,0.5419277938694309,0.5449560293370111,-0.0030606561593890316,0,0,0,0,0,0,0,2261,5,neutral,4
18,0.2857142857142857,-71.73907,0.0,74.56980239311402,0,0.5409718634296417,0.541063882212094,0.5449307885672124,-0.0039014144218504857,0,0,0,0,0,0,0,2262,5,neutral,4
19,0.30158730158730157,-70.71364,0.0,73.91027176556796,0,0.5401725928155393,0.5402796308958455,0.5449055807232774,-0.00466255897567611,0,0,0,0,0,0,0,2263,5,neutral,4
20,0.31746031746031744,-63.2805,0.0,73.26360289312476,0,0.5394672819022694,0.5395940606095053,0.5448804066032953,-0.005325069974814011,0,0,0,0,0,0,0,2264,5,neutral,4
21,0.3333333333333333,-49.95508,0.0,72.63073883216961,0,0.5388778663414273,0.539022291289106,0.5448552670026976,-0.005873828323320859,0,0,0,0,0,0,0,2265,5,neutral,4
22,0.3492063492063492,-32.56396,0.0,72.01254739661411,0,0.5384262817846084,0.5385751652063803,0.5448301627138799,-0.006297992586494506,0,0,0,0,0,0,0,2266,5,neutral,4
23,0.36507936507936506,-13.67059,0.0,71.40982725584762,0,0.5381309201669555,0.5382590539424472,0.5448050945258867,-0.00659119201687194,0,0,0,0,0,0,0,2267,5,neutral,4
24,0.38095238095238093,4.219177,1.3594305285553654,70.82331396552861,0,0.5379864957010092,0.5380758482827273,0.5447800632241687,-0.006751536659070173,0,0,0,0,0,0,0,2268,5,neutral,4
25,0.3968253968253968,19.28146,17.193217722822762,70.25368590235065,0,0.5379780193439114,0.538023122166678,0.5447550695904146,-0.006781453399880266,0,0,0,0,0,0,0,2269,5,neutral,4
26,0.4126984126984127,30.64317,29.543144142519978,69.7015700814232,0,0.5380904727084329,0.538094454078779,0.5447301144024581,-0.006687364577189455,0,0,0,0,0,0,0,2270,5,neutral,4
27,0.42857142857142855,38.24696,38.0449381095865,69.1675478416579,0,0.5383088374073457,0.5382798825299494,0.5447051984342599,-0.006479232498543185,0,0,0,0,0,0,0,2271,5,neutral,4
28,0.4444444444444444,42.5186,42.93195388949063,68.65216039059136,0,0.5386180950534208,0.5385664673009258,0.5446803224559614,-0.0061699981978204825,0,0,0,0,0,0,0,2272,5,neutral,4
29,0.4603174603174603,44.03947,44.77603536204273,68.15591420546839,0,0.5390032272594303,0.5389389253017524,0.5446554872340025,-0.0057749455758596925,0,0,0,0,0,0,0,2273,5,neutral,4
30,0.47619047619047616,43.3412,44.25808351028923,67.67928629221863,0,0.5394492156381453,0.5393803092381905,0.5446306935312981,-0.0053110227342244385,0,0,0,0,0,0,0,2274,5,neutral,4
31,0.49206349206349204,40.8833,42.03944652898255,67.2227293082568,0,0.5399410418023372,0.539872698450059,0.5446059421074644,-0.0047961511370879,0,0,0,0,0,0,0,2275,5,neutral,4
32,0.5079365079365079,37.14131,38.73681410494534,66.78667655889488,0,0.5404636873647776,0.5403978738220175,0.5445812337190836,-0.004248550700714207,0,0,0,0,0,0,0,2276,5,neutral,4
33,0.5238095238095237,32.67934,34.95409752019385,66.3715468806495,0,0.5410021339382383,0.5409379520636706,0.5445565691199994,-0.0036861055136465882,0,0,0,0,0,0,0,2277,5,neutral,4
34,0.5396825396825397,28.22569,31.31412557263959,65.97774942793468,0,0.5415413631354905,0.541475958487614,0.5445319490616307,-0.0031257910589751244,0,0,0,0,0,0,0,2278,5,neutral,4
35,0.5555555555555556,24.57954,28.456481125329937,65.60568838262566,0,0.5420663565693055,0.5419963213898665,0.544507374293295,-0.0025831798342259467,0,0,0,0,0,0,0,2279,5,neutral,4
36,0.5714285714285714,22.49825,27.003556261395836,65.2557676088409,0,0.5425620958524551,0.5424852751202416,0.5444828455625303,-0.002072038281310736,0,0,0,0,0,0,0,2280,5,neutral,4
37,0.5873015873015872,22.58005,27.51964391856797,64.9283952780934,0,0.5430135625977108,0.5429311629217277,0.5444583636154081,-0.0016040239474569163,0,0,0,0,0,0,0,2281,5,neutral,4
38,0.6031746031746031,25.18736,30.483637167563423,64.62398849279045,0,0.543405738417844,0.543324634707002,0.544433929196827,-0.001188487708988337,0,0,0,0,0,0,0,2282,5,neutral,4
39,0.6190476190476191,30.45302,36.26999889599565,64.34297793899259,0,0.543725053672732,0.543658739225497,0.544409543050784,-0.0008323816045266311,0,0,0,0,0,0,0,2283,5,neutral,4
40,0.6349206349206349,38.43777,45.10705170691402,64.08581260246704,0,0.543970151696292,0.5439289145673505,0.5443852059206151,-0.0005402683312809627,0,0,0,0,0,0,0,2284,5,neutral,4
41,0.6507936507936507,49.14352,56.981694110547814,63.85296458547844,0,0.5441458000089294,0.5441328854886509,0.5443609185492018,-0.00031442392000795034,0,0,0,0,0,0,0,2285,5,neutral,4
42,0.6666666666666666,62.41939,71.49569871622514,63.644934065551446,0,0.5442568120435906,0.5442704802678742,0.5443366816791413,-0.00015502087874418903,0,0,0,0,0,0,0,2286,5,neutral,4
43,0.6825396825396826,77.72212,87.7340726791864,63.46225444172923,0,0.5443080012332225,0.5443433832496186,0.5443124960528795,-6.037564920191932e-05,0,0,0,0,0,0,0,2287,5,neutral,4
44,0.6984126984126984,93.82599,104.2423963657791,63.30549771875967,0,0.5443041810107718,0.544354841485324,0.5442883624128048,-2.724196614336833e-05,0,0,0,0,0,0,0,2288,5,neutral,4
45,0.7142857142857142,108.8034,119.19127877897216,63.175280185317376,0,0.5442501648091851,0.5443093447200138,0.5442642815013058,-5.113087069392921e-05,0,0,0,0,0,0,0,2289,5,neutral,4
46,0.7301587301587301,120.3918,130.72555959566188,63.072268448975365,0,0.5441507660614093,0.5442122974110173,0.5442402540607932,-0.00012663869164103968,0,0,0,0,0,0,0,2290,5,neutral,4
47,0.746031746031746,126.6386,137.38982638682648,62.99718589837432,0,0.5440107982003911,0.5440696996996459,0.544216280833689,-0.0002477660737450647,0,0,0,0,0,0,0,2291,5,neutral,4
48,0.7619047619047619,126.5284,138.4535356440859,62.950819672131146,1,0.5438350746590769,0.5438878516017296,0.5441923625623857,-0.0004082137871616676,0,0,0,0,0,0,0,2292,5,neutral,4
49,0.7777777777777777,120.3284,133.9808148432636,62.9193256825992,0,0.5436284088704137,0.5436730914882597,0.5441684999891794,-0.0006016442467292335,0,0,0,0,0,0,0,2293,5,neutral,4
50,0.7936507936507936,109.2346,124.60544330608413,62.88830094565973,0,0.5433956142673484,0.5434315765270373,0.5441446938561796,-0.0008219010702301272,0,0,0,0,0,0,0,2294,5,neutral,4
51,0.8095238095238095,94.63356,111.12442372933772,62.85774654995037,0,0.5431415042828273,0.5431691094303248,0.5441209449052004,-0.0010631823306282324,0,0,0,0,0,0,0,2295,5,neutral,4
52,0.8253968253968254,77.37918,94.12625642711971,62.82766359695418,0,0.5428708923497974,0.5428910128085506,0.5440972538776356,-0.001320166202237967,0,0,0,0,0,0,0,2296,5,neutral,4
53,0.8412698412698412,57.45955,73.85663912035359,62.79805320122748,0,0.5425885919012051,0.5426020497941454,0.5440736215143223,-0.0015880903367497855,0,0,0,0,0,0,0,2297,5,neutral,4
54,0.8571428571428571,34.33685,50.394801429077006,62.76891649062938,0,0.5422994163699976,0.5423063874303863,0.5440500485553936,-0.0018627884742379334,0,0,0,0,0,0,0,2298,5,neutral,4
55,0.873015873015873,7.711914,24.038126208203238,62.740254606552824,0,0.5420079899382639,0.5420075976236134,0.5440265357401267,-0.002140689490789648,0,0,0,0,0,0,0,2299,5,neutral,4
56,0.8888888888888888,-21.71877,0.0,62.7120687041574,0,0.5417168951253882,0.5417086892127178,0.544003083806785,-0.0024187853288585894,0,0,0,0,0,0,0,2300,5,neutral,4
57,0.9047619047619047,-52.05931,0.0,62.68435995260377,0,0.5414274687507081,0.5414121638958007,0.5439796934924593,-0.002694575070445491,0,0,0,0,0,0,0,2301,5,neutral,4
58,0.9206349206349206,-80.62579,0.0,62.65712953528993,0,0.5411410298601906,0.5411200883632237,0.5439563655329096,-0.002965992803887006,0,0,0,0,0,0,0,2302,5,neutral,4
59,0.9365079365079365,-104.762,0.0,62.63037865008929,0,0.5408588974998022,0.5408341750218995,0.5439331006624061,-0.0032313268994051056,0,0,0,0,0,0,0,2303,5,neutral,4
60,0.9523809523809523,-122.7,0.0,62.60410850959055,0,0.5405823907155095,0.5405558641506991,0.5439098996135742,-0.0034891378535433643,0,0,0,0,0,0,0,2304,5,neutral,4
61,0.9682539682539681,-133.8369,0.0,62.57832034133955,0,0.5403128285532793,0.5402864011651412,0.5438867631172419,-0.0037381810243239198,0,0,0,0,0,0,0,2305,5,neutral,4
62,0.9841269841269841,-138.7065,0.0,62.55301538808309,0,0.5400515300590784,0.5400269038209793,0.5438636919022928,-0.003977339427510392,0,0,0,0,0,0,0,2306,5,neutral,4
63,1.0,-138.5032,0.0,62.52819490801469,0,0.5397998142788731,0.5397784155556542,0.5438406866955227,-0.004205570395011834,0,0,0,0,0,0,0,2307,5,neutral,4
