,index,PPG_Raw,PPG_Clean,PPG_Rate,PPG_Peaks,EDA_Raw,EDA_Clean,EDA_Tonic,EDA_Phasic,SCR_Onsets,SCR_Peaks,SCR_Height,SCR_Amplitude,SCR_RiseTime,SCR_Recovery,SCR_RecoveryTime,Index,Label,Condition,id
0,0.0,-67.99371,0.0,71.6268677293105,0,0.1187488869101468,0.11879890637307046,0.1218126489272494,-0.0030137425602900407,0,0,0,0,0,0,0,406,2,zmatek,1
1,0.015873015873015872,-70.66719,0.0,71.68021663787317,0,0.11962131124539223,0.11965951758771758,0.12181309592090019,-0.002153578339340462,0,0,0,0,0,0,0,407,2,zmatek,1
2,0.031746031746031744,-67.90924,0.0,71.73589799390943,0,0.12051477497829932,0.12054398686747897,0.12181353922961957,-0.0012695523683453806,0,0,0,0,0,0,0,408,2,zmatek,1
3,0.047619047619047616,-58.29789,0.0,71.79405305169273,0,0.12141286374392893,0.12143396359830169,0.12181397883186572,-0.00038001523981591706,0,0,0,0,0,0,0,409,2,zmatek,1
4,0.06349206349206349,-41.91528,0.0,71.85482442337324,0,0.12229916317734217,0.12231056666706074,0.12181441470536129,0.000496151955400247,0,0,0,0,0,0,0,410,2,zmatek,1
5,0.07936507936507936,-20.38657,0.0,71.91835617966805,0,0.12315725891359995,0.123154985601126,0.1218148468276044,0.0013401387671749258,0,0,0,0,0,0,0,411,2,zmatek,1
6,0.09523809523809523,3.562996,0.0,71.98479395705107,0,0.12397073658776323,0.12394909402224037,0.12181527517637195,0.002133818839474084,0,0,0,0,0,0,0,412,2,zmatek,1
7,0.1111111111111111,26.99567,0.0,72.05428507165962,0,0.12472318183489305,0.12467605080348829,0.12181569973020434,0.002860351066841746,0,0,0,0,0,0,0,413,2,zmatek,1
8,0.12698412698412698,47.53539,0.0,72.12697864015405,0,0.12539818029005032,0.1253208638573407,0.12181612046886146,0.003504743381988978,0,0,0,0,0,0,0,414,2,zmatek,1
9,0.14285714285714285,63.86676,0.0,72.20302570778811,0,0.12597931758829609,0.12587089193199266,0.1218165373737402,0.004054354551713913,0,0,0,0,0,0,0,415,2,zmatek,1
10,0.15873015873015872,75.6823,9.497154007679974,72.28257938397094,0,0.12645017936469127,0.12631626141777333,0.1218169504282449,0.004499310982941373,0,0,0,0,0,0,0,416,2,zmatek,1
11,0.1746031746031746,83.40505,15.153311056651152,72.365794985626,0,0.12679435125429692,0.12665017822293925,0.1218173596181037,0.004832818598199837,0,0,0,0,0,0,0,417,2,zmatek,1
12,0.19047619047619047,87.81062,17.250747795798418,72.45283018867924,1,0.12699974334405817,0.12686911941236154,0.12181776493162474,0.005051354474052187,0,0,0,0,0,0,0,418,2,zmatek,1
13,0.20634920634920634,89.75166,16.800713056807272,72.55675400521483,0,0.12707393500063596,0.12697289541993134,0.12181816635988897,0.005154729053308726,0,1,0,0,0,0,0,419,2,zmatek,1
14,0.2222222222222222,89.98897,14.757124363459395,72.68973420225394,0,0.12703009487036368,0.12696458082182036,0.1218185638968768,0.005146016918160679,0,0,0,0,0,0,0,420,2,zmatek,1
15,0.23809523809523808,89.13416,11.818820326755231,72.85061570202559,0,0.12688139198562334,0.1268503191569876,0.12181895753952912,0.005031361610626174,0,0,0,0,0,0,0,421,2,zmatek,1
16,0.25396825396825395,87.60339,8.332048981548901,73.03828535570659,0,0.12664099537879683,0.12663901423268117,0.12181934728774398,0.004819666938055273,0,0,0,0,0,0,0,422,2,zmatek,1
17,0.2698412698412698,85.47673,4.285470072853076,73.25166274463848,0,0.12632207408226617,0.12634192601109,0.12181973314431259,0.0045221928598456855,0,0,0,0,0,0,0,423,2,zmatek,1
18,0.2857142857142857,82.53806,0.0,73.48969147386002,0,0.1259377971284133,0.12597219310931673,0.12182011511479966,0.004152077987535339,0,0,0,0,0,0,0,424,2,zmatek,1
19,0.30158730158730157,78.3523,0.0,73.751330882382,0,0.12550133354962018,0.12554430607774492,0.12182049320737451,0.0037238128633384627,0,0,0,0,0,0,0,425,2,zmatek,1
20,0.31746031746031744,72.46999,0.0,74.03554810674629,0,0.12502585237826874,0.12507355613424623,0.12182086743260033,0.003252688694563586,0,0,0,0,0,0,0,426,2,zmatek,1
21,0.3333333333333333,64.70957,0.0,74.34131044541402,0,0.12452452264674099,0.12457548324746179,0.12182123780318993,0.0027542454371389815,0,0,0,0,0,0,0,427,2,zmatek,1
22,0.3492063492063492,55.36961,0.0,74.66757798169104,0,0.1240105133874189,0.12406534573843027,0.12182160433373675,0.0022437413975099204,0,0,0,0,0,0,0,428,2,zmatek,1
23,0.36507936507936506,45.21322,0.0,75.0132964324489,0,0.12349699363268438,0.12355763121619465,0.1218219670404298,0.001735664168530335,0,0,0,0,0,0,0,429,2,zmatek,1
24,0.38095238095238093,35.40059,0.0,75.37739019903287,0,0.12299713241491944,0.12306562589505186,0.1218223259407615,0.0012432999470047706,0,0,0,0,0,0,0,430,2,zmatek,1
25,0.3968253968253968,27.26391,0.0,75.7587556056271,0,0.12252409876650602,0.1226010562632707,0.12182268105323653,0.0007783752026972978,0,0,0,0,0,0,0,431,2,zmatek,1
26,0.4126984126984127,21.99893,0.0,76.15625431910625,0,0.12209106171982609,0.12217381369343916,0.12182303239708932,0.00035078128896151204,0,0,0,0,0,0,0,432,2,zmatek,1
27,0.42857142857142855,20.43549,0.0,76.56870695315526,0,0.12171119030726157,0.12179176885756923,0.12182337999201699,-3.1611141887763765e-05,0,0,0,0,0,0,0,433,2,zmatek,1
28,0.4444444444444444,22.85215,0.0,76.99488686826554,0,0.12139536865578802,0.12146067870383295,0.12182372385793339,-0.00036304516159232263,0,0,0,0,0,0,0,434,2,zmatek,1
29,0.4603174603174603,28.84747,0.0,77.43351418817832,0,0.12114274951044661,0.1211841843298506,0.12182406401474871,-0.0006398796924420806,0,0,0,0,0,0,0,435,2,zmatek,1
30,0.47619047619047616,37.43861,0.0,77.88325006247456,0,0.12094873095134127,0.12096389357563132,0.1218244004821782,-0.0008605069141431085,0,0,0,0,0,0,0,436,2,zmatek,1
31,0.49206349206349204,47.25513,0.0,78.34269121430802,0,0.12080870937174734,0.12079953794750313,0.12182473327958175,-0.0010251953397272997,0,0,0,0,0,0,0,437,2,zmatek,1
32,0.5079365079365079,56.87239,0.0,78.81036482171531,0,0.12071808116494012,0.12068919003202104,0.12182506242583586,-0.0011358724015161248,0,0,0,0,0,0,0,438,2,zmatek,1
33,0.5238095238095237,65.20861,0.0,79.28472379044847,0,0.12067224272419502,0.12062952524490035,0.12182538793923742,-0.0011958627020911966,0,0,0,0,0,0,0,439,2,zmatek,1
34,0.5396825396825397,71.81463,0.0,79.76414248575944,0,0.12066659044278732,0.12061611077011161,0.12182570983743847,-0.00120959907513401,1,0,0,0,0,0,0,440,2,zmatek,1
35,0.5555555555555556,76.90677,0.0,80.24691299987869,0,0.1206965207139924,0.12064370484907609,0.12182602813741017,-0.0011823232961944595,0,0,0,0,0,0,0,441,2,zmatek,1
36,0.5714285714285714,81.21523,0.0,80.73124204088003,0,0.12075742993108558,0.12070655098485931,0.12182634285543323,-0.0011197918784877036,0,0,0,0,0,0,0,442,2,zmatek,1
37,0.5873015873015872,85.6448,0.0,81.21524853697775,0,0.12084471448734217,0.12079865384399131,0.12182665400711211,-0.0010280001710881899,0,0,0,0,0,0,0,443,2,zmatek,1
38,0.6031746031746031,90.87122,0.0,81.6969620577743,0,0.12095377077603751,0.1209140263537927,0.1218269616074096,-0.0009129352616381319,0,0,0,0,0,0,0,444,2,zmatek,1
39,0.6190476190476191,97.15023,0.0,82.17432216023326,0,0.12107999519044703,0.12104690041154145,0.12182726567069843,-0.0007803652672322204,0,0,0,0,0,0,0,445,2,zmatek,1
40,0.6349206349206349,104.2957,7.426748254691811,82.64517877181997,0,0.12121878412384594,0.1211918965020235,0.12182756621082634,-0.0006356697169323106,0,0,0,0,0,0,0,446,2,zmatek,1
41,0.6507936507936507,111.828,15.992703762179868,83.10729372590698,0,0.12136553396950966,0.12134415018937415,0.12182786324119153,-0.0004837130600012479,0,0,0,0,0,0,0,447,2,zmatek,1
42,0.6666666666666666,119.2513,24.705982188029797,83.5583435647381,0,0.12151564112071352,0.12149939580552661,0.12182815677482527,-0.00032876097753711407,0,0,0,0,0,0,0,448,2,zmatek,1
43,0.6825396825396826,126.1886,33.099236972937796,83.99592372251188,0,0.12166450197073284,0.1216540096586706,0.12182844682447885,-0.00017443717410150724,0,0,0,0,0,0,0,449,2,zmatek,1
44,0.6984126984126984,132.5233,40.961334023666545,84.41755419500942,0,0.12180799209488485,0.12180501672760281,0.12182873340271255,-2.3716683457945418e-05,0,0,0,0,0,0,0,450,2,zmatek,1
45,0.7142857142857142,138.3988,48.47143980673522,84.82068679219817,0,0.12194476809505547,0.12195006610067306,0.12182901652198432,0.00012104957028539906,0,0,0,0,0,0,0,451,2,zmatek,1
46,0.7301587301587301,144.2523,56.22911031296627,85.20271405597998,0,0.1220744873530222,0.12208738135744797,0.12182929619473659,0.00025808515425269235,0,0,0,0,0,0,0,452,2,zmatek,1
47,0.746031746031746,150.8326,65.14942812148273,85.56097990637905,0,0.12219680857232229,0.12221569265083536,0.12182957243347994,0.0003861202088411944,0,0,0,0,0,0,0,453,2,zmatek,1
48,0.7619047619047619,159.0943,76.21534774845371,85.89279205574664,0,0.1223113904564929,0.12233415739206809,0.12182984525087216,0.000504312132626008,0,0,0,0,0,0,0,454,2,zmatek,1
49,0.7777777777777777,169.8962,90.12466779186838,86.19543620190524,0,0.12241789170907132,0.12244227615580162,0.12183011465979235,0.0006121614873834786,0,0,0,0,0,0,0,455,2,zmatek,1
50,0.7936507936507936,183.5888,106.92671740929359,86.46619197764095,0,0.12251597103359473,0.1225398097358413,0.12183038067340946,0.0007094290537499859,0,0,0,0,0,0,0,456,2,zmatek,1
51,0.8095238095238095,199.6076,125.78451831914899,86.70235059587971,0,0.12260528713360033,0.12262670226753615,0.12183064330524476,0.0007960589535532956,0,0,0,0,0,0,0,457,2,zmatek,1
52,0.8253968253968254,216.2859,144.98826555995024,86.9012340877765,0,0.12268549871262537,0.12270301409673037,0.12183090256922838,0.0008721115187074682,0,0,0,0,0,0,0,458,2,zmatek,1
53,0.8412698412698412,231.1115,162.27122819125768,87.06021598560591,0,0.122756264474207,0.1227688667375429,0.12183115847974957,0.0009377082489422003,0,0,0,0,0,0,0,459,2,zmatek,1
54,0.8571428571428571,241.41,175.36100274839742,87.1767432548332,0,0.12281724312188251,0.1228244009407472,0.1218314110517009,0.0009929898801383685,0,0,0,0,0,0,0,460,2,zmatek,1
55,0.873015873015873,245.1671,182.59010135803166,87.24835923140624,0,0.12286809335918909,0.12286974769659387,0.12183166030051637,0.0010380873871126033,0,0,0,0,0,0,0,461,2,zmatek,1
56,0.8888888888888888,241.6897,183.3477360346801,87.27272727272727,1,0.12290847388966393,0.12290501100517735,0.12183190624220361,0.0010731047539517362,0,0,0,0,0,0,0,462,2,zmatek,1
57,0.9047619047619047,231.8212,178.2083428938067,87.24179452417546,0,0.12293804341684428,0.12293026052326572,0.12183214889336998,0.0010981116208164542,0,0,0,0,0,0,0,463,2,zmatek,1
58,0.9206349206349206,217.5397,168.70215703723736,87.15033186189196,0,0.12295646064426734,0.12294553177109623,0.121832388271243,0.0011131434907164577,0,0,0,0,0,0,0,464,2,zmatek,1
59,0.9365079365079365,201.2138,156.83769998733405,87.00051953082084,0,0.12296338427547034,0.122950831460931,0.12183262439368486,0.001118207058051711,0,1,0,0,0,0,0,465,2,zmatek,1
60,0.9523809523809523,184.9159,144.57483626085755,86.79475073476009,0,0.12295854367128457,0.12294614566989537,0.12183285727920119,0.0011132883814418868,0,0,0,0,0,0,0,466,2,zmatek,1
61,0.9682539682539681,169.9575,133.43946182803748,86.5356023153731,0,0.12294213268996732,0.12293144897715393,0.12183308694694393,0.0010983620208996556,0,0,0,0,0,0,0,467,2,zmatek,1
62,0.9841269841269841,156.9047,124.37791264062894,86.22580502281083,0,0.12291453276471233,0.12290671325293934,0.12183331341670851,0.0010733998268622168,0,0,0,0,0,0,0,468,2,zmatek,1
63,1.0,145.8632,117.82528010941596,85.86821390036677,0,0.12287612585172765,0.12287191544209124,0.12183353670892519,0.0010383787237389845,0,0,0,0,0,0,0,469,2,zmatek,1
0,0.0,-141.123,0.0,49.63742003225604,0,0.11908829697398256,0.11905905946675101,0.1202872661636407,-0.0012282062528544261,0,0,0,0,0,0,0,1517,4,zmatek,3
1,0.015873015873015872,-150.886,0.0,49.576786632405714,0,0.11950614985218198,0.11947490592050301,0.12028295286325223,-0.0008080464968534037,0,0,0,0,0,0,0,1518,4,zmatek,3
2,0.031746031746031744,-161.3074,0.0,49.51692120236579,0,0.11992353674773405,0.11988988387904993,0.12027864711521427,-0.00038876278840580935,0,0,0,0,0,0,0,1519,4,zmatek,3
3,0.047619047619047616,-170.4649,0.0,49.45784850132244,0,0.12033282173404936,0.12029585838758461,0.12027434901321125,2.1509823996722485e-05,0,0,0,0,0,0,0,1520,4,zmatek,3
4,0.06349206349206349,-175.5104,0.0,49.39959308902754,0,0.12072636888453883,0.12068538455817727,0.12027005865069933,0.0004153263589682875,0,0,0,0,0,0,0,1521,4,zmatek,3
5,0.07936507936507936,-173.4373,0.0,49.34217933510715,0,0.12109654227261307,0.12105187777125162,0.12026577612114235,0.0007861021034686562,0,0,0,0,0,0,0,1522,4,zmatek,3
6,0.09523809523809523,-162.0823,0.0,49.28563142855867,0,0.12143570597168292,0.12138973728667928,0.12026150151823868,0.0011282362236710874,0,0,0,0,0,0,0,1523,4,zmatek,3
7,0.1111111111111111,-141.0826,0.0,49.2299733874341,0,0.1217362346836146,0.12169442100846535,0.1202572349361348,0.0014371865294341621,0,0,0,0,0,0,0,1524,4,zmatek,3
8,0.12698412698412698,-112.2599,0.0,49.17522906870698,0,0.12199307742423815,0.12196247156462658,0.12025297646962269,0.0017094955539825873,0,0,0,0,0,0,0,1525,4,zmatek,3
9,0.14285714285714285,-79.1297,0.0,49.12142217832145,0,0.12220709315648656,0.1221914963866903,0.12024872621431817,0.0019427706332278835,0,0,0,0,0,0,0,1526,4,zmatek,3
10,0.15873015873015872,-45.84509,0.0,49.06857628142185,0,0.12237996692498047,0.12238010693900386,0.12024448426681832,0.0021356231349202795,0,0,0,0,0,0,0,1527,4,zmatek,3
11,0.1746031746031746,-15.89966,0.0,49.01671481276197,0,0.12251338377434069,0.12252782441672112,0.12024025072483646,0.0022875741565002855,0,0,0,0,0,0,0,1528,4,zmatek,3
12,0.19047619047619047,8.813782,0.0,48.96586108729345,0,0.12260902874918801,0.12263496084814707,0.12023602568731409,0.0023989356273313887,0,0,0,0,0,0,0,1529,4,zmatek,3
13,0.20634920634920634,28.17145,0.0,48.91603831093331,0,0.12266858689414313,0.12270248541272097,0.12023180925450909,0.002470676626594933,0,0,0,0,0,0,0,1530,4,zmatek,3
14,0.2222222222222222,43.37708,0.0,48.86726959151077,0,0.12269374325382683,0.12273188584615032,0.12022760152806067,0.0025042847883591296,0,1,0,0,0,0,0,1531,4,zmatek,3
15,0.23809523809523808,56.21765,0.0,48.819577949894494,0,0.12268618287285987,0.12272503409145256,0.12022340261103151,0.0025016319525787136,0,0,0,0,0,0,0,1532,4,zmatek,3
16,0.25396825396825395,68.33954,0.0,48.77298633130123,0,0.12264759079586303,0.12268406399836433,0.1202192126079278,0.002464851864484097,0,0,0,0,0,0,0,1533,4,zmatek,3
17,0.2698412698412698,80.67334,0.0,48.727517616787786,0,0.122579652067457,0.12261126705406285,0.12021503162469828,0.0023962359053037235,0,0,0,0,0,0,0,1534,4,zmatek,3
18,0.2857142857142857,93.38422,10.338811730874609,48.683194634928476,0,0.1224840517322626,0.12250901004546333,0.12021085976871357,0.0022981507545821534,0,0,0,0,0,0,0,1535,4,zmatek,3
19,0.30158730158730157,106.0316,21.27875457059443,48.6400401736807,0,0.12236247483490056,0.12237967640355141,0.12020669714872698,0.002172979734551698,0,0,0,0,0,0,0,1536,4,zmatek,3
20,0.31746031746031744,117.8482,31.761955354201895,48.59807699244185,0,0.12221660641999163,0.12222563093856059,0.1202025438748183,0.0020230875453660013,0,0,0,0,0,0,0,1537,4,zmatek,3
21,0.3333333333333333,128.1536,41.08700433473503,48.557327834301155,0,0.12204813153215661,0.12204920588509972,0.12019840005832182,0.0018508063102996267,0,0,0,0,0,0,0,1538,4,zmatek,3
22,0.3492063492063492,136.5619,48.786695227108126,48.5178154384907,0,0.1218587352160162,0.12185270474498017,0.12019426581173992,0.0016584394186615206,0,0,0,0,0,0,0,1539,4,zmatek,3
23,0.36507936507936506,143.1095,54.780769445199155,48.47956255304014,0,0.12165010311652195,0.12163841940914126,0.12019014124864376,0.001448278647819842,0,0,0,0,0,0,0,1540,4,zmatek,3
24,0.38095238095238093,148.1804,59.37315555906416,48.44259194764039,0,0.12142419026629092,0.12140865548557288,0.12018602648356219,0.0012226294912355412,0,0,0,0,0,0,0,1541,4,zmatek,3
25,0.3968253968253968,152.4129,63.130832049827774,48.40692642672189,0,0.121183644764339,0.12116576064609641,0.1201819216318605,0.000983839505364678,0,0,0,0,0,0,0,1542,4,zmatek,3
26,0.4126984126984127,156.436,66.70920855122304,48.37258884275389,0,0.12093122463756178,0.12091215108571424,0.12017782680961003,0.0007343247691382627,0,0,0,0,0,0,0,1543,4,zmatek,3
27,0.42857142857142855,160.7343,70.68705931097753,48.33960210977123,0,0.12066968791285465,0.12065033179271338,0.12017374213345024,0.00047659015420386196,0,0,0,0,0,0,0,1544,4,zmatek,3
28,0.4444444444444444,165.6188,75.45164636487115,48.307989217136225,0,0.12040179261711315,0.12038290717210733,0.1201696677204445,0.00021323994851147753,0,0,0,0,0,0,0,1545,4,zmatek,3
29,0.4603174603174603,171.1827,81.14726634443183,48.277773243543535,0,0.12013029677723272,0.12011257956710289,0.12016560368793135,-5.30236220705752e-05,0,0,0,0,0,0,0,1546,4,zmatek,3
30,0.47619047619047616,177.3732,87.68150584699488,48.24897737127645,0,0.11985795842010875,0.1198421343112673,0.12016155015337224,-0.00031941534143660325,0,0,0,0,0,0,0,1547,4,zmatek,3
31,0.49206349206349204,183.9942,94.77727715876986,48.22162490072389,0,0.11958753557263688,0.11957441105824594,0.12015750723419781,-0.0005830956733718722,0,0,0,0,0,0,0,1548,4,zmatek,3
32,0.5079365079365079,190.7239,102.05958363862207,48.195739265167674,0,0.11932178626171239,0.11931226222549103,0.12015347504765403,-0.0008412123176701803,0,0,0,0,0,1,0,1549,4,zmatek,3
33,0.5238095238095237,197.1646,109.1643862280048,48.17134404585085,0,0.11906346851423091,0.1190585004069712,0.12014945371064996,-0.001090952797271984,0,0,0,0,0,0,0,1550,4,zmatek,3
34,0.5396825396825397,203.0005,115.84817828785211,48.148462987337695,0,0.11881534035708788,0.11881583751076881,0.12014544333960865,-0.0013296053205180114,0,0,0,0,0,0,0,1551,4,zmatek,3
35,0.5555555555555556,208.0603,122.06583051549161,48.12712001317764,0,0.11858015981717865,0.11858681911192002,0.12014144405032297,-0.0015546244281649708,0,0,0,0,0,0,0,1552,4,zmatek,3
36,0.5714285714285714,212.4623,127.98234129968185,48.10733924188531,0,0.11836068492139885,0.11837375802732349,0.1201374559578177,-0.001763697418339075,0,0,0,0,0,0,0,1553,4,zmatek,3
37,0.5873015873015872,216.5603,133.90050889502604,48.08914500325006,0,0.11815967369664387,0.11817867136684954,0.12013347917621967,-0.001954807295296833,0,0,0,0,0,0,0,1554,4,zmatek,3
38,0.6031746031746031,220.7789,140.11988630717983,48.072561854989054,0,0.1179798841698092,0.11800322524835513,0.12012951381863683,-0.0021262880542893543,0,0,0,0,0,0,0,1555,4,zmatek,3
39,0.6190476190476191,225.4285,146.77853482917635,48.05761459975864,0,0.11782407342321753,0.11784869095621868,0.12012555999704792,-0.002276868522916962,0,0,0,0,0,0,0,1556,4,zmatek,3
40,0.6349206349206349,230.4452,153.74750075137325,48.04432830253966,0,0.11769402276398529,0.11771591557549616,0.12012161782220314,-0.0024057017268739097,0,0,0,0,0,0,0,1557,4,zmatek,3
41,0.6507936507936507,235.424,160.6336026110611,48.032728308413375,0,0.1175886944988337,0.11760530909407182,0.12011768740353702,-0.0025123777877105367,0,0,0,0,0,0,0,1558,4,zmatek,3
42,0.6666666666666666,239.6278,166.89997749237318,48.02284026074517,0,0.11750654485751906,0.11751684873398172,0.1201137688490938,-0.0025969195914350225,0,0,0,0,0,0,0,1559,4,zmatek,3
43,0.6825396825396826,242.3459,172.05536098275095,48.01469011979471,0,0.1174460300697976,0.11745009999528,0.12010986226546536,-0.0026597617445851497,0,0,0,0,0,0,0,1560,4,zmatek,3
44,0.6984126984126984,243.1529,175.82259517997807,48.00830418177148,0,0.11740560636542566,0.11740425272851104,0.12010596775774204,-0.002701714501706976,0,0,0,0,0,0,0,1561,4,zmatek,3
45,0.7142857142857142,242.0882,178.19985483949995,48.00370909835667,0,0.11738372997415954,0.11737816962391723,0.12010208542947604,-0.0027239152761103233,0,0,0,0,0,0,0,1562,4,zmatek,3
46,0.7301587301587301,239.5857,179.3789090761389,48.000931896712224,0,0.11737885712575552,0.11737044389087521,0.12009821538265657,-0.002727770960407805,1,0,0,0,0,0,0,1563,4,zmatek,3
47,0.746031746031746,236.1369,179.56031275008021,48.0,1,0.1173894440499699,0.11737946261552083,0.12009435771769666,-0.002714894568876651,0,0,0,0,0,0,0,1564,4,zmatek,3
48,0.7619047619047619,231.9587,178.76516078717037,48.00185432642477,0,0.11741394697655895,0.11740347229877444,0.12009051253343044,-0.002687039699430687,0,0,0,0,0,0,0,1565,4,zmatek,3
49,0.7777777777777777,226.7601,176.75122478340393,48.00739062803059,0,0.11745082213527899,0.11744064333403505,0.12008667992712006,-0.00264603605593316,0,0,0,0,0,0,0,1566,4,zmatek,3
50,0.7936507936507936,219.8355,173.089304111568,48.016570131265965,0,0.1174985257558863,0.11748913061475233,0.12008285999447145,-0.0025937288406402844,0,0,0,0,0,0,0,1567,4,zmatek,3
51,0.8095238095238095,210.4572,167.36981628746804,48.02935567205959,0,0.11755551406813722,0.11754712799827616,0.12007905282965742,-0.0025319242903750756,0,0,0,0,0,0,0,1568,4,zmatek,3
52,0.8253968253968254,198.3224,159.43801423242374,48.045711638094396,0,0.11762024330178794,0.11761291493397032,0.12007525852534763,-0.002462343048443468,0,0,0,0,0,0,0,1569,4,zmatek,3
53,0.8412698412698412,183.7733,149.53995194984898,48.06560391337708,0,0.11769116968659488,0.11768489414427163,0.12007147717274397,-0.002386582483610515,0,0,0,0,0,0,0,1570,4,zmatek,3
54,0.8571428571428571,167.7254,138.30906676029016,48.088999824974174,0,0.11776674945231422,0.11776161979574468,0.12006770886162045,-0.0023060885190857414,0,0,0,0,0,0,0,1571,4,zmatek,3
55,0.873015873015873,151.3419,126.60580523243888,48.11586809179321,0,0.117845438897936,0.11784181609475973,0.12006395368036679,-0.0022221370368886114,0,0,0,0,0,0,0,1572,4,zmatek,3
56,0.8888888888888888,135.5645,115.29186739101822,48.146178775293166,0,0.11792594614802866,0.11792438667916559,0.12006021171603483,-0.0021358244862222093,0,0,0,0,0,0,0,1573,4,zmatek,3
57,0.9047619047619047,120.9652,105.0393149288807,48.17990323201503,0,0.11800779783422015,0.1180084155454389,0.12005648305438686,-0.0020480669563722334,0,0,0,0,0,0,0,1574,4,zmatek,3
58,0.9206349206349206,107.6951,96.23897090217847,48.21701406782807,0,0.1180906865983996,0.11809316053942064,0.12005276777994552,-0.001959606686020395,0,0,0,0,0,0,0,1575,4,zmatek,3
59,0.9365079365079365,95.69376,89.0107536112328,48.25748509379357,0,0.11817430508245615,0.11817804063333084,0.12004906597604453,-0.0018710247862804572,0,0,0,0,0,0,0,1576,4,zmatek,3
60,0.9523809523809523,84.88927,83.27058626473547,48.30129128355154,0,0.11825834592827894,0.11826261829969831,0.12004537772487996,-0.001782758866819673,0,0,0,0,0,0,0,1577,4,zmatek,3
61,0.9682539682539681,75.20645,78.79907113825972,48.34840873214134,0,0.1183425017777571,0.11834657827208575,0.12004170310756136,-0.0016951242751849552,0,0,0,0,0,0,0,1578,4,zmatek,3
62,0.9841269841269841,66.51018,75.2825208145546,48.39881461617072,0,0.1184264652727798,0.11842970386653856,0.12003804220416311,-0.001608337775405336,0,0,0,0,0,0,0,1579,4,zmatek,3
63,1.0,58.47832,72.33217787411354,48.45248715525218,0,0.11850992905523616,0.1185118518542727,0.12003439509377507,-0.0015225426753547515,0,0,0,0,0,0,0,1580,4,zmatek,3
0,0.0,35.91443,0.0,60.0,0,0.12302988056138003,0.12300990000862624,0.12219880878839735,0.0008006091295909585,0,0,0,0,0,0,0,4476,6,zmatek,5
1,0.015873015873015872,47.89221,0.0,60.0,0,0.12309029134210019,0.12307708436968758,0.12219577612998556,0.0008708171181236657,0,0,0,0,0,0,0,4477,6,zmatek,5
2,0.031746031746031744,56.7052,0.0,60.0,0,0.12312730848243614,0.12312240983285135,0.12219274515924983,0.00091916471184284,0,0,0,0,0,0,0,4478,6,zmatek,5
3,0.047619047619047616,63.70056,1.9253512531691608,60.0,0,0.12314149179496078,0.12314530232181663,0.12218971593735593,0.0009450777748244199,0,0,0,0,0,0,0,4479,6,zmatek,5
4,0.06349206349206349,69.72656,5.0508808755942125,60.0,0,0.1231334010922471,0.12314543470648534,0.12218668852600294,0.0009482291168200075,0,1,0,0,0,0,0,4480,6,zmatek,5
5,0.07936507936507936,75.1936,7.80045753824261,60.0,0,0.123103596186868,0.12312268877653228,0.12218366298743807,0.000928500466811937,0,0,0,0,0,0,0,4481,6,zmatek,5
6,0.09523809523809523,80.19189,10.365777357420914,60.0,0,0.12305263689139645,0.12307711963517128,0.1221806393844586,0.0008859468667777154,0,0,0,0,0,0,0,4482,6,zmatek,5
7,0.1111111111111111,84.68365,12.620117202062586,60.0,0,0.12298108301840541,0.12300892710988626,0.12217761778040036,0.0008207680824324189,0,0,0,0,0,0,0,4483,6,zmatek,5
8,0.12698412698412698,88.56403,14.314957020948167,60.0,0,0.12288949438046771,0.12291843812070771,0.12217459823911316,0.0007332909715298724,0,0,0,0,0,0,0,4484,6,zmatek,5
9,0.14285714285714285,91.71301,15.241868079898282,60.0,0,0.1227784307901564,0.12280610289774524,0.12217158082492299,0.0006239657014329682,0,0,0,0,0,0,0,4485,6,zmatek,5
10,0.15873015873015872,94.07941,15.333409453373877,60.0,1,0.12264845206004443,0.12267250658934936,0.1221685656025814,0.0004933773573260826,0,0,0,0,0,0,0,4486,6,zmatek,5
11,0.1746031746031746,95.71588,14.702323740040482,60.01733675321272,0,0.12250011800270458,0.12251839626428512,0.12216555263720215,0.000342272944452005,0,0,0,0,0,0,0,4487,6,zmatek,5
12,0.19047619047619047,96.82977,13.626892157698215,60.06844874507975,0,0.12233398843071003,0.12234472171363499,0.12216254199418566,0.0001716021900904167,0,0,0,0,0,0,0,4488,6,zmatek,5
13,0.20634920634920634,97.78754,12.490715036695239,60.15206708580426,0,0.12215062315663341,0.12215268693467062,0.12215953373913155,-1.743097248282498e-05,0,0,0,0,0,0,0,4489,6,zmatek,5
14,0.2222222222222222,98.97284,11.687350147807479,60.267016142630595,0,0.12195058199304801,0.1219438078603968,0.1221565279377399,-0.0002233106743530982,0,0,0,0,0,0,0,4490,6,zmatek,5
15,0.23809523809523808,100.6891,11.507748973415028,60.4122002722327,0,0.1217344247525266,0.12171997090201499,0.12215352465570195,-0.00044415056839404,0,0,0,0,0,0,0,4491,6,zmatek,5
16,0.25396825396825395,103.0675,12.037999656798101,60.58659159438653,0,0.12150300872011871,0.12148348628799509,0.12215052395858107,-0.0006776404900769373,0,0,0,0,0,1,0,4492,6,zmatek,5
17,0.2698412698412698,105.9695,13.100183114906622,60.78921862740573,0,0.12125961408576186,0.12123713006279287,0.12214752591168528,-0.000921004458625642,0,0,0,0,0,0,0,4493,6,zmatek,5
18,0.2857142857142857,108.9918,14.264427873693837,61.01915563085647,0,0.12100870146870814,0.12098416894773287,0.12214453057993241,-0.0011709758159989185,0,0,0,0,0,0,0,4494,6,zmatek,5
19,0.30158730158730157,111.5288,14.942934240899813,61.275512522310045,0,0.12075473940892993,0.12072836301073586,0.12214153802770986,-0.0014237945570226922,0,0,0,0,0,0,0,4495,6,zmatek,5
20,0.31746031746031744,112.928,14.549554059439377,61.557425253125885,0,0.12050219644640035,0.12047394215196128,0.12213854831873049,-0.0016752308436035353,0,0,0,0,0,0,0,4496,6,zmatek,5
21,0.3333333333333333,112.6507,12.6801172178379,61.8640465441296,0,0.12025554112109182,0.12022555369988644,0.12213556151588707,-0.001920637408503856,0,0,0,0,0,0,0,4497,6,zmatek,5
22,0.3492063492063492,110.5213,9.251724879472336,62.194536896105866,0,0.12001924197297673,0.11998817986205768,0.12213257768110765,-0.0021550321044461994,0,0,0,0,0,0,0,4498,6,zmatek,5
23,0.36507936507936506,106.8057,4.545243605301571,62.54805580272806,0,0.11979776754202813,0.11976702535031691,0.12212959687521448,-0.0023732102787455338,0,0,0,0,0,0,0,4499,6,zmatek,5
24,0.38095238095238093,102.1608,0.0,62.92375310529333,0,0.11959558636821849,0.11956737717969106,0.12212661915778951,-0.002569884974285395,0,0,0,0,0,0,0,4500,6,zmatek,5
25,0.3968253968253968,97.43292,0.0,63.320760439774226,0,0.11941716699152023,0.11939444039521431,0.1221236445870492,-0.002739851202570323,0,0,0,0,0,0,0,4501,6,zmatek,5
26,0.4126984126984127,93.36432,0.0,63.73818273754165,0,0.11926697795190637,0.11925315525949125,0.12212067321973187,-0.002878168756050115,0,0,0,0,0,0,0,4502,6,zmatek,5
27,0.42857142857142855,90.30853,0.0,64.1750897519362,0,0.11914948778934932,0.11914800314770893,0.12211770511100035,-0.0029803563130105216,0,0,0,0,0,0,0,4503,6,zmatek,5
28,0.4444444444444444,88.20599,0.0,64.63050759390885,0,0.11906916504382167,0.11908280991859538,0.12211474031436308,-0.0030425880665356625,0,0,0,0,0,0,0,4504,6,zmatek,5
29,0.4603174603174603,86.72845,0.0,65.10341027143801,0,0.11903047825529621,0.11906055669863672,0.12211177888161581,-0.0030618829402327273,1,0,0,0,0,0,0,4505,6,zmatek,5
30,0.47619047619047616,85.51489,0.0,65.59271123954923,0,0.11903789596374548,0.11908320865498906,0.12210882086280637,-0.003036275815284808,0,0,0,0,0,0,0,4506,6,zmatek,5
31,0.49206349206349204,84.43549,0.0,66.09725498067948,0,0.11909588670914219,0.11915157227304231,0.12210586630622398,-0.0029649602528763804,0,0,0,0,0,0,0,4507,6,zmatek,5
32,0.5079365079365079,83.62231,0.0,66.61580864896938,0,0.11920815871728822,0.11926519078010867,0.12210291525841442,-0.002848393070520018,0,0,0,0,0,0,0,4508,6,zmatek,5
33,0.5238095238095237,83.35089,0.0,67.1470538269268,0,0.11937134059742242,0.11942228564585196,0.12209996776422127,-0.002688352841668268,0,0,0,0,0,0,0,4509,6,zmatek,5
34,0.5396825396825397,83.81012,0.0,67.68957845882397,0,0.11957821011440879,0.1196197496576162,0.12209702386685309,-0.002487946820452255,0,0,0,0,0,0,0,4510,6,zmatek,5
35,0.5555555555555556,84.95526,0.0,68.24186904215773,0,0.11982150653235413,0.11985319416927287,0.12209408360797541,-0.0022515636929264435,0,0,0,0,0,0,0,4511,6,zmatek,5
36,0.5714285714285714,86.49152,0.0,68.80230317643168,0,0.12009396911536604,0.12011705009218562,0.12209114702782584,-0.0019847725862189884,0,0,0,0,0,0,0,4512,6,zmatek,5
37,0.5873015873015872,88.03772,0.0,69.36914258724767,0,0.12038833712755113,0.12040471935440834,0.12208821416534966,-0.001694171609469327,0,0,0,0,0,0,0,4513,6,zmatek,5
38,0.6031746031746031,89.37347,0.0,69.94052676295667,0,0.12069734983301686,0.12070877111366245,0.12208528505835294,-0.0013871916410038957,0,0,0,0,0,0,0,4514,6,zmatek,5
39,0.6190476190476191,90.53546,0.0,70.5144673605439,0,0.12101374649587064,0.12102117505636785,0.12208235974366896,-0.0010718630294716867,0,0,0,0,0,0,0,4515,6,zmatek,5
40,0.6349206349206349,91.81036,0.0,71.08884355651172,0,0.12133026638021904,0.12133356263405959,0.12207943825733425,-0.0007565543576035765,0,0,0,0,0,0,0,4516,6,zmatek,5
41,0.6507936507936507,93.63446,0.0,71.66139853664053,0,0.1216396487501695,0.12163750601455343,0.12207652063476915,-0.0004496934912273654,0,0,0,0,0,0,0,4517,6,zmatek,5
42,0.6666666666666666,96.36023,1.0154660888568663,72.22973733487501,0,0.1219346328698295,0.12192480378929381,0.1220736069109585,-0.00015948187210050943,0,0,0,0,0,0,0,4518,6,zmatek,5
43,0.6825396825396826,100.2088,7.07655076282603,72.79132624527485,0,0.12220795800330556,0.12218776204222662,0.12207069712062746,0.00010638655078693237,0,0,0,0,0,0,0,4519,6,zmatek,5
44,0.6984126984126984,105.1588,14.448451053963163,73.34349404092033,0,0.12245236341470517,0.12241945926107087,0.12206779129840774,0.0003409902323176696,0,0,0,0,0,0,0,4520,6,zmatek,5
45,0.7142857142857142,111.0735,22.95151056289447,73.88343523868289,0,0.12266058836813562,0.12261398382394542,0.12206488947898997,0.0005384175177215025,0,0,0,0,0,0,0,4521,6,zmatek,5
46,0.7301587301587301,117.6755,32.24242990935104,74.40821564757255,0,0.12282537212770375,0.12276663352771088,0.12206199169725825,0.000693966170782712,0,0,0,0,0,0,0,4522,6,zmatek,5
47,0.746031746031746,124.6193,41.939518805235,74.91478042962079,0,0.12293945395751683,0.12287406795422899,0.12205909798840334,0.0008042957399862974,0,0,0,0,0,0,0,4523,6,zmatek,5
48,0.7619047619047619,131.5872,51.78475577431102,75.3999648846166,0,0.12299629603715447,0.12293440647793866,0.12205620838801208,0.0008675255660045154,0,0,0,0,0,0,0,4524,6,zmatek,5
49,0.7777777777777777,138.4066,61.78586493666715,75.86050814224167,0,0.1229970951247075,0.1229472673942245,0.12205332293213084,0.0008832739100019726,0,1,0,0,0,0,0,4525,6,zmatek,5
50,0.7936507936507936,145.2259,72.26907434363422,76.2930699061865,0,0.12294773756644947,0.12291374684570718,0.12205044165730214,0.0008526368798893935,0,0,0,0,0,0,0,4526,6,zmatek,5
51,0.8095238095238095,152.5469,83.78787248687944,76.69425034389762,0,0.12285417541425137,0.12283633964722707,0.12204756460057414,0.0007781092552977883,0,0,0,0,0,0,0,4527,6,zmatek,5
52,0.8253968253968254,161.1092,96.88307844700199,77.06061315235198,0,0.12272236071998449,0.12271880737621334,0.12204469179948353,0.0006634525779645815,0,0,0,0,0,0,0,4528,6,zmatek,5
53,0.8412698412698412,171.4341,111.76222673937768,77.38871175485006,0,0.12255824553551982,0.12256600184347628,0.12204182329201337,0.0005135186225681684,0,0,0,0,0,0,0,4529,6,zmatek,5
54,0.8571428571428571,183.4247,128.02714747589042,77.67511849710188,0,0.12236778191272832,0.12238365405305568,0.12203895911652789,0.00033403835664143046,0,0,0,0,0,0,0,4530,6,zmatek,5
55,0.873015873015873,196.0513,144.58800438973051,77.91645661443344,0,0.12215692190348137,0.12217813991803265,0.12203609931168714,0.00013138765646898075,0,0,0,0,0,0,0,4531,6,zmatek,5
56,0.8888888888888888,207.469,159.84089673701223,78.10943463818822,0,0.12193161755964994,0.12195623437113658,0.12203324391634461,-8.765858220351566e-05,0,0,0,0,0,0,0,4532,6,zmatek,5
57,0.9047619047619047,215.5323,172.07377312739345,78.25088280160273,0,0.12169782093310487,0.1217248652207222,0.12203039296943143,-0.0003161725880765618,0,0,0,0,0,0,0,4533,6,zmatek,5
58,0.9206349206349206,218.5767,179.95528422956872,78.33779089769058,0,0.1214614840757177,0.12149087730747293,0.1220275465098313,-0.0005473095574683693,0,0,0,0,0,0,0,4534,6,zmatek,5
59,0.9365079365079365,215.9841,182.9133206474989,78.36734693877551,1,0.12122855903935915,0.12126081635728882,0.12202470457624981,-0.000774523801296174,0,0,0,0,0,0,0,4535,6,zmatek,5
60,0.9523809523809523,208.3501,181.25479571302256,78.34489075584511,0,0.12100499787590067,0.12104074050868326,0.12202186720708201,-0.0009917572175472008,0,0,0,0,0,0,0,4536,6,zmatek,5
61,0.9682539682539681,197.1323,175.99562575470347,78.27838229047471,0,0.12079675263721315,0.12083606588146731,0.12201903444028232,-0.0011935937224641531,0,0,0,0,0,1,0,4537,6,zmatek,5
62,0.9841269841269841,184.0445,168.49866125091648,78.1692167907733,0,0.12060977537516752,0.12065145076959141,0.12201620631323996,-0.0013753750575790002,0,0,0,0,0,0,0,4538,6,zmatek,5
63,1.0,170.4564,160.09022046331657,78.01891773932921,0,0.12045001814163525,0.12049072108232786,0.1220133828626631,-0.0015332753484146489,0,0,0,0,0,0,0,4539,6,zmatek,5
