,index,PPG_Raw,PPG_Clean,PPG_Rate,PPG_Peaks,EDA_Raw,EDA_Clean,EDA_Tonic,EDA_Phasic,SCR_Onsets,SCR_Peaks,SCR_Height,SCR_Amplitude,SCR_RiseTime,SCR_Recovery,SCR_RecoveryTime,Index,Label,Condition,id
0,0.0,7.063366,0.0,57.19702098849018,0,0.12040160000000003,0.12041785834970423,0.12084591618101319,-0.0004280578300568246,0,0,0,0,0,0,1,0,1,neutral,0
1,0.015873015873015872,15.26425,0.0,57.19702098849018,0,0.12041772626992873,0.1204982676299098,0.12085047505158418,-0.00035220742042218404,0,0,0,0,0,0,0,1,1,neutral,0
2,0.031746031746031744,22.28226,9.372569848299934,57.19702098849018,0,0.12046446434148597,0.12057954456565924,0.12085503054207343,-0.0002754859751619629,0,0,0,0,0,0,0,2,1,neutral,0
3,0.047619047619047616,28.68754,18.937597648119056,57.19702098849018,0,0.12053935310732834,0.1206655596791984,0.12085958252271534,-0.00019402284226471877,0,0,0,0,0,0,0,3,1,neutral,0
4,0.06349206349206349,34.76225,24.510127039830074,57.19702098849018,0,0.12063993146011245,0.12075990779332996,0.12086413086358568,-0.00010422306900353495,0,0,0,0,0,0,0,4,1,neutral,0
5,0.07936507936507936,40.50587,28.31573946429125,57.19702098849018,0,0.12076373829249495,0.12086567954350451,0.12086867543465003,-2.995889893407438e-06,0,0,0,0,0,0,0,5,1,neutral,0
6,0.09523809523809523,45.74342,31.84285101740026,57.19702098849018,0,0.12090831249713241,0.12098528507652238,0.12087321610581672,0.0001120689719577054,0,0,0,0,0,0,0,6,1,neutral,0
7,0.1111111111111111,50.23309,35.5446669446453,57.19702098849018,0,0.12107119296668148,0.12112033811414089,0.12087775274699632,0.00024258536839651275,0,0,0,0,0,0,0,7,1,neutral,0
8,0.12698412698412698,53.71834,39.10268114579039,57.19702098849018,0,0.12124991859379874,0.1212716020837698,0.1208822852281689,0.00038931685685273396,0,0,0,0,0,0,0,8,1,neutral,0
9,0.14285714285714285,56.01057,41.9213850609302,57.19702098849018,0,0.1214420282711409,0.12143899433486907,0.12088681341946012,0.000552180916660623,0,0,0,0,0,0,0,9,1,neutral,0
10,0.15873015873015872,57.06425,43.56523458706838,57.19702098849018,0,0.12164506089136444,0.12162164003112698,0.12089133719122626,0.0007303028411521889,0,0,0,0,0,0,0,10,1,neutral,0
11,0.1746031746031746,57.04071,43.99049449425817,57.19702098849018,0,0.12185655534712608,0.12181796435627887,0.12089585641414867,0.0009221079433814447,0,0,0,0,0,0,0,11,1,neutral,0
12,0.19047619047619047,56.3094,43.557904912483245,57.19702098849018,0,0.12207405053108238,0.12202581022324072,0.12090037095933666,0.0011254392651550355,0,0,0,0,0,0,0,12,1,neutral,0
13,0.20634920634920634,55.41315,42.88900757120563,57.19702098849018,0,0.12229508533589002,0.12224256861408325,0.1209048806984382,0.0013376879168957058,0,0,0,0,0,0,0,13,1,neutral,0
14,0.2222222222222222,54.92755,42.650894041260834,57.19702098849018,0,0.12251719865420554,0.12246530978382482,0.12090938550375732,0.0015559242813177783,0,0,0,0,0,0,0,14,1,neutral,0
15,0.23809523809523808,55.35302,43.344662030884486,57.19702098849018,0,0.12273792937868562,0.12269090555567641,0.12091388524837644,0.0017770203085498222,0,0,0,0,0,0,0,15,1,neutral,0
16,0.25396825396825395,56.90806,45.15360140719917,57.19702098849018,0,0.12295481640198684,0.12291613551502763,0.1209183798062822,0.001997755709994809,0,0,0,0,0,0,0,16,1,neutral,0
17,0.2698412698412698,59.46563,47.886952718526366,57.19702098849018,0,0.12316547716833968,0.12313777277115408,0.1209228690524929,0.0022149037199100177,0,0,0,0,0,0,0,17,1,neutral,0
18,0.2857142857142857,62.51158,51.032512021644266,57.19702098849018,0,0.12336788354200058,0.12335264781758391,0.12092735286318568,0.002425294955646487,0,0,0,0,0,0,0,18,1,neutral,0
19,0.30158730158730157,65.28847,53.903709417358705,57.19702098849018,0,0.12356010729993525,0.12355769163772055,0.12093183111582174,0.0026258605231464227,0,0,0,0,0,0,0,19,1,neutral,0
20,0.31746031746031744,67.03251,55.83784625131323,57.19702098849018,0,0.12374022022483919,0.12374996137056525,0.12093630368926757,0.0028136576825446113,0,0,0,0,0,0,0,20,1,neutral,0
21,0.3333333333333333,67.22023,56.382833259948924,57.19702098849018,1,0.12390629409940797,0.123926653424796,0.12094077046391054,0.0029858829621316712,0,0,0,0,0,0,0,21,1,neutral,0
22,0.3492063492063492,65.72438,55.411447480850384,57.00242356719981,0,0.12405640070633714,0.12408510982021587,0.12094523132176714,0.0031398784996941468,0,0,0,0,0,0,0,22,1,neutral,0
23,0.36507936507936506,62.84438,53.12808500526798,56.81082860819402,0,0.12418861182832229,0.12422282371726028,0.12094968614658222,0.003273137571922663,0,0,0,0,0,0,0,23,1,neutral,0
24,0.38095238095238093,59.15483,49.97406671864907,56.62221094528772,0,0.12430099924805897,0.12433744959975879,0.12095413482391765,0.003383314777084848,0,0,0,0,0,0,0,24,1,neutral,0
25,0.3968253968253968,55.25851,46.47546294916392,56.4365459852897,0,0.1243916347482427,0.12442682248712028,0.12095857724122902,0.003468245247134043,0,0,0,0,0,0,0,25,1,neutral,0
26,0.4126984126984127,51.62583,43.0942513840486,56.253809702632026,0,0.12445859011156908,0.12448898899650294,0.12096301328792898,0.0035259757098157567,0,0,0,0,0,0,0,26,1,neutral,0
27,0.42857142857142855,48.44182,40.13231226009097,56.07397863417315,0,0.12449993712073365,0.12452225121430868,0.12096744285543597,0.003554808360113468,0,1,0,-2147483648,-2147483648,0,0,27,1,neutral,0
28,0.4444444444444444,45.69643,37.706478193501546,55.89702987417563,0,0.12451374755843196,0.1245252223542984,0.12097186583720726,0.003553356518330809,0,0,0,0,0,0,0,28,1,neutral,0
29,0.4603174603174603,43.32409,35.78025838859714,55.72294106945863,0,0.12449809320735955,0.12449689127387556,0.1209762821287553,0.0035206091463587668,0,0,0,0,0,0,0,29,1,neutral,0
30,0.47619047619047616,41.23164,34.221262343178914,55.55169041472534,0,0.12445104585021204,0.12443669128664636,0.12098069162764657,0.0034559996602370933,0,0,0,0,0,0,0,30,1,neutral,0
31,0.49206349206349204,39.34733,32.857621657938154,55.383256648066315,0,0.12437067726968491,0.12434456752715557,0.12098509423348243,0.0033594732949091812,0,0,0,0,0,0,0,31,1,neutral,0
32,0.5079365079365079,37.58923,31.522601905534852,55.21761904663855,0,0.12425505924847376,0.1242210365353784,0.12098948984786155,0.0032315466887515797,0,0,0,0,0,0,0,32,1,neutral,0
33,0.5238095238095237,35.80556,30.089338460031914,55.05475742252143,0,0.12410310860796442,0.12406723181794252,0.12099387837432407,0.003073353444851803,0,0,0,0,0,0,0,33,1,neutral,0
34,0.5396825396825397,33.86196,28.498274864615087,54.89465211874988,0,0.12391804578906555,0.12388492991116976,0.1209982597182776,0.0028866701941240623,0,0,0,0,0,0,0,34,1,neutral,0
35,0.5555555555555556,31.6911,26.77128833147849,54.73728400552505,0,0.12370445780764913,0.12367655281974765,0.12100263378690596,0.002673919034072108,0,0,0,0,0,0,0,35,1,neutral,0
36,0.5714285714285714,29.35421,24.999972935939486,54.582634476604035,0,0.12346693224007349,0.12344514444536098,0.12100700048906142,0.0024381439575284114,0,0,0,0,0,0,0,36,1,neutral,0
37,0.5873015873015872,27.03634,23.300968298199212,54.43068544586854,0,0.12321005666269685,0.12319432051588522,0.1210113597351421,0.0021829607819703594,0,0,0,0,0,0,0,37,1,neutral,0
38,0.6031746031746031,24.92045,21.748432204521755,54.28141934407399,0,0.12293841865187756,0.12292819335692279,0.1210157114369561,0.0019124819211922591,0,0,0,0,0,0,0,38,1,neutral,0
39,0.6190476190476191,23.05334,20.311925424909706,54.13481911577962,0,0.12265660578397387,0.12265127445515892,0.12102005550757454,0.0016312189488082403,0,0,0,0,0,0,0,39,1,neutral,0
40,0.6349206349206349,21.2645,18.833196959360983,53.99086821646085,0,0.12236920563534416,0.12236835906330663,0.1210243918611758,0.0013439672033529145,0,0,0,0,0,0,0,40,1,neutral,0
41,0.6507936507936507,19.22812,17.061163145595366,53.84955060980476,0,0.12208080578234666,0.12208439806424894,0.12102872041288366,0.001055677652585517,0,0,0,0,0,0,0,41,1,neutral,0
42,0.6666666666666666,16.58791,14.73704571359989,53.71085076519011,0,0.12179599380133968,0.1218043629562698,0.1210330410786019,0.000771321878886248,0,0,0,0,0,0,0,42,1,neutral,0
43,0.6825396825396826,13.1429,11.696185518829411,53.57475365535307,0,0.12151935726868152,0.12153311016227032,0.12103735377484837,0.0004957563886383357,0,0,0,0,0,0,0,43,1,neutral,0
44,0.6984126984126984,8.905346,7.943326628297076,53.44124475424001,0,0.12125548376073046,0.12127525091896074,0.1210416584185913,0.00023359250158378852,0,0,0,0,0,0,0,44,1,neutral,0
45,0.7142857142857142,4.117577,3.6685498959004343,53.310310035049106,0,0.12100896085384483,0.12103503276873658,0.12104595492709065,-1.0922157141867676e-05,0,0,0,0,0,0,0,45,1,neutral,0
46,0.7301587301587301,-0.8503456,0.0,53.181935968461964,0,0.12078437612438292,0.12081623814378448,0.12105024321774713,-0.00023400507275264388,0,0,0,0,0,0,0,46,1,neutral,0
47,0.746031746031746,-5.618637,0.0,53.056109521067356,0,0.12058631714870298,0.12062210467695746,0.12105452320796128,-0.00043241852979608434,0,0,0,0,0,0,0,47,1,neutral,0
48,0.7619047619047619,-9.937973,0.0,52.9328181539788,0,0.12041937150316334,0.1204552706807164,0.12105879481500495,-0.0006035241330831449,0,0,0,0,0,0,0,48,1,neutral,0
49,0.7777777777777777,-13.69879,0.0,52.81204982164792,0,0.1202874333450717,0.12031774771378718,0.12106305795590679,-0.0007453102409165762,0,0,0,0,0,0,0,49,1,neutral,0
50,0.7936507936507936,-17.03287,0.0,52.693792970875705,0,0.12019040541059169,0.120210920365584,0.12106731254735353,-0.0008563921805689361,0,0,0,0,0,0,0,50,1,neutral,0
51,0.8095238095238095,-20.25986,0.0,52.578036540024065,0,0.12012676518011954,0.1201355714608228,0.12107155850560808,-0.0009359870435871939,0,0,0,0,0,0,0,51,1,neutral,0
52,0.8253968253968254,-23.84097,0.0,52.46476995842993,0,0.12009498835967566,0.12009192901689181,0.12107579574644521,-0.000983866728357862,0,0,0,0,0,0,0,52,1,neutral,0
53,0.8412698412698412,-28.19814,0.0,52.35398314602455,0,0.1200935506552805,0.12007972969901984,0.12108002418510547,-0.0010002944848927031,1,0,0,0,0,0,0,53,1,neutral,0
54,0.8571428571428571,-33.56189,0.0,52.245666513160636,0,0.1201209277729544,0.12009829240923366,0.12108424373626726,-0.000985951325843377,0,0,0,0,0,0,0,54,1,neutral,0
55,0.873015873015873,-39.86533,0.0,52.13981096065029,0,0.12017559541871782,0.12014659513674365,0.12108845431403713,-0.0009418591761060012,0,0,0,0,0,0,0,55,1,neutral,0
56,0.8888888888888888,-46.73104,0.0,52.03640788001682,0,0.12025602929859112,0.12022334832412133,0.12109265583195782,-0.0008693075066518333,0,0,0,0,0,0,0,56,1,neutral,0
57,0.9047619047619047,-53.60906,0.0,51.935449153963546,0,0.12036070511859476,0.12032705872384192,0.12109684820303344,-0.0007697894780097939,0,0,0,0,0,0,0,57,1,neutral,0
58,0.9206349206349206,-59.92871,0.0,51.836927157063116,0,0.12048809858474911,0.12045607893714348,0.12110103133977128,-0.000644952401449021,0,0,0,0,0,0,0,58,1,neutral,0
59,0.9365079365079365,-65.36465,0.0,51.74083475667096,0,0.12063668540307461,0.12060863941097634,0.12110520515423895,-0.0004965657420868412,0,0,0,0,0,0,0,59,1,neutral,0
60,0.9523809523809523,-69.90901,0.0,51.64716531406664,0,0.1208049412795916,0.12078286147054479,0.12110936955813643,-0.00032650808641891704,0,0,0,0,0,0,0,60,1,neutral,0
61,0.9682539682539681,-73.94835,0.0,51.55591268582732,0,0.12099134192032057,0.1209767518312779,0.12111352446288168,-0.0001367726304341648,0,0,0,0,0,0,0,61,1,neutral,0
62,0.9841269841269841,-78.23213,0.0,51.46707122543726,0,0.12119436303128185,0.12118818081720525,0.12111766977970881,7.051103866287953e-05,0,0,0,0,0,0,0,62,1,neutral,0
63,1.0,-83.64265,0.0,51.38063578513815,0,0.1214124803184959,0.12141484807877999,0.1211218054197776,0.00029304266016553766,0,0,0,0,0,0,0,63,1,neutral,0
0,0.0,-173.1472,0.0,45.359560826040344,0,0.12265359944064122,0.12263889840600734,0.1216194668755198,0.0010194315253086597,0,0,0,0,0,0,0,1110,3,neutral,2
1,0.015873015873015872,-173.259,0.0,45.108793320250896,0,0.12250415986787007,0.12249786765615493,0.12161824667809033,0.0008796209732527708,0,0,0,0,0,0,0,1111,3,neutral,2
2,0.031746031746031744,-163.8444,0.0,44.85986079133056,0,0.12233619570599366,0.12233695196676626,0.12161701889202198,0.0007199330703021617,0,0,0,0,0,0,0,1112,3,neutral,2
3,0.047619047619047616,-144.8825,0.0,44.61293076642734,0,0.12215360805359875,0.1221597495079866,0.12161578346576375,0.0005439660381530956,0,0,0,0,0,1,0,1113,3,neutral,2
4,0.06349206349206349,-118.5533,0.0,44.36816288174176,0,0.12196029800927222,0.12197027641217593,0.12161454034817794,0.00035573606030333676,0,0,0,0,0,0,0,1114,3,neutral,2
5,0.07936507936507936,-88.63511,0.0,44.125709158807744,0,0.12176016667160089,0.12177282589408764,0.12161328948843912,0.00015953640233164115,0,0,0,0,0,0,0,1115,3,neutral,2
6,0.09523809523809523,-59.31365,0.0,43.885714285714286,0,0.1215571151391715,0.12157182443369254,0.1216120308359261,-4.020640516996519e-05,0,0,0,0,0,0,0,1116,3,neutral,2
7,0.1111111111111111,-33.80229,0.0,43.648315901975295,0,0.12135504451057101,0.12137169140849619,0.12161076434010928,-0.00023907293416632416,0,0,0,0,0,0,0,1117,3,neutral,2
8,0.12698412698412698,-13.58037,0.0,43.41364488587343,0,0.12115785588438609,0.12117670802977448,0.12160948995043601,-0.0004327819228288341,0,0,0,0,0,0,0,1118,3,neutral,2
9,0.14285714285714285,1.611763,0.0,43.18182564321658,0,0.12096945035920369,0.12099090071546836,0.12160820761621627,-0.0006173069025265586,0,0,0,0,0,0,0,1119,3,neutral,2
10,0.15873015873015872,13.23524,0.0,42.952976396554185,0,0.12079372903361058,0.12081794315960068,0.12160691728651142,-0.0007889741282980105,0,0,0,0,0,0,0,1120,3,neutral,2
11,0.1746031746031746,23.02656,0.0,42.727209474005015,0,0.12063459300619353,0.12066108034872784,0.12160561891002815,-0.0009445385622934439,0,0,0,0,0,0,0,1121,3,neutral,2
12,0.19047619047619047,32.35009,0.0,42.50463159694566,0,0.12049594337553943,0.12052307662892499,0.12160431243501969,-0.0010812358066909422,0,0,0,0,0,0,0,1122,3,neutral,2
13,0.20634920634920634,41.86625,0.0,42.28534416590327,0,0.12038167563472596,0.12040618863922306,0.12160299780919637,-0.00119680917016988,0,0,0,0,0,0,0,1123,3,neutral,2
14,0.2222222222222222,51.6221,0.0,42.06944354408413,0,0.12029437533713214,0.12031216251420196,0.1216016749796468,-0.001289512465238971,0,0,0,0,0,0,0,1124,3,neutral,2
15,0.23809523809523808,61.26278,2.5133185563792204,41.857021338052846,0,0.12023364330100329,0.12024225327349057,0.1216003438927714,-0.001358090618669723,0,0,0,0,0,0,0,1125,3,neutral,2
16,0.25396825396825395,70.29367,9.579478166377692,41.64816467515518,0,0.12019866668946465,0.12019726286510038,0.12159900449422882,-0.0014017416281093089,0,0,0,0,0,0,0,1126,3,neutral,2
17,0.2698412698412698,78.19883,15.632727390216893,41.44295647735109,0,0.12018863266564149,0.12017759206205902,0.12159765672889644,-0.0014200646654074559,1,0,0,0,0,0,0,1127,3,neutral,2
18,0.2857142857142857,84.59662,20.170280990786047,41.241475731192835,0,0.12020272839265908,0.12018330048618672,0.12159630054084511,-0.0014130000528147814,0,0,0,0,0,0,0,1128,3,neutral,2
19,0.30158730158730157,89.29921,22.975127982260588,41.043797753747235,0,0.12024014103364267,0.12021416857352414,0.12159493587332854,-0.0013807672975443203,0,0,0,0,0,0,0,1129,3,neutral,2
20,0.31746031746031744,92.33627,24.165763978932425,40.849994454321084,0,0.12030005775171754,0.12026975536511034,0.12159356266878733,-0.0013238073009976255,0,0,0,0,0,0,0,1130,3,neutral,2
21,0.3333333333333333,94.05664,24.16322131797345,40.66013459190409,0,0.12038166571000895,0.12034944660065745,0.12159218086886758,-0.0012427342651086222,0,0,0,0,0,0,0,1131,3,neutral,2
22,0.3492063492063492,95.02242,23.587901828225938,40.47428402829585,0,0.12048415207164216,0.1204524886529442,0.12159079041445378,-0.001138301757983073,0,0,0,0,0,0,0,1132,3,neutral,2
23,0.36507936507936506,95.94604,23.10634116667714,40.292505976931274,0,0.1206067039997424,0.12057800527037334,0.12158939124571565,-0.0010113859713879038,0,0,0,0,0,0,0,1133,3,neutral,2
24,0.38095238095238093,97.43418,23.261412161599026,40.114861247464475,0,0.12074850865743501,0.12072499577192398,0.12158798330216851,-0.0008629875258593479,0,0,0,0,0,0,0,1134,3,neutral,2
25,0.3968253968253968,99.85789,24.331673881040878,39.941408486212,0,0.1209087532078452,0.12089231512661039,0.12158656652274673,-0.000694251391317491,0,0,0,0,0,0,0,1135,3,neutral,2
26,0.4126984126984127,103.1811,26.265320298119047,39.77220441259664,0,0.12108662481409822,0.12107863810793801,0.12158514084588946,-0.0005065027326960331,0,0,0,0,0,0,0,1136,3,neutral,2
27,0.42857142857142855,106.9722,28.71476493212371,39.60730405176875,0,0.12128131063931936,0.12128241130603283,0.1215837062096383,-0.00030129489791060917,0,0,0,0,0,0,0,1137,3,neutral,2
28,0.4444444444444444,110.6217,31.163441156983342,39.446760963616775,0,0.12149199784663386,0.12150179808183754,0.12158226255174587,-8.046446377109963e-05,0,0,0,0,0,0,0,1138,3,neutral,2
29,0.4603174603174603,113.5052,33.10131465551767,39.290627468411465,0,0.12171787149778149,0.12173462245674613,0.12158080980979431,0.00015381265353430656,0,0,0,0,0,0,0,1139,3,neutral,2
30,0.47619047619047616,115.2615,34.18679914356337,39.13895486935867,0,0.12195721658502232,0.1219783183783135,0.12157934792132298,0.0003989704640212097,0,0,0,0,0,0,0,1140,3,neutral,2
31,0.49206349206349204,115.8507,34.339759180344764,38.99179367236524,0,0.12220602011323886,0.12222989076441021,0.12157787682396369,0.00065201394792837,0,0,0,0,0,0,0,1141,3,neutral,2
32,0.5079365079365079,115.5363,33.73981359053689,38.84919380335125,0,0.12245990762837636,0.12248589423245138,0.12157639645558214,0.0009094977848052022,0,0,0,0,0,0,0,1142,3,neutral,2
33,0.5238095238095237,114.7468,32.74214010846122,38.71120482346874,0,0.12271450467638015,0.12274243453947807,0.12157490675442388,0.0011675277934472626,0,0,0,0,0,0,0,1143,3,neutral,2
34,0.5396825396825397,113.9165,31.752318288477028,38.57787614261479,0,0.12296543680319562,0.12299519658495907,0.12157340765926265,0.0014217889345495326,0,0,0,0,0,0,0,1144,3,neutral,2
35,0.5555555555555556,113.3638,31.111039040030132,38.449257231653114,0,0.12320832955476792,0.12323950144336585,0.12157189910954899,0.0016676023431330062,0,0,0,0,0,0,0,1145,3,neutral,2
36,0.5714285714285714,113.235,31.0277569598184,38.32539783378537,0,0.12343880847704251,0.12347039335379983,0.12157038104555645,0.0019000123180255533,0,0,0,0,0,0,0,1146,3,neutral,2
37,0.5873015873015872,113.6057,31.57770008636657,38.20634817554041,0,0.12365249911596458,0.12368275593280018,0.12156885340852294,0.0021139025345284514,0,0,0,0,0,0,0,1147,3,neutral,2
38,0.6031746031746031,114.4179,32.75055632669742,38.09215917787746,0,0.1238450270174795,0.1238714551218157,0.12156731614078412,0.0023041389917548387,0,0,0,0,0,0,0,1148,3,neutral,2
39,0.6190476190476191,115.6009,34.52055655963487,37.982882667927896,0,0.12401201772753258,0.12403150457371938,0.12156576918589612,0.0024657353990215473,0,0,0,0,0,0,0,1149,3,neutral,2
40,0.6349206349206349,117.1256,36.901346630944666,37.87857159193,0,0.12414909679206906,0.12415824739217635,0.1215642124887446,0.0025940349151080747,0,0,0,0,0,0,0,1150,3,neutral,2
41,0.6507936507936507,119.0028,39.95702625193985,37.7792802299427,0,0.12425188975703434,0.12424754646868827,0.12156264599563724,0.0026849004852084308,0,0,0,0,0,0,0,1151,3,neutral,2
42,0.6666666666666666,121.3861,43.76229915061195,37.68506441295764,0,0.12431602216837369,0.12429597425556142,0.12156106965437694,0.0027349046138260115,0,0,0,0,0,0,0,1152,3,neutral,2
43,0.6825396825396826,124.4204,48.33391075409795,37.595981743064,0,0.12433711957203235,0.12430099183570416,0.12155948341431365,0.0027415084345192367,0,1,0,0,0,0,0,1153,3,neutral,2
44,0.6984126984126984,128.1818,53.579686704027246,37.51209181735961,0,0.12431080751395573,0.12426110677460481,0.12155788722637269,0.0027032195618511075,0,0,0,0,0,0,0,1154,3,neutral,2
45,0.7142857142857142,132.5311,59.31439313757651,37.43345645634211,0,0.12423271425732728,0.12417599961322039,0.12155628104305813,0.002619718584274614,0,0,0,0,0,0,0,1155,3,neutral,2
46,0.7301587301587301,137.2058,65.3636393059414,37.3601399375595,0,0.1241010975362449,0.12404661006325748,0.12155466481843044,0.0024919452594358636,0,0,0,0,0,0,0,1156,3,neutral,2
47,0.746031746031746,141.9274,71.72515127464665,37.29220923534769,0,0.12392175263875044,0.12387517596682793,0.12155303850805832,0.002322137473877962,0,0,0,0,0,0,0,1157,3,neutral,2
48,0.7619047619047619,146.7775,78.70640665150381,37.229734267535704,0,0.12370181698136683,0.12366522070783438,0.12155140206894517,0.0021138186545001996,0,0,0,0,0,0,0,1158,3,neutral,2
49,0.7777777777777777,152.3066,86.94143389811265,37.1727881500579,0,0.12344842798061686,0.12342148771708875,0.12154975545943152,0.0018717322737739606,0,0,0,0,0,0,0,1159,3,neutral,2
50,0.7936507936507936,159.4568,97.22715754830855,37.121447460476,0,0.12316872305302351,0.12314982365691758,0.12154809863907544,0.001601725034467747,0,0,0,0,0,0,0,1160,3,neutral,2
51,0.8095238095238095,169.1933,110.20144445661988,37.07579251148393,0,0.12286983961510962,0.1228570145200867,0.12154643156851366,0.0013105829687106545,0,0,0,0,0,0,0,1161,3,neutral,2
52,0.8253968253968254,181.8847,125.97288030144513,37.0359076355462,0,0.12255891508339802,0.12255058106909272,0.1215447542093068,0.0010058268774387278,0,0,0,0,0,0,0,1162,3,neutral,2
53,0.8412698412698412,196.9938,143.85897442000388,37.0018814819051,0,0.12224308687441163,0.12223854173444776,0.12154306652377243,0.0006954752288464892,0,0,0,0,0,0,0,1163,3,neutral,2
54,0.8571428571428571,212.8867,162.3653352683739,36.97380732728679,0,0.1219294924046733,0.12192915232630418,0.12154136847481052,0.000387783870186354,0,0,0,0,0,1,0,1164,3,neutral,2
55,0.873015873015873,227.2661,179.44938613885256,36.95178340173976,0,0.12162526909070598,0.12163063276727444,0.12153966002572561,9.097276076625508e-05,0,0,0,0,0,0,0,1165,3,neutral,2
56,0.8888888888888888,237.7484,192.99798781800536,36.93591323115442,0,0.12133755434903247,0.12135089159125681,0.12153794114005052,-0.0001870495290483898,0,0,0,0,0,0,0,1166,3,neutral,2
57,0.9047619047619047,242.5728,201.36127871343817,36.92630599814016,0,0.12107348559617562,0.12109725920166567,0.12153621178137634,-0.0004389525594342551,0,0,0,0,0,0,0,1167,3,neutral,2
58,0.9206349206349206,240.985,203.7630716602024,36.92307692307692,1,0.1208402002486584,0.12087624081991293,0.12153447191319314,-0.0006582310724694642,0,0,0,0,0,0,0,1168,3,neutral,2
59,0.9365079365079365,233.3977,200.45719111829357,36.931475031865375,0,0.12064483572300365,0.12069329960984959,0.1215327214987455,-0.0008394218675476093,0,0,0,0,0,0,0,1169,3,neutral,2
60,0.9523809523809523,221.1497,192.59404902097697,36.956395554835034,0,0.12049452943573416,0.12055267953419715,0.12153096050090689,-0.0009782809448206468,0,0,0,0,0,0,0,1170,3,neutral,2
61,0.9682539682539681,206.0677,181.861763781354,36.99745934287658,0,0.12039641800758688,0.12045727598583143,0.12152918888207562,-0.001071912873811064,0,0,0,0,0,0,0,1171,3,neutral,2
62,0.9841269841269841,190.0228,170.0340072024089,37.05432656376116,0,0.12035503425969597,0.12040856009130595,0.1215274066040951,-0.0011188464898087486,0,0,0,0,0,0,0,1172,3,neutral,2
63,1.0,174.5095,158.57230919178815,37.12669352127219,0,0.12036651457994717,0.12040655986085108,0.12152561362819987,-0.0011190537438178281,1,0,0,0,0,0,0,1173,3,neutral,2
0,0.0,98.61682,49.36142005091977,70.66108403436532,0,0.12158320945392419,0.12163587731881678,0.12319468525190903,-0.0015614552345805041,0,0,0,0,0,0,0,4091,5,neutral,4
1,0.015873015873015872,100.2548,48.59767863418489,70.56059922638283,0,0.12150383125667771,0.12153935587775946,0.12319250168948463,-0.0016558099645662665,0,0,0,0,0,0,0,4092,5,neutral,4
2,0.031746031746031744,100.7219,46.75839901538687,70.45120371136916,0,0.12147643357192858,0.12149186536526975,0.12319031570097258,-0.0017011313928678063,1,0,0,0,0,0,0,4093,5,neutral,4
3,0.047619047619047616,99.50833,43.40726366575981,70.3332352122717,0,0.12149730331459004,0.12149306439424637,0.12318812728933991,-0.001697760909513691,0,0,0,0,0,0,0,4094,5,neutral,4
4,0.06349206349206349,96.51722,38.461237807388414,70.20703415032195,0,0.12156272739957531,0.12154147570699303,0.12318593645658159,-0.001647175774153885,0,0,0,0,0,0,0,4095,5,neutral,4
5,0.07936507936507936,92.10734,32.19587839858701,70.07294289716435,0,0.12166899274179771,0.12163465978714663,0.12318374320372211,-0.0015518155041331291,0,0,0,0,0,0,0,4096,5,neutral,4
6,0.09523809523809523,86.90948,25.13540977240515,69.93130505560627,0,0.12181238625617043,0.12176940460326356,0.12318154753084411,-0.0014148921309332517,0,0,0,0,0,0,0,4097,5,neutral,4
7,0.1111111111111111,81.6015,17.87373344987629,69.78246477064974,0,0.12198919485760663,0.12194191879044536,0.12317934943714288,-0.0012401970186020086,0,0,0,0,0,0,0,4098,5,neutral,4
8,0.12698412698412698,76.70309,10.895916955525504,69.62676607220044,0,0.12219570546101971,0.12214801663311275,0.1231771489210048,-0.001031915881057363,0,0,0,0,0,0,0,4099,5,neutral,4
9,0.14285714285714285,72.4278,4.463777633121178,69.46455225059229,0,0.12242820498132283,0.12238328501937953,0.12317494598010749,-0.00079446182781395,0,0,0,0,0,0,0,4100,5,neutral,4
10,0.15873015873015872,68.69733,0.0,69.29616526581744,0,0.1226829803334291,0.12264322486438588,0.1231727406115395,-0.0005323339407693216,0,0,0,0,0,0,0,4101,5,neutral,4
11,0.1746031746031746,65.23409,0.0,69.12194519111573,0,0.122956318432252,0.1229233621091936,0.12317053281193693,-0.00025000627544528593,0,0,0,0,0,0,0,4102,5,neutral,4
12,0.19047619047619047,61.77333,0.0,68.9422296913525,0,0.12324450619270468,0.12321932607470064,0.1231683225776343,4.815049277569191e-05,0,0,0,0,0,0,0,4103,5,neutral,4
13,0.20634920634920634,58.14532,0.0,68.75735353640317,0,0.1235438305297003,0.12352689550140834,0.12316610990482721,0.0003579151082551154,0,0,0,0,0,0,0,4104,5,neutral,4
14,0.2222222222222222,54.33532,0.0,68.56764814956563,0,0.12385057835815205,0.12384201489124028,0.12316389478974425,0.0006752320767453385,0,0,0,0,0,0,0,4105,5,neutral,4
15,0.23809523809523808,50.45121,0.0,68.37344119083916,0,0.1241610365929734,0.12416078568338387,0.12316167722882569,0.0009962028410525864,0,0,0,0,0,0,0,4106,5,neutral,4
16,0.25396825396825395,46.58732,0.0,68.17505617474174,0,0.1244715165627244,0.12447943827537843,0.12315945721890657,0.0013170578019418592,0,0,0,0,0,0,0,4107,5,neutral,4
17,0.2698412698412698,42.79217,0.0,67.97281212218438,0,0.12477855486959023,0.12479429190598941,0.12315723475740205,0.001634116200825949,0,0,0,0,0,0,0,4108,5,neutral,4
18,0.2857142857142857,39.00525,0.0,67.76702324578513,0,0.12507880975947452,0.12510170993203565,0.12315500984249252,0.0019437413964073903,0,0,0,0,0,0,0,4109,5,neutral,4
19,0.30158730158730157,35.14983,0.0,67.55799866788246,0,0.12536894066508925,0.12539805805691612,0.12315278247330672,0.002242299093022287,0,0,0,0,0,0,0,4110,5,neutral,4
20,0.31746031746031744,31.21491,0.0,67.34604217040105,0,0.12564560701914723,0.12567967261628904,0.12315055265010044,0.002526125626140623,0,0,0,0,0,0,0,4111,5,neutral,4
21,0.3333333333333333,27.30524,0.0,67.13145197562919,0,0.1259054682543613,0.1259428451214622,0.12314832037442881,0.002791512505584299,0,0,0,0,0,0,0,4112,5,neutral,4
22,0.3492063492063492,23.6306,0.0,66.91452055688865,0,0.12614518380344353,0.12618382794424596,0.12314608564931004,0.0030347121002165063,0,0,0,0,0,0,0,4113,5,neutral,4
23,0.36507936507936506,20.39512,0.0,66.69553447801115,0,0.1263614130991067,0.12639886435681225,0.12314384847937844,0.00325196767764767,0,0,0,0,0,0,0,4114,5,neutral,4
24,0.38095238095238093,17.68768,0.0,66.47477426048273,0,0.12655081557406353,0.12658424419490094,0.12314160887102453,0.0034395690673016607,0,0,0,0,0,0,0,4115,5,neutral,4
25,0.3968253968253968,15.34669,0.0,66.25251427707492,0,0.12671005066102628,0.12673638429255424,0.1231393668325201,0.0035939330950252113,0,0,0,0,0,0,0,4116,5,neutral,4
26,0.4126984126984127,13.10711,0.0,66.02902267075265,0,0.12683577779270766,0.12685193066407538,0.12313712237412609,0.003711705764938683,0,0,0,0,0,0,0,4117,5,neutral,4
27,0.42857142857142855,10.62635,0.0,65.80456129762713,0,0.12692465640182027,0.12692787732838784,0.12313487550818132,0.003789881083706624,0,0,0,0,0,0,0,4118,5,neutral,4
28,0.4444444444444444,7.677361,0.0,65.57938569271278,0,0.12697334592107656,0.1269616948441201,0.12313262624916999,0.0038259295955549444,0,1,0,0,0,0,0,4119,5,neutral,4
29,0.4603174603174603,4.253166,0.0,65.35374505724498,0,0.12697850578318914,0.12695146022080633,0.12313037461376632,0.003817928293427167,0,0,0,0,0,0,0,4120,5,neutral,4
30,0.47619047619047616,0.542366,0.0,65.127882266322,0,0.12693679542087055,0.1268959790566507,0.12312812062085497,0.0037646827567280293,0,0,0,0,0,0,0,4121,5,neutral,4
31,0.49206349206349204,-3.098213,0.0,64.90203389564799,0,0.12684487426683339,0.12679489066282235,0.12312586429152605,0.0036658322756237365,0,0,0,0,0,0,0,4122,5,neutral,4
32,0.5079365079365079,-6.311417,0.0,64.67643026617384,0,0.12669991333064817,0.12664874764855202,0.12312360564904411,0.0035219294361695094,0,0,0,0,0,0,0,4123,5,neutral,4
33,0.5238095238095237,-8.821999,0.0,64.45129550545904,0,0.12650450563118318,0.12645906295087259,0.12312134471879091,0.0033344871501072263,0,0,0,0,0,0,0,4124,5,neutral,4
34,0.5396825396825397,-10.55209,0.0,64.22684762460791,0,0.1262645080677713,0.12622831946989854,0.12311908152818232,0.003105988290228259,0,0,0,0,0,0,0,4125,5,neutral,4
35,0.5555555555555556,-11.6145,0.0,64.00329860966937,0,0.12598582232191347,0.12595994006892713,0.12311681610656025,0.002839855690582516,0,0,0,0,0,0,0,4126,5,neutral,4
36,0.5714285714285714,-12.34557,0.0,63.780854526428364,0,0.12567435007511024,0.12565821840202618,0.12311454848506098,0.0025403829741979913,0,0,0,0,0,0,0,4127,5,neutral,4
37,0.5873015873015872,-13.27161,0.0,63.55971563755911,0,0.12533599300886325,0.12532821353700324,0.12311227869646187,0.002212629176203281,0,0,0,0,0,0,0,4128,5,neutral,4
38,0.6031746031746031,-15.04369,0.0,63.34007653115569,0,0.12497665280467316,0.12497561343155769,0.12311000677500894,0.0018622822201519744,0,0,0,0,0,0,0,4129,5,neutral,4
39,0.6190476190476191,-18.21576,0.0,63.122126259702014,0,0.12460223114404063,0.1246065738898236,0.12310773275622829,0.0014954978747542729,0,0,0,0,0,0,0,4130,5,neutral,4
40,0.6349206349206349,-22.76349,0.0,62.90604848859255,0,0.12421862970846737,0.12422754066440164,0.12310545667672443,0.0011187218561104384,0,0,0,0,0,0,0,4131,5,neutral,4
41,0.6507936507936507,-27.63858,0.0,62.69202165336456,0,0.12383175017945361,0.12384506292208684,0.12310317857396921,0.0007385032936497033,0,0,0,0,0,1,0,4132,5,neutral,4
42,0.6666666666666666,-30.46274,0.0,62.48021912485423,0,0.12344749423850108,0.12346560642886811,0.12310089848608502,0.00036130791534665075,0,0,0,0,0,0,0,4133,5,neutral,4
43,0.6825396825396826,-27.90025,0.0,62.27080938153981,0,0.1230717635671104,0.12309537459568935,0.1230986164516258,-6.660906298796556e-06,0,0,0,0,0,0,0,4134,5,neutral,4
44,0.6984126984126984,-16.47725,0.0,62.06395618838713,0,0.12271045984678222,0.12274014500356376,0.12309633250935995,-0.0003596256289298451,0,0,0,0,0,0,0,4135,5,neutral,4
45,0.7142857142857142,6.173355,0.0,61.85981878156435,0,0.12236948475901818,0.12240512820973946,0.12309404669805828,-0.0006923757339552606,0,0,0,0,0,0,0,4136,5,neutral,4
46,0.7301587301587301,40.21547,0.0,61.658552058444535,0,0.12205473998531897,0.12209485451726035,0.12309175905629066,-0.0010003809567850986,0,0,0,0,0,0,0,4137,5,neutral,4
47,0.746031746031746,83.33195,17.26128809815798,61.46030677236519,0,0.1217721272071853,0.12181309295153882,0.12308946962223413,-0.0012798723100660595,0,0,0,0,0,0,0,4138,5,neutral,4
48,0.7619047619047619,131.2787,67.00818124480601,61.26522973166529,0,0.12152719889954154,0.12156280492825419,0.12308717843349513,-0.001527888415605302,0,0,0,0,0,0,0,4139,5,neutral,4
49,0.7777777777777777,179.2246,117.73156949985554,61.07346400256942,0,0.12132123050694477,0.1213461330622456,0.12308488552694818,-0.0017422866953161892,0,0,0,0,0,0,0,4140,5,neutral,4
50,0.7936507936507936,222.9878,165.37114053952132,60.88514911553811,0,0.12115263118105633,0.12116442337669081,0.12308259093859249,-0.0019217211618961115,0,0,0,0,0,0,0,4141,5,neutral,4
51,0.8095238095238095,259.7772,206.65886514347233,60.700421274751726,0,0.12101975726027599,0.12101827702534454,0.12308029470342778,-0.0020655906964640214,0,0,0,0,0,0,0,4142,5,neutral,4
52,0.8253968253968254,288.1517,239.42400574983324,60.5194135704424,0,0.12092096508300304,0.12090762578314174,0.12307799685535041,-0.0021739635578531887,0,0,0,0,0,0,0,4143,5,neutral,4
53,0.8412698412698412,307.541,262.58966135386794,60.342256193835155,0,0.12085461098763689,0.12083182421728256,0.12307569742706978,-0.002247485211442642,0,0,0,0,0,0,0,4144,5,neutral,4
54,0.8571428571428571,317.776,276.0231477903726,60.16907665450478,0,0.12081905131257713,0.12078975076719115,0.12307339645004527,-0.0022872772491353247,0,0,0,0,0,0,0,4145,5,neutral,4
55,0.873015873015873,319.0005,280.39399455514825,60.0,1,0.12081264239622312,0.12077990997869603,0.1230710939544432,-0.002294835155134626,1,0,0,0,0,0,0,4146,5,neutral,4
56,0.8888888888888888,312.0279,277.08846996740726,59.83036705952541,0,0.12083374057697442,0.12080052880424424,0.12306878996911338,-0.0022719320057067844,0,0,0,0,0,0,0,4147,5,neutral,4
57,0.9047619047619047,298.6029,268.1165702861758,59.65563857675002,0,0.12088070219323041,0.12084964108074857,0.12306648452158418,-0.0022205339913287376,0,0,0,0,0,0,0,4148,5,neutral,4
58,0.9206349206349206,281.3558,255.90895766883997,59.47611563476323,0,0.12095188358339055,0.12092515587629746,0.12306417763807524,-0.00214273206999089,0,0,0,0,0,0,0,4149,5,neutral,4
59,0.9365079365079365,263.2468,242.95979330623402,59.29209614907357,0,0.12104564108585442,0.12102490718840749,0.12306186934352674,-0.0020406922689739683,0,0,0,0,0,0,0,4150,5,neutral,4
60,0.9523809523809523,246.8009,231.38028889359077,59.10387447270836,0,0.1211603310390213,0.12114668431453841,0.12305955966164395,-0.0019166253143784438,0,0,0,0,0,0,0,4151,5,neutral,4
61,0.9682539682539681,233.4649,222.50980996408762,58.91174103354485,0,0.1212943097812907,0.12128824395029769,0.12305724861495589,-0.0017727745329786544,0,0,0,0,0,0,0,4152,5,neutral,4
62,0.9841269841269841,223.4179,216.73214411828025,58.71598200343698,0,0.1214459336510623,0.12144730657608409,0.12305493622488668,-0.0016114194656505331,0,0,0,0,0,0,0,4153,5,neutral,4
63,1.0,215.8563,213.564831805531,58.51687899856688,0,0.1216135589867352,0.12162154087231021,0.12305262251183842,-0.0014348914522320077,0,0,0,0,0,0,0,4154,5,neutral,4
