timestamp,value,norm_ts
1617796454.15341,-19.70624,1.2735199928283691
1617796454.16904,-20.70401,1.2891499996185303
1617796454.18467,-20.91516,1.3047800064086914
1617796454.20029,-20.15628,1.3203999996185303
1617796454.21592,-18.36026,1.3360300064086914
1617796454.23154,-15.63007,1.3516499996185303
1617796454.24717,-12.21191,1.3672800064086914
1617796454.26279,-8.415497,1.3828999996185303
1617796454.27842,-4.480133,1.3985300064086914
1617796454.29405,-0.5351868,1.4141600131988525
1617796454.30967,3.362183,1.4297800064086914
1617796454.3253,7.154327,1.4454100131988525
1617796454.34092,10.71658,1.4610300064086914
1617796454.35655,13.8324,1.4766600131988525
1617796454.37217,16.25272,1.4922800064086914
1617796454.3878,17.78375,1.5079100131988525
1617796454.40343,18.34167,1.5235400199890137
1617796454.41905,18.02124,1.5391600131988525
1617796454.43468,17.07623,1.5547900199890137
1617796454.4503,15.84698,1.5704100131988525
1617796454.46593,14.67932,1.5860400199890137
1617796454.48155,13.79886,1.6016600131988525
1617796454.49718,13.23807,1.6172900199890137
1617796454.51281,12.87735,1.6329200267791748
1617796454.52843,12.51431,1.6485400199890137
1617796454.54406,12.02594,1.6641700267791748
1617796454.55968,11.41507,1.6797900199890137
1617796454.57531,10.79889,1.6954200267791748
1617796454.59093,10.32156,1.7110400199890137
1617796454.60656,10.03741,1.7266700267791748
1617796454.62219,9.910767,1.742300033569336
1617796454.63781,9.817566,1.7579200267791748
1617796454.65344,9.642944,1.773550033569336
1617796454.66906,9.296539,1.7891700267791748
1617796454.68469,8.705536,1.804800033569336
1617796454.70032,7.812653,1.820430040359497
1617796454.71594,6.563416,1.836050033569336
1617796454.73157,4.959564,1.851680040359497
1617796454.74719,3.080658,1.867300033569336
1617796454.76282,1.070313,1.882930040359497
1617796454.77844,-0.9227295,1.898550033569336
1617796454.79407,-2.847473,1.914180040359497
1617796454.8097,-4.770752,1.9298100471496582
1617796454.82532,-6.851776,1.945430040359497
1617796454.84095,-9.240082,1.9610600471496582
1617796454.85657,-11.99261,1.976680040359497
1617796454.8722,-15.05273,1.9923100471496582
1617796454.88782,-18.24905,2.007930040359497
1617796454.90345,-21.34204,2.023560047149658
1617796454.91908,-24.02979,2.0391900539398193
1617796454.9347,-25.95068,2.054810047149658
1617796454.95033,-26.69507,2.0704400539398193
1617796454.96595,-25.90091,2.086060047149658
1617796454.98158,-23.33862,2.1016900539398193
1617796454.9972,-19.04135,2.117310047149658
1617796455.01283,-13.35114,2.1329400539398193
1617796455.02846,-6.822906,2.1485700607299805
1617796455.04408,-0.1180725,2.1641900539398193
1617796455.05971,6.149048,2.1798200607299805
1617796455.07533,11.53207,2.1954400539398193
1617796455.09096,15.7995,2.2110700607299805
1617796455.10658,18.90372,2.2266900539398193
1617796455.12221,20.94427,2.2423200607299805
1617796455.13784,22.082,2.2579500675201416
1617796455.15346,22.46274,2.2735700607299805
1617796455.16909,22.23419,2.2892000675201416
1617796455.18471,21.48752,2.3048200607299805
1617796455.20034,20.3302,2.3204500675201416
1617796455.21596,18.85205,2.3360700607299805
1617796455.23159,17.20227,2.3517000675201416
1617796455.24722,15.57114,2.3673300743103027
1617796455.26284,14.14502,2.3829500675201416
1617796455.27847,13.05743,2.3985800743103027
1617796455.29409,12.35324,2.4142000675201416
1617796455.30972,11.97696,2.4298300743103027
1617796455.32534,11.77853,2.4454500675201416
1617796455.34097,11.62527,2.4610800743103027
1617796455.3566,11.42586,2.476710081100464
1617796455.37222,11.16818,2.4923300743103027
1617796455.38785,10.87048,2.507960081100464
1617796455.40347,10.54063,2.5235800743103027
1617796455.4191,10.10957,2.539210081100464
1617796455.43472,9.441605,2.5548300743103027
1617796455.45035,8.377548,2.570460081100464
1617796455.46598,6.74321,2.586090087890625
1617796455.4816,4.504868,2.601710081100464
1617796455.49723,1.682907,2.617340087890625
1617796455.51285,-1.586121,2.632960081100464
1617796455.52848,-5.115189,2.648590087890625
1617796455.5441,-8.692932,2.664210081100464
1617796455.55973,-12.18668,2.679840087890625
1617796455.57536,-15.55319,2.695470094680786
1617796455.59098,-18.89868,2.711090087890625
1617796455.60661,-22.44965,2.726720094680786
1617796455.62223,-26.40741,2.742340087890625
1617796455.63786,-30.82538,2.757970094680786
1617796455.65348,-35.48987,2.773590087890625
1617796455.66911,-39.8651,2.789220094680786
1617796455.68474,-43.19687,2.8048501014709473
1617796455.70036,-44.69615,2.820470094680786
1617796455.71599,-43.74835,2.8361001014709473
1617796455.73161,-40.11726,2.851720094680786
1617796455.74724,-34.01677,2.8673501014709473
1617796455.76286,-26.04303,2.882970094680786
1617796455.77849,-17.06302,2.8986001014709473
1617796455.79412,-7.955978,2.9142301082611084
1617796455.80974,0.5467529,2.9298501014709473
1617796455.82537,7.958527,2.9454801082611084
1617796455.84099,14.06717,2.9611001014709473
1617796455.85662,18.85646,2.9767301082611084
1617796455.87224,22.39774,2.9923501014709473
1617796455.88787,24.76653,3.0079801082611084
1617796455.9035,26.04692,3.0236101150512695
1617796455.91912,26.32692,3.0392301082611084
1617796455.93475,25.78762,3.0548601150512695
1617796455.95037,24.73145,3.0704801082611084
1617796455.966,23.52724,3.0861101150512695
1617796455.98162,22.54395,3.1017301082611084
1617796455.99725,22.02971,3.1173601150512695
1617796456.01288,22.02938,3.1329901218414307
1617796456.0285,22.41123,3.1486101150512695
1617796456.04413,22.98568,3.1642401218414307
1617796456.05975,23.58121,3.1798601150512695
1617796456.07538,24.16664,3.1954901218414307
1617796456.091,24.84035,3.2111101150512695
1617796456.10663,25.71507,3.2267401218414307
1617796456.12226,26.83469,3.242370128631592
1617796456.13788,28.06377,3.2579901218414307
1617796456.15351,29.11014,3.273620128631592
1617796456.16913,29.6234,3.2892401218414307
1617796456.18476,29.309,3.304870128631592
1617796456.20038,28.03053,3.3204901218414307
1617796456.21601,25.87965,3.336120128631592
1617796456.23164,23.11018,3.351750135421753
1617796456.24726,20.08543,3.367370128631592
1617796456.26289,17.10345,3.383000135421753
1617796456.27851,14.33327,3.398620128631592
1617796456.29414,11.7,3.414250135421753
1617796456.30976,8.917496,3.429870128631592
1617796456.32539,5.556976,3.445500135421753
1617796456.34102,1.18071,3.461130142211914
1617796456.35664,-4.490162,3.476750135421753
1617796456.37227,-11.50519,3.492380142211914
1617796456.38789,-19.5615,3.508000135421753
1617796456.40352,-27.98202,3.523630142211914
1617796456.41914,-35.74864,3.539250135421753
1617796456.43477,-41.61853,3.554880142211914
1617796456.4504,-44.36447,3.570510149002075
1617796456.46602,-43.09586,3.586130142211914
1617796456.48165,-37.56949,3.601760149002075
1617796456.49727,-28.27505,3.617380142211914
1617796456.5129,-16.29904,3.633010149002075
1617796456.52852,-2.905251,3.648630142211914
1617796456.54415,10.92063,3.664260149002075
1617796456.55978,24.76818,3.6798899173736572
1617796456.5754,38.78302,3.695510149002075
1617796456.59103,53.41169,3.7111399173736572
1617796456.60665,68.95827,3.726760149002075
1617796456.62228,85.33224,3.7423899173736572
1617796456.6379,101.9921,3.758010149002075
1617796456.65353,118.1237,3.7736399173736572
1617796456.66916,132.8857,3.7892699241638184
1617796456.68478,145.6226,3.8048899173736572
1617796456.70041,155.9216,3.8205199241638184
1617796456.71603,163.5795,3.8361399173736572
1617796456.73166,168.5126,3.8517699241638184
1617796456.74728,170.6965,3.8673899173736572
1617796456.76291,170.1693,3.8830199241638184
1617796456.77854,167.0146,3.8986499309539795
1617796456.79416,161.3677,3.9142699241638184
1617796456.80979,153.4149,3.9298999309539795
1617796456.82541,143.3831,3.9455199241638184
1617796456.84104,131.5535,3.9611499309539795
1617796456.85666,118.2464,3.9767699241638184
1617796456.87229,103.8643,3.9923999309539795
1617796456.88792,88.84831,4.008029937744141
1617796456.90354,73.68569,4.0236499309539795
1617796456.91917,58.8088,4.039279937744141
1617796456.93479,44.48493,4.0548999309539795
1617796456.95042,30.6226,4.070529937744141
1617796456.96604,16.71778,4.0861499309539795
1617796456.98167,1.925888,4.101779937744141
1617796456.9973,-14.68102,4.117409944534302
1617796457.01292,-33.60636,4.133029937744141
1617796457.02855,-54.61183,4.148659944534302
1617796457.04417,-76.6467,4.164279937744141
1617796457.0598,-98.17204,4.179909944534302
1617796457.07543,-117.7781,4.195539951324463
1617796457.09105,-134.7258,4.211159944534302
1617796457.10668,-149.235,4.226789951324463
1617796457.1223,-162.271,4.242409944534302
1617796457.13793,-175.0487,4.258039951324463
1617796457.15355,-188.4265,4.273659944534302
1617796457.16918,-202.6036,4.289289951324463
1617796457.18481,-217.1508,4.304919958114624
1617796457.20043,-231.3756,4.320539951324463
1617796457.21606,-244.7222,4.336169958114624
1617796457.23168,-257.0123,4.351789951324463
1617796457.24731,-268.3763,4.367419958114624
1617796457.26293,-278.9539,4.383039951324463
1617796457.27856,-288.5192,4.398669958114624
1617796457.29419,-296.2516,4.414299964904785
1617796457.30981,-300.759,4.429919958114624
1617796457.32544,-300.4453,4.445549964904785
1617796457.34106,-293.9895,4.461169958114624
1617796457.35669,-280.8374,4.476799964904785
1617796457.37231,-261.4617,4.492419958114624
1617796457.38794,-237.2682,4.508049964904785
1617796457.40357,-210.1577,4.523679971694946
1617796457.41919,-182.02,4.539299964904785
1617796457.43482,-154.1881,4.554929971694946
1617796457.45044,-127.2625,4.570549964904785
1617796457.46607,-101.1936,4.586179971694946
1617796457.48169,-75.55802,4.601799964904785
1617796457.49732,-49.83117,4.617429971694946
1617796457.51295,-23.58481,4.633059978485107
1617796457.52857,3.326527,4.648679971694946
1617796457.5442,30.55807,4.664309978485107
1617796457.55982,57.01536,4.679929971694946
1617796457.57545,80.84087,4.695559978485107
1617796457.59107,99.85882,4.711179971694946
1617796457.6067,112.4829,4.726809978485107
1617796457.62233,118.6718,4.7424399852752686
1617796457.63795,120.304,4.758059978485107
1617796457.65358,120.5557,4.7736899852752686
1617796457.6692,122.4298,4.789309978485107
1617796457.68483,127.315,4.8049399852752686
1617796457.70045,134.3651,4.820559978485107
1617796457.71608,141.1423,4.8361899852752686
1617796457.73171,145.0862,4.85181999206543
1617796457.74733,144.8812,4.8674399852752686
1617796457.76296,140.9413,4.88306999206543
1617796457.77858,134.8345,4.8986899852752686
1617796457.79421,128.1951,4.91431999206543
1617796457.80983,121.8422,4.9299399852752686
1617796457.82546,115.6652,4.94556999206543
1617796457.84109,109.1132,4.961199998855591
1617796457.85671,101.8524,4.97681999206543
1617796457.87234,94.05533,4.992449998855591
1617796457.88796,86.2843,5.00806999206543
1617796457.90359,79.10274,5.023699998855591
1617796457.91921,72.78078,5.03931999206543
1617796457.93484,67.24554,5.054949998855591
1617796457.95047,62.25613,5.070580005645752
1617796457.96609,57.56303,5.086199998855591
1617796457.98172,52.94664,5.101830005645752
1617796457.99734,48.26169,5.117449998855591
1617796458.01297,43.40848,5.133080005645752
1617796458.02859,38.38834,5.148699998855591
1617796458.04422,33.34494,5.164330005645752
1617796458.05985,28.52405,5.179960012435913
1617796458.07547,24.20856,5.195580005645752
1617796458.0911,20.6275,5.211210012435913
1617796458.10672,17.82919,5.226830005645752
1617796458.12235,15.72678,5.242460012435913
1617796458.13797,14.14645,5.258080005645752
1617796458.1536,12.91803,5.273710012435913
1617796458.16923,11.91656,5.289340019226074
1617796458.18485,11.12561,5.304960012435913
1617796458.20048,10.56161,5.320590019226074
1617796458.2161,10.24402,5.336210012435913
1617796458.23173,10.18231,5.351840019226074
1617796458.24735,10.38309,5.367460012435913
1617796458.26298,10.87595,5.383090019226074
1617796458.27861,11.68265,5.398720026016235
1617796458.29423,12.79813,5.414340019226074
1617796458.30986,14.09836,5.429970026016235
1617796458.32548,15.3443,5.445590019226074
1617796458.34111,16.25058,5.461220026016235
1617796458.35673,16.59293,5.476840019226074
1617796458.37236,16.30707,5.492470026016235
1617796458.38799,15.51477,5.5081000328063965
1617796458.40361,14.45673,5.523720026016235
1617796458.41924,13.40988,5.5393500328063965
1617796458.43486,12.55701,5.554970026016235
1617796458.45049,12.00192,5.5706000328063965
1617796458.46611,11.7453,5.586220026016235
1617796458.48174,11.72318,5.6018500328063965
1617796458.49737,11.81293,5.617480039596558
1617796458.51299,11.82892,5.6331000328063965
1617796458.52862,11.58185,5.648730039596558
1617796458.54424,10.91312,5.6643500328063965
1617796458.55987,9.797729,5.679980039596558
1617796458.57549,8.425018,5.6956000328063965
1617796458.59112,7.137787,5.711230039596558
1617796458.60675,6.285919,5.726860046386719
1617796458.62237,6.092102,5.742480039596558
1617796458.638,6.548889,5.758110046386719
1617796458.65362,7.423096,5.773730039596558
1617796458.66925,8.439514,5.789360046386719
1617796458.68487,9.448944,5.804980039596558
1617796458.7005,10.50406,5.820610046386719
1617796458.71613,11.8353,5.83624005317688
1617796458.73175,13.65524,5.851860046386719
1617796458.74738,16.00473,5.86749005317688
1617796458.763,18.63354,5.883110046386719
1617796458.77863,21.10977,5.89874005317688
1617796458.79425,22.8999,5.914360046386719
1617796458.80988,23.62704,5.92999005317688
1617796458.82551,23.18494,5.945620059967041
1617796458.84113,21.81808,5.96124005317688
1617796458.85676,20.02835,5.976870059967041
1617796458.87238,18.48978,5.99249005317688
1617796458.88801,17.77737,6.008120059967041
1617796458.90363,18.19342,6.02374005317688
1617796458.91926,19.6315,6.039370059967041
1617796458.93489,21.55084,6.055000066757202
1617796458.95051,23.11044,6.070620059967041
1617796458.96614,23.2486,6.086250066757202
1617796458.98176,20.94171,6.101870059967041
1617796458.99739,15.43692,6.117500066757202
1617796459.01301,6.607391,6.133120059967041
1617796459.02864,-4.873596,6.148750066757202
1617796459.04427,-17.51666,6.164380073547363
1617796459.05989,-29.35861,6.180000066757202
1617796459.07552,-38.51877,6.195630073547363
1617796459.09114,-43.78082,6.211250066757202
1617796459.10677,-44.87827,6.226880073547363
1617796459.12239,-42.37097,6.242500066757202
1617796459.13802,-37.27325,6.258130073547363
1617796459.15365,-30.55145,6.273760080337524
1617796459.16927,-22.98059,6.289380073547363
1617796459.1849,-15.17673,6.305010080337524
1617796459.20052,-7.845795,6.320630073547363
1617796459.21615,-1.862671,6.336260080337524
1617796459.23178,1.947113,6.3518900871276855
1617796459.2474,3.121674,6.367510080337524
1617796459.26303,1.865021,6.3831400871276855
1617796459.27865,-0.9385986,6.398760080337524
1617796459.29428,-4.108368,6.4143900871276855
1617796459.3099,-6.596466,6.430010080337524
1617796459.32553,-7.842224,6.4456400871276855
1617796459.34116,-7.795929,6.461270093917847
1617796459.35678,-6.775238,6.4768900871276855
1617796459.37241,-5.103516,6.492520093917847
1617796459.38803,-2.92865,6.5081400871276855
1617796459.40366,-0.1988525,6.523770093917847
1617796459.41928,3.140839,6.5393900871276855
1617796459.43491,6.981934,6.555020093917847
1617796459.45054,10.95166,6.570650100708008
1617796459.46616,14.46848,6.586270093917847
1617796459.48179,16.99207,6.601900100708008
1617796459.49741,18.22177,6.617520093917847
1617796459.51304,18.20889,6.633150100708008
1617796459.52866,17.31107,6.648770093917847
1617796459.54429,15.96457,6.664400100708008
1617796459.55992,14.46179,6.680030107498169
1617796459.57554,12.87372,6.695650100708008
1617796459.59117,11.04538,6.711280107498169
1617796459.60679,8.776489,6.726900100708008
1617796459.62242,5.973206,6.742530107498169
1617796459.63804,2.684692,6.758150100708008
1617796459.65367,-0.9347229,6.773780107498169
1617796459.6693,-4.677185,6.78941011428833
1617796459.68492,-8.401703,6.805030107498169
1617796459.70055,-12.01947,6.82066011428833
1617796459.71617,-15.49469,6.836280107498169
1617796459.7318,-18.85345,6.85191011428833
1617796459.74742,-22.19351,6.867530107498169
1617796459.76305,-25.72437,6.88316011428833
1617796459.77868,-29.72888,6.898790121078491
1617796459.7943,-34.51303,6.91441011428833
1617796459.80993,-40.16138,6.930040121078491
1617796459.82555,-46.42743,6.94566011428833
1617796459.84118,-52.6098,6.961290121078491
1617796459.8568,-57.6861,6.97691011428833
1617796459.87243,-60.51709,6.992540121078491
1617796459.88806,-60.15952,7.008170127868652
1617796459.90368,-56.12225,7.023790121078491
1617796459.91931,-48.51733,7.039420127868652
1617796459.93493,-38.02234,7.055040121078491
1617796459.95056,-25.70624,7.070670127868652
1617796459.96618,-12.82809,7.086290121078491
1617796459.98181,-0.5477905,7.101920127868652
1617796459.99744,10.27676,7.1175501346588135
1617796460.01306,19.15485,7.133170127868652
1617796460.02869,25.97546,7.1488001346588135
1617796460.04431,30.83215,7.164420127868652
1617796460.05994,33.9519,7.1800501346588135
1617796460.07556,35.58887,7.195670127868652
1617796460.09119,35.99896,7.2113001346588135
1617796460.10682,35.4231,7.226930141448975
1617796460.12244,34.10889,7.2425501346588135
1617796460.13807,32.30048,7.258180141448975
1617796460.15369,30.21466,7.2738001346588135
1617796460.16932,28.07678,7.289430141448975
1617796460.18494,26.08759,7.3050501346588135
1617796460.20057,24.43866,7.320680141448975
1617796460.2162,23.3241,7.336310148239136
1617796460.23182,22.85101,7.351930141448975
1617796460.24745,23.01001,7.367560148239136
1617796460.26307,23.67468,7.383180141448975
1617796460.2787,24.65186,7.398810148239136
1617796460.29432,25.74396,7.414430141448975
1617796460.30995,26.79053,7.430060148239136
1617796460.32558,27.69678,7.445689916610718
1617796460.3412,28.38831,7.461310148239136
1617796460.35683,28.78821,7.476939916610718
1617796460.37245,28.78162,7.492560148239136
1617796460.38808,28.25885,7.508189916610718
1617796460.4037,27.11877,7.523810148239136
1617796460.41933,25.28302,7.539439916610718
1617796460.43496,22.64606,7.555069923400879
1617796460.45058,19.15088,7.570689916610718
1617796460.46621,14.78198,7.586319923400879
1617796460.48183,9.670532,7.601939916610718
1617796460.49746,4.129761,7.617569923400879
1617796460.51308,-1.403076,7.633189916610718
1617796460.52871,-6.474548,7.648819923400879
1617796460.54434,-10.79327,7.66444993019104
1617796460.55996,-14.36407,7.680069923400879
1617796460.57559,-17.52087,7.69569993019104
1617796460.59121,-20.82306,7.711319923400879
1617796460.60684,-24.82751,7.72694993019104
1617796460.62246,-29.84253,7.742569923400879
1617796460.63809,-35.71814,7.75819993019104
1617796460.65372,-41.78564,7.773829936981201
1617796460.66934,-46.93689,7.78944993019104
1617796460.68497,-49.94324,7.805079936981201
1617796460.70059,-49.77777,7.82069993019104
1617796460.71622,-45.97314,7.836329936981201
1617796460.73184,-38.69116,7.85194993019104
1617796460.74747,-28.7301,7.867579936981201
1617796460.7631,-17.22284,7.883209943771362
1617796460.77872,-5.345276,7.898829936981201
1617796460.79435,5.914124,7.914459943771362
1617796460.80997,15.89624,7.930079936981201
1617796460.8256,24.21661,7.945709943771362
1617796460.84122,30.71344,7.961329936981201
1617796460.85685,35.33459,7.976959943771362
1617796460.87248,38.11328,7.992589950561523
1617796460.8881,39.17291,8.008209943771362
1617796460.90373,38.7464,8.023839950561523
1617796460.91935,37.19855,8.039459943771362
1617796460.93498,34.96002,8.055089950561523
1617796460.9506,32.46661,8.070709943771362
1617796460.96623,30.03925,8.086339950561523
1617796460.98186,27.87164,8.101969957351685
1617796460.99748,26.01917,8.117589950561523
1617796461.01311,24.47736,8.133219957351685
1617796461.02873,23.24091,8.148839950561523
1617796461.04436,22.38397,8.164469957351685
1617796461.05998,22.01898,8.180089950561523
1617796461.07561,22.22675,8.195719957351685
1617796461.09124,22.98206,8.211349964141846
1617796461.10686,24.11035,8.226969957351685
1617796461.12249,25.31158,8.242599964141846
1617796461.13811,26.23645,8.258219957351685
1617796461.15374,26.54346,8.273849964141846
1617796461.16936,25.96906,8.289469957351685
1617796461.18499,24.396,8.305099964141846
1617796461.20062,21.86829,8.320729970932007
1617796461.21624,18.57031,8.336349964141846
1617796461.23187,14.80267,8.351979970932007
1617796461.24749,10.84882,8.367599964141846
1617796461.26312,6.912292,8.383229970932007
1617796461.27874,3.086243,8.398849964141846
1617796461.29437,-0.663147,8.414479970932007
1617796461.31,-4.388245,8.430109977722168
1617796461.32562,-8.146057,8.445729970932007
1617796461.34125,-11.99207,8.461359977722168
1617796461.35687,-16.01422,8.476979970932007
1617796461.3725,-20.41144,8.492609977722168
1617796461.38812,-25.3786,8.508229970932007
1617796461.40375,-30.97693,8.523859977722168
1617796461.41938,-36.92261,8.539489984512329
1617796461.435,-42.51868,8.555109977722168
1617796461.45063,-46.70453,8.570739984512329
1617796461.46625,-48.35706,8.586359977722168
1617796461.48188,-46.64587,8.601989984512329
1617796461.4975,-41.29547,8.617609977722168
1617796461.51313,-32.67627,8.633239984512329
1617796461.52876,-21.71216,8.64886999130249
1617796461.54438,-9.618225,8.664489984512329
1617796461.56001,2.375916,8.68011999130249
1617796461.57563,13.26508,8.695739984512329
1617796461.59126,22.38184,8.71136999130249
1617796461.60688,29.41595,8.726989984512329
1617796461.62251,34.31427,8.74261999130249
1617796461.63814,37.23706,8.758249998092651
1617796461.65376,38.39026,8.77386999130249
1617796461.66939,38.00769,8.789499998092651
1617796461.68501,36.31903,8.80511999130249
1617796461.70064,33.61444,8.820749998092651
1617796461.71626,30.22571,8.83636999130249
1617796461.73189,26.54767,8.851999998092651
1617796461.74752,22.9856,8.867630004882812
1617796461.76314,19.8811,8.883249998092651
1617796461.77877,17.4682,8.898880004882812
1617796461.79439,15.8302,8.914499998092651
1617796461.81002,14.95721,8.930130004882812
1617796461.82564,14.73138,8.945749998092651
1617796461.84127,14.97949,8.961380004882812
1617796461.8569,15.48145,8.977010011672974
1617796461.87252,15.98914,8.992630004882812
1617796461.88815,16.29187,9.008260011672974
1617796461.90377,16.22467,9.023880004882812
1617796461.9194,15.72772,9.039510011672974
1617796461.93503,14.79529,9.055140018463135
1617796461.95065,13.41388,9.070760011672974
1617796461.96628,11.5401,9.086390018463135
1617796461.9819,9.08844,9.102010011672974
1617796461.99753,5.969299,9.117640018463135
1617796462.01315,2.195313,9.133260011672974
1617796462.02878,-2.09137,9.148890018463135
1617796462.04441,-6.639038,9.164520025253296
1617796462.06003,-11.13147,9.180140018463135
1617796462.07566,-15.31848,9.195770025253296
1617796462.09128,-19.11914,9.211390018463135
1617796462.10691,-22.64685,9.227020025253296
1617796462.12253,-26.21545,9.242640018463135
1617796462.13816,-30.21307,9.258270025253296
1617796462.15379,-34.9754,9.273900032043457
1617796462.16941,-40.55963,9.289520025253296
1617796462.18504,-46.61993,9.305150032043457
1617796462.20066,-52.29724,9.320770025253296
1617796462.21629,-56.39343,9.336400032043457
1617796462.23191,-57.64417,9.352020025253296
1617796462.24754,-55.12579,9.367650032043457
1617796462.26317,-48.58621,9.383280038833618
1617796462.27879,-38.58099,9.398900032043457
1617796462.29442,-26.3125,9.414530038833618
1617796462.31004,-13.29028,9.430150032043457
1617796462.32567,-0.9337769,9.445780038833618
1617796462.34129,9.763062,9.461400032043457
1617796462.35692,18.34143,9.477030038833618
1617796462.37255,24.79816,9.49266004562378
1617796462.38817,29.4007,9.508280038833618
1617796462.4038,32.47284,9.52391004562378
1617796462.41942,34.30316,9.539530038833618
1617796462.43505,35.0575,9.55516004562378
1617796462.45067,34.83209,9.570780038833618
1617796462.4663,33.70197,9.58641004562378
1617796462.48193,31.80463,9.60204005241394
1617796462.49755,29.32715,9.61766004562378
1617796462.51318,26.54944,9.63329005241394
1617796462.5288,23.78906,9.64891004562378
1617796462.54443,21.34082,9.66454005241394
1617796462.56005,19.44824,9.68016004562378
1617796462.57568,18.25653,9.69579005241394
1617796462.59131,17.82617,9.711420059204102
1617796462.60693,18.08612,9.72704005241394
1617796462.62256,18.87494,9.742670059204102
1617796462.63818,19.91437,9.75829005241394
1617796462.65381,20.86371,9.773920059204102
1617796462.66943,21.38806,9.78954005241394
1617796462.68506,21.24429,9.805170059204102
1617796462.70069,20.35358,9.820800065994263
1617796462.71631,18.77704,9.836420059204102
1617796462.73194,16.66473,9.852050065994263
1617796462.74756,14.16476,9.867670059204102
1617796462.76319,11.34973,9.883300065994263
1617796462.77881,8.196716,9.898920059204102
1617796462.79444,4.652374,9.914550065994263
1617796462.81007,0.7081604,9.930180072784424
1617796462.82569,-3.539124,9.945800065994263
1617796462.84132,-7.883392,9.961430072784424
1617796462.85694,-12.07956,9.977050065994263
1617796462.87257,-15.95724,9.992680072784424
1617796462.88819,-19.52884,10.008300065994263
1617796462.90382,-23.02982,10.023930072784424
1617796462.91945,-26.85123,10.039560079574585
1617796462.93507,-31.40472,10.055180072784424
1617796462.9507,-36.95493,10.070810079574585
1617796462.96632,-43.4566,10.086430072784424
1617796462.98195,-50.38385,10.102060079574585
1617796462.99757,-56.77155,10.117680072784424
1617796463.0132,-61.32504,10.133310079574585
1617796463.02883,-62.7272,10.148940086364746
1617796463.04445,-60.03668,10.164560079574585
1617796463.06008,-52.99261,10.180190086364746
1617796463.0757,-42.18332,10.195810079574585
1617796463.09133,-28.9321,10.211440086364746
1617796463.10695,-14.92163,10.227060079574585
1617796463.12258,-1.715332,10.242690086364746
1617796463.13821,9.598724,10.258320093154907
1617796463.15383,18.58597,10.273940086364746
1617796463.16946,25.34116,10.289570093154907
1617796463.18508,30.22757,10.305190086364746
1617796463.20071,33.62302,10.320820093154907
1617796463.21633,35.76913,10.336440086364746
1617796463.23196,36.77777,10.352070093154907
1617796463.24759,36.74228,10.367700099945068
1617796463.26321,35.82568,10.383320093154907
1617796463.27884,34.24319,10.398950099945068
1617796463.29446,32.25797,10.414570093154907
1617796463.31009,30.07819,10.430200099945068
1617796463.32571,27.83374,10.445820093154907
1617796463.34134,25.59036,10.461450099945068
1617796463.35697,23.42459,10.47708010673523
1617796463.37259,21.49844,10.492700099945068
1617796463.38822,20.0563,10.50833010673523
1617796463.40384,19.3689,10.523950099945068
1617796463.41947,19.56183,10.53958010673523
1617796463.43509,20.50934,10.555200099945068
1617796463.45072,21.7944,10.57083010673523
1617796463.46635,22.82254,10.58646011352539
1617796463.48197,23.0643,10.60208010673523
1617796463.4976,22.27029,10.61771011352539
1617796463.51322,20.53513,10.63333010673523
1617796463.52885,18.23935,10.64896011352539
1617796463.54447,15.82202,10.66458010673523
1617796463.5601,13.5816,10.68021011352539
1617796463.57573,11.5874,10.695840120315552
1617796463.59135,9.652893,10.71146011352539
1617796463.60698,7.487,10.727090120315552
1617796463.6226,4.813416,10.74271011352539
1617796463.63823,1.472015,10.758340120315552
1617796463.65385,-2.499329,10.77396011352539
1617796463.66948,-6.912476,10.789590120315552
1617796463.68511,-11.44183,10.805220127105713
1617796463.70073,-15.76505,10.820840120315552
1617796463.71636,-19.63348,10.836470127105713
1617796463.73198,-22.97928,10.852090120315552
1617796463.74761,-25.99438,10.867720127105713
1617796463.76323,-29.07001,10.883340120315552
1617796463.77886,-32.71078,10.898970127105713
1617796463.79449,-37.32013,10.914600133895874
1617796463.81011,-42.9906,10.930220127105713
1617796463.82574,-49.31741,10.945850133895874
1617796463.84136,-55.37949,10.961470127105713
1617796463.85699,-59.85516,10.977100133895874
1617796463.87261,-61.38824,10.992720127105713
1617796463.88824,-58.99832,11.008350133895874
1617796463.90387,-52.36813,11.023980140686035
1617796463.91949,-42.05527,11.039600133895874
1617796463.93512,-29.29089,11.055230140686035
1617796463.95074,-15.63864,11.070850133895874
1617796463.96637,-2.569611,11.086480140686035
1617796463.98199,8.849945,11.102100133895874
1617796463.99762,18.08655,11.117730140686035
1617796464.01325,25.05997,11.133360147476196
1617796464.02887,29.98053,11.148980140686035
1617796464.0445,33.16315,11.164610147476196
1617796464.06012,34.89862,11.180230140686035
1617796464.07575,35.42981,11.195860147476196
1617796464.09138,34.9516,11.211489915847778
1617796464.107,33.6759,11.227110147476196
1617796464.12263,31.82962,11.242739915847778
1617796464.13825,29.63803,11.258360147476196
1617796464.15388,27.2915,11.273989915847778
1617796464.1695,24.8895,11.289610147476196
1617796464.18513,22.51157,11.305239915847778
1617796464.20076,20.26749,11.32086992263794
1617796464.21638,18.34293,11.336489915847778
1617796464.23201,17.0253,11.35211992263794
1617796464.24763,16.56482,11.367739915847778
1617796464.26326,17.0217,11.38336992263794
1617796464.27888,18.17953,11.398989915847778
1617796464.29451,19.55634,11.41461992263794
1617796464.31014,20.58792,11.4302499294281
1617796464.32576,20.78824,11.44586992263794
1617796464.34139,19.97177,11.4614999294281
1617796464.35701,18.22165,11.47711992263794
1617796464.37264,15.86475,11.4927499294281
1617796464.38826,13.26968,11.50836992263794
1617796464.40389,10.74042,11.5239999294281
1617796464.41952,8.406982,11.539629936218262
1617796464.43514,6.2229,11.5552499294281
1617796464.45077,3.971802,11.570879936218262
1617796464.46639,1.416656,11.5864999294281
1617796464.48202,-1.614105,11.602129936218262
1617796464.49764,-5.139008,11.6177499294281
1617796464.51327,-9.002625,11.633379936218262
1617796464.5289,-12.91519,11.649009943008423
1617796464.54452,-16.57983,11.664629936218262
1617796464.56015,-19.8226,11.680259943008423
1617796464.57577,-22.63672,11.695879936218262
1617796464.5914,-25.23172,11.711509943008423
1617796464.60702,-27.95328,11.727129936218262
1617796464.62265,-31.18271,11.742759943008423
1617796464.63828,-35.18481,11.758389949798584
1617796464.6539,-39.90982,11.774009943008423
1617796464.66953,-44.87872,11.789639949798584
1617796464.68515,-49.19,11.805259943008423
1617796464.70078,-51.6506,11.820889949798584
1617796464.7164,-51.15494,11.836509943008423
1617796464.73203,-47.04456,11.852139949798584
1617796464.74766,-39.38135,11.867769956588745
1617796464.76328,-28.94809,11.883389949798584
1617796464.77891,-17.02994,11.899019956588745
1617796464.79453,-5.002808,11.914639949798584
1617796464.81016,6.013763,11.930269956588745
1617796464.82578,15.35046,11.945889949798584
1617796464.84141,22.77029,11.961519956588745
1617796464.85704,28.3139,11.977149963378906
1617796464.87266,32.12494,11.992769956588745
1617796464.88829,34.3252,12.008399963378906
1617796464.90391,35.00974,12.024019956588745
1617796464.91954,34.33127,12.039649963378906
1617796464.93516,32.5195,12.055269956588745
1617796464.95079,29.93457,12.070899963378906
1617796464.96642,26.96292,12.086529970169067
1617796464.98204,23.96408,12.102149963378906
1617796464.99767,21.18059,12.117779970169067
1617796465.01329,18.72006,12.133399963378906
1617796465.02892,16.57268,12.149029970169067
1617796465.04454,14.71901,12.164649963378906
1617796465.06017,13.17317,12.180279970169067
1617796465.0758,12.0204,12.195909976959229
1617796465.09142,11.40628,12.211529970169067
1617796465.10705,11.44427,12.227159976959229
1617796465.12267,12.14401,12.242779970169067
1617796465.1383,13.30524,12.258409976959229
1617796465.15392,14.56578,12.274029970169067
1617796465.16955,15.44456,12.289659976959229
1617796465.18518,15.51529,12.30528998374939
1617796465.2008,14.56511,12.320909976959229
1617796465.21643,12.66129,12.33653998374939
1617796465.23205,10.16867,12.352159976959229
1617796465.24768,7.537186,12.36778998374939
1617796465.2633,5.107162,12.383409976959229
1617796465.27893,2.953918,12.39903998374939
1617796465.29456,0.8618927,12.41466999053955
1617796465.31018,-1.529892,12.43028998374939
1617796465.32581,-4.533569,12.44591999053955
1617796465.34143,-8.200272,12.46153998374939
1617796465.35706,-12.32802,12.47716999053955
1617796465.37268,-16.55397,12.49278998374939
1617796465.38831,-20.48924,12.50841999053955
1617796465.40394,-23.93596,12.524049997329712
1617796465.41956,-26.89294,12.53966999053955
1617796465.43519,-29.55945,12.555299997329712
1617796465.45081,-32.22516,12.57091999053955
1617796465.46644,-35.19334,12.586549997329712
1617796465.48206,-38.71936,12.60216999053955
1617796465.49769,-42.97575,12.617799997329712
1617796465.51332,-47.93326,12.633430004119873
1617796465.52894,-53.26385,12.649049997329712
1617796465.54457,-58.22586,12.664680004119873
1617796465.56019,-61.68605,12.680299997329712
1617796465.57582,-62.36742,12.695930004119873
1617796465.59144,-59.24301,12.711549997329712
1617796465.60707,-51.94044,12.727180004119873
1617796465.6227,-41.00188,12.742810010910034
1617796465.63832,-27.76526,12.758430004119873
1617796465.65395,-13.9447,12.774060010910034
1617796465.66957,-1.122147,12.789680004119873
1617796465.6852,9.682022,12.805310010910034
1617796465.70082,18.14696,12.820930004119873
1617796465.71645,24.4463,12.836560010910034
1617796465.73208,28.94864,12.852190017700195
1617796465.7477,31.94128,12.867810010910034
1617796465.76333,33.53683,12.883440017700195
1617796465.77895,33.81277,12.899060010910034
1617796465.79458,32.95953,12.914690017700195
1617796465.8102,31.34312,12.930310010910034
1617796465.82583,29.39851,12.945940017700195
1617796465.84146,27.48042,12.961570024490356
1617796465.85708,25.69984,12.977190017700195
1617796465.87271,23.92979,12.992820024490356
1617796465.88833,21.9447,13.008440017700195
1617796465.90396,19.62985,13.024070024490356
1617796465.91958,17.12151,13.039690017700195
1617796465.93521,14.83659,13.055320024490356
1617796465.95084,13.26953,13.070950031280518
1617796465.96646,12.79521,13.086570024490356
1617796465.98209,13.44759,13.102200031280518
1617796465.99771,14.88643,13.117820024490356
1617796466.01334,16.48724,13.133450031280518
1617796466.02896,17.61441,13.149070024490356
1617796466.04459,17.81319,13.164700031280518
1617796466.06022,16.97568,13.180330038070679
1617796466.07584,15.29813,13.195950031280518
1617796466.09147,13.16236,13.211580038070679
1617796466.10709,10.93927,13.227200031280518
1617796466.12272,8.837112,13.242830038070679
1617796466.13834,6.875725,13.258450031280518
1617796466.15397,4.921539,13.274080038070679
1617796466.1696,2.815475,13.28971004486084
1617796466.18522,0.43367,13.305330038070679
1617796466.20085,-2.262421,13.32096004486084
1617796466.21647,-5.254768,13.336580038070679
1617796466.2321,-8.478508,13.35221004486084
1617796466.24772,-11.89849,13.367830038070679
1617796466.26335,-15.45367,13.38346004486084
1617796466.27898,-19.04194,13.399090051651001
1617796466.2946,-22.5449,13.41471004486084
1617796466.31023,-25.84229,13.430340051651001
1617796466.32585,-28.95391,13.44596004486084
1617796466.34148,-32.06223,13.461590051651001
1617796466.35711,-35.53045,13.477220058441162
1617796466.37273,-39.7237,13.492840051651001
1617796466.38836,-44.77513,13.508470058441162
1617796466.40398,-50.37598,13.524090051651001
1617796466.41961,-55.65267,13.539720058441162
1617796466.43523,-59.35157,13.555340051651001
1617796466.45086,-60.15185,13.570970058441162
1617796466.46649,-57.17024,13.586600065231323
1617796466.48211,-50.24309,13.602220058441162
1617796466.49774,-40.04575,13.617850065231323
1617796466.51336,-27.84858,13.633470058441162
1617796466.52899,-15.12324,13.649100065231323
1617796466.54461,-3.138557,13.664720058441162
1617796466.56024,7.312721,13.680350065231323
1617796466.57587,15.89428,13.695980072021484
1617796466.59149,22.63151,13.711600065231323
1617796466.60712,27.66577,13.727230072021484
1617796466.62274,31.13519,13.742850065231323
1617796466.63837,33.13855,13.758480072021484
1617796466.65399,33.78823,13.774100065231323
1617796466.66962,33.27003,13.789730072021484
1617796466.68525,31.84867,13.805360078811646
1617796466.70087,29.85387,13.820980072021484
1617796466.7165,27.57084,13.836610078811646
1617796466.73212,25.20914,13.852230072021484
1617796466.74775,22.85886,13.867860078811646
1617796466.76337,20.53406,13.883480072021484
1617796466.779,18.2523,13.899110078811646
1617796466.79463,16.10603,13.914740085601807
1617796466.81025,14.3131,13.930360078811646
1617796466.82588,13.11001,13.945990085601807
1617796466.8415,12.70956,13.961610078811646
1617796466.85713,13.12525,13.977240085601807
1617796466.87275,14.17382,13.992860078811646
1617796466.88838,15.45924,14.008490085601807
1617796466.90401,16.51438,14.024120092391968
1617796466.91963,16.97509,14.039740085601807
1617796466.93526,16.6454,14.055370092391968
1617796466.95088,15.57107,14.070990085601807
1617796466.96651,13.9464,14.086620092391968
1617796466.98213,12.04588,14.102240085601807
1617796466.99776,10.09194,14.117870092391968
1617796467.01339,8.221489,14.133500099182129
1617796467.02901,6.41375,14.149120092391968
1617796467.04464,4.554031,14.164750099182129
1617796467.06026,2.46352,14.180370092391968
1617796467.07589,-0.03198242,14.196000099182129
1617796467.09151,-3.005959,14.211620092391968
1617796467.10714,-6.391647,14.227250099182129
1617796467.12277,-9.989197,14.24288010597229
1617796467.13839,-13.54263,14.258500099182129
1617796467.15402,-16.81657,14.27413010597229
1617796467.16964,-19.68835,14.289750099182129
1617796467.18527,-22.21367,14.30538010597229
1617796467.20089,-24.60123,14.321000099182129
1617796467.21652,-27.1912,14.33663010597229
1617796467.23215,-30.33564,14.352260112762451
1617796467.24777,-34.30214,14.36788010597229
1617796467.2634,-39.09179,14.383510112762451
1617796467.27902,-44.34359,14.39913010597229
1617796467.29465,-49.30081,14.414760112762451
1617796467.31027,-52.87753,14.43038010597229
1617796467.3259,-53.97101,14.446010112762451
1617796467.34153,-51.76234,14.461640119552612
1617796467.35715,-46.01547,14.477260112762451
1617796467.37278,-37.16888,14.492890119552612
1617796467.3884,-26.25229,14.508510112762451
1617796467.40403,-14.54108,14.524140119552612
1617796467.41965,-3.270935,14.539760112762451
1617796467.43528,6.648609,14.555390119552612
1617796467.45091,14.71337,14.571020126342773
1617796467.46653,20.79728,14.586640119552612
1617796467.48216,25.00251,14.602270126342773
1617796467.49778,27.52282,14.617890119552612
1617796467.51341,28.59457,14.633520126342773
1617796467.52903,28.42134,14.649140119552612
1617796467.54466,27.23803,14.664770126342773
1617796467.56029,25.28408,14.680400133132935
1617796467.57591,22.79675,14.696020126342773
1617796467.59154,20.01599,14.711650133132935
1617796467.60716,17.18004,14.727270126342773
1617796467.62279,14.50822,14.742900133132935
1617796467.63841,12.20246,14.758520126342773
1617796467.65404,10.43297,14.774150133132935
1617796467.66967,9.303074,14.789780139923096
1617796467.68529,8.853491,14.805400133132935
1617796467.70092,9.070221,14.821030139923096
1617796467.71654,9.859717,14.836650133132935
1617796467.73217,11.04082,14.852280139923096
1617796467.74779,12.3494,14.867900133132935
1617796467.76342,13.44284,14.883530139923096
1617796467.77905,13.97247,14.899160146713257
1617796467.79467,13.68096,14.914780139923096
1617796467.8103,12.55101,14.930410146713257
1617796467.82592,10.77747,14.946030139923096
1617796467.84155,8.760728,14.961660146713257
1617796467.85717,6.890928,14.977280139923096
1617796467.8728,5.406773,14.992910146713257
1617796467.88843,4.245625,15.008540153503418
1617796467.90405,3.122568,15.024160146713257
1617796467.91968,1.675646,15.039790153503418
1617796467.9353,-0.3467417,15.055410146713257
1617796467.95093,-2.952259,15.071040153503418
1617796467.96655,-5.932008,15.086660146713257
1617796467.98218,-8.963649,15.102290153503418
1617796467.99781,-11.76229,15.117919921875
1617796468.01343,-14.17561,15.133540153503418
1617796468.02906,-16.25354,15.149169921875
1617796468.04468,-18.19535,15.164790153503418
1617796468.06031,-20.2952,15.180419921875
1617796468.07593,-22.89077,15.196040153503418
1617796468.09156,-26.1783,15.211669921875
1617796468.10719,-30.13223,15.227299928665161
1617796468.12281,-34.39082,15.242919921875
1617796468.13844,-38.22947,15.258549928665161
1617796468.15406,-40.71797,15.274169921875
1617796468.16969,-40.92228,15.289799928665161
1617796468.18531,-38.22857,15.305419921875
1617796468.20094,-32.50745,15.321049928665161
1617796468.21657,-24.24848,15.336679935455322
1617796468.23219,-14.38278,15.352299928665161
1617796468.24782,-4.076026,15.367929935455322
1617796468.26344,5.595856,15.383549928665161
1617796468.27907,13.8437,15.399179935455322
1617796468.29469,20.31203,15.414799928665161
1617796468.31032,24.99622,15.430429935455322
1617796468.32595,28.11055,15.446059942245483
1617796468.34157,29.89928,15.461679935455322
1617796468.3572,30.51458,15.477309942245483
1617796468.37282,30.03642,15.492929935455322
1617796468.38845,28.50078,15.508559942245483
1617796468.40407,26.04559,15.524179935455322
1617796468.4197,22.94027,15.539809942245483
1617796468.43533,19.5702,15.555439949035645
1617796468.45095,16.3263,15.571059942245483
1617796468.46658,13.47916,15.586689949035645
1617796468.4822,11.14674,15.602309942245483
1617796468.49783,9.293112,15.617939949035645
1617796468.51345,7.842329,15.633559942245483
1617796468.52908,6.746826,15.649189949035645
1617796468.54471,5.998716,15.664819955825806
1617796468.56033,5.606092,15.680439949035645
1617796468.57596,5.488197,15.696069955825806
1617796468.59158,5.495268,15.711689949035645
1617796468.60721,5.416634,15.727319955825806
1617796468.62283,5.086578,15.742939949035645
1617796468.63846,4.373516,15.758569955825806
1617796468.65409,3.240192,15.774199962615967
1617796468.66971,1.66568,15.789819955825806
1617796468.68534,-0.3774757,15.805449962615967
1617796468.70096,-2.886555,15.821069955825806
1617796468.71659,-5.834747,15.836699962615967
1617796468.73221,-9.043049,15.852319955825806
1617796468.74784,-12.24131,15.867949962615967
1617796468.76347,-15.11148,15.883579969406128
1617796468.77909,-17.44761,15.899199962615967
1617796468.79472,-19.24068,15.914829969406128
1617796468.81034,-20.70578,15.930449962615967
1617796468.82597,-22.17565,15.946079969406128
1617796468.84159,-23.95885,15.961699962615967
1617796468.85722,-26.19336,15.977329969406128
1617796468.87285,-28.73246,15.992959976196289
1617796468.88847,-31.15983,16.008579969406128
1617796468.9041,-32.82608,16.02420997619629
1617796468.91972,-32.98068,16.039829969406128
1617796468.93535,-30.90413,16.05545997619629
1617796468.95098,-26.03801,16.07108998298645
1617796468.9666,-18.15837,16.08670997619629
1617796468.98223,-7.395493,16.10233998298645
1617796468.99785,5.758698,16.11795997619629
1617796469.01348,20.57278,16.13358998298645
1617796469.0291,36.28645,16.14920997619629
1617796469.04473,52.30939,16.16483998298645
1617796469.06036,68.38858,16.18046998977661
1617796469.07598,84.62912,16.19608998298645
1617796469.09161,101.3358,16.21171998977661
1617796469.10723,118.7362,16.22733998298645
1617796469.12286,136.7407,16.24296998977661
1617796469.13848,154.7444,16.25858998298645
1617796469.15411,171.6945,16.27421998977661
1617796469.16974,186.3323,16.289849996566772
1617796469.18536,197.5553,16.30546998977661
1617796469.20099,204.7536,16.321099996566772
1617796469.21661,207.9343,16.33671998977661
1617796469.23224,207.5687,16.352349996566772
1617796469.24786,204.2684,16.36796998977661
1617796469.26349,198.5224,16.383599996566772
1617796469.27912,190.5297,16.399230003356934
1617796469.29474,180.3839,16.414849996566772
1617796469.31037,168.2913,16.430480003356934
1617796469.32599,154.8117,16.446099996566772
1617796469.34162,140.8721,16.461730003356934
1617796469.35724,127.6153,16.477349996566772
1617796469.37287,116.1128,16.492980003356934
1617796469.3885,107.097,16.508610010147095
1617796469.40412,100.904,16.524230003356934
1617796469.41975,97.42566,16.539860010147095
1617796469.43537,96.23267,16.555480003356934
1617796469.451,96.67661,16.571110010147095
1617796469.46662,97.99356,16.586730003356934
1617796469.48225,99.46136,16.602360010147095
1617796469.49788,100.5934,16.617990016937256
1617796469.5135,101.3202,16.633610010147095
1617796469.52913,101.9953,16.649240016937256
1617796469.54475,103.2564,16.664860010147095
1617796469.56038,105.5536,16.680490016937256
1617796469.576,108.821,16.696110010147095
1617796469.59163,112.2885,16.711740016937256
1617796469.60726,114.6057,16.727370023727417
1617796469.62288,114.3182,16.742990016937256
1617796469.63851,110.4101,16.758620023727417
1617796469.65413,102.658,16.774240016937256
1617796469.66976,91.46301,16.789870023727417
1617796469.68538,77.6416,16.805490016937256
1617796469.70101,61.73779,16.821120023727417
1617796469.71664,43.66858,16.836750030517578
1617796469.73226,22.55774,16.852370023727417
1617796469.74789,-3.206543,16.868000030517578
1617796469.76351,-35.88947,16.883620023727417
1617796469.77914,-78.19171,16.899250030517578
1617796469.79476,-132.5216,16.914870023727417
1617796469.81039,-199.6633,16.930500030517578
1617796469.82602,-277.2075,16.94613003730774
1617796469.84164,-358.6519,16.961750030517578
1617796469.85727,-434.1465,16.97738003730774
1617796469.87289,-492.9896,16.993000030517578
1617796469.88852,-526.994,17.00863003730774
1617796469.90414,-533.1414,17.024250030517578
1617796469.91977,-514.185,17.03988003730774
1617796469.9354,-477.1611,17.0555100440979
1617796469.95102,-430.5343,17.07113003730774
1617796469.96665,-381.6063,17.0867600440979
1617796469.98227,-335.2034,17.10238003730774
1617796469.9979,-293.7781,17.1180100440979
1617796470.01352,-258.2849,17.13363003730774
1617796470.02915,-228.9177,17.1492600440979
1617796470.04478,-205.3716,17.16489005088806
1617796470.0604,-186.6948,17.1805100440979
1617796470.07603,-171.3665,17.19614005088806
1617796470.09165,-157.6534,17.2117600440979
1617796470.10728,-144.1899,17.22739005088806
1617796470.1229,-130.3793,17.2430100440979
1617796470.13853,-116.3702,17.25864005088806
1617796470.15416,-102.6852,17.274270057678223
1617796470.16978,-90.07526,17.28989005088806
1617796470.18541,-79.10211,17.305520057678223
1617796470.20103,-70.01782,17.32114005088806
1617796470.21666,-62.74371,17.336770057678223
1617796470.23228,-56.82892,17.35239005088806
1617796470.24791,-51.63971,17.368020057678223
1617796470.26354,-46.58075,17.383650064468384
1617796470.27916,-41.44464,17.399270057678223
1617796470.29479,-36.4563,17.414900064468384
1617796470.31041,-32.1936,17.430520057678223
1617796470.32604,-29.28125,17.446150064468384
1617796470.34166,-28.00415,17.461770057678223
1617796470.35729,-28.19073,17.477400064468384
1617796470.37292,-29.22491,17.493030071258545
1617796470.38854,-30.39093,17.508650064468384
1617796470.40417,-31.21637,17.524280071258545
1617796470.41979,-31.72864,17.539900064468384
1617796470.43542,-32.42841,17.555530071258545
1617796470.45104,-34.0578,17.571150064468384
1617796470.46667,-37.12372,17.586780071258545
1617796470.4823,-41.4646,17.602410078048706
1617796470.49792,-46.15265,17.618030071258545
1617796470.51355,-49.61395,17.633660078048706
1617796470.52917,-50.15161,17.649280071258545
1617796470.5448,-46.51855,17.664910078048706
1617796470.56042,-38.34979,17.680530071258545
1617796470.57605,-26.26752,17.696160078048706
1617796470.59168,-11.67096,17.711790084838867
1617796470.6073,3.703247,17.727410078048706
1617796470.62293,18.28174,17.743040084838867
1617796470.63855,30.93518,17.758660078048706
1617796470.65418,41.07025,17.774290084838867
1617796470.6698,48.58044,17.789910078048706
1617796470.68543,53.6109,17.805540084838867
1617796470.70106,56.44495,17.82117009162903
1617796470.71668,57.38403,17.836790084838867
1617796470.73231,56.7204,17.85242009162903
1617796470.74793,54.75763,17.868040084838867
1617796470.76356,51.85718,17.88367009162903
1617796470.77918,48.40625,17.899290084838867
1617796470.79481,44.84595,17.91492009162903
1617796470.81044,41.57446,17.93055009841919
1617796470.82606,38.91644,17.94617009162903
1617796470.84169,37.11029,17.96180009841919
1617796470.85731,36.24652,17.97742009162903
1617796470.87294,36.2937,17.99305009841919
1617796470.88856,37.08319,18.00867009162903
1617796470.90419,38.38702,18.02430009841919
1617796470.91982,39.90637,18.03993010520935
1617796470.93544,41.38644,18.05555009841919
1617796470.95107,42.58014,18.07118010520935
1617796470.96669,43.27289,18.08680009841919
1617796470.98232,43.2825,18.10243010520935
1617796470.99794,42.47995,18.11805009841919
1617796471.01357,40.80682,18.13368010520935
1617796471.0292,38.31454,18.14931011199951
1617796471.04482,35.17239,18.16493010520935
1617796471.06045,31.60583,18.18056011199951
1617796471.07607,27.87943,18.19618010520935
1617796471.0917,24.15793,18.21181011199951
1617796471.10732,20.45032,18.22743010520935
1617796471.12295,16.62396,18.24306011199951
1617796471.13858,12.45001,18.258690118789673
1617796471.1542,7.71344,18.27431011199951
1617796471.16983,2.350739,18.289940118789673
1617796471.18545,-3.498047,18.30556011199951
1617796471.20108,-9.50473,18.321190118789673
1617796471.21671,-15.25845,18.336820125579834
1617796471.23233,-20.40842,18.352440118789673
1617796471.24796,-24.79346,18.368070125579834
1617796471.26358,-28.53351,18.383690118789673
1617796471.27921,-31.99017,18.399320125579834
1617796471.29483,-35.69675,18.414940118789673
1617796471.31046,-40.18164,18.430570125579834
1617796471.32609,-45.82413,18.446200132369995
1617796471.34171,-52.67175,18.461820125579834
1617796471.35734,-60.2337,18.477450132369995
1617796471.37296,-67.47073,18.493070125579834
1617796471.38859,-72.89648,18.508700132369995
1617796471.40421,-74.91356,18.524320125579834
1617796471.41984,-72.30862,18.539950132369995
1617796471.43547,-64.65717,18.555580139160156
1617796471.45109,-52.50925,18.571200132369995
1617796471.46672,-37.24953,18.586830139160156
1617796471.48234,-20.68779,18.602450132369995
1617796471.49797,-4.541229,18.618080139160156
1617796471.51359,9.925842,18.633700132369995
1617796471.52922,22.05797,18.649330139160156
1617796471.54485,31.70665,18.664960145950317
1617796471.56047,39.01225,18.680580139160156
1617796471.5761,44.21419,18.696210145950317
1617796471.59172,47.53235,18.711830139160156
1617796471.60735,49.18578,18.727460145950317
1617796471.62297,49.38521,18.743080139160156
1617796471.6386,48.42774,18.758710145950317
1617796471.65423,46.66272,18.77434015274048
1617796471.66985,44.49392,18.789960145950317
1617796471.68548,42.2933,18.80559015274048
1617796471.7011,40.36613,18.821210145950317
1617796471.71673,38.91076,18.83684015274048
1617796471.73235,38.05503,18.852460145950317
1617796471.74798,37.88943,18.86809015274048
1617796471.76361,38.48061,18.88371992111206
1617796471.77923,39.88233,18.89934015274048
1617796471.79486,41.99463,18.91496992111206
1617796471.81048,44.58147,18.93059015274048
1617796471.82611,47.25073,18.94621992111206
1617796471.84173,49.54218,18.96184015274048
1617796471.85736,51.0539,18.97746992111206
1617796471.87299,51.54023,18.99309992790222
1617796471.88861,50.93919,19.00871992111206
1617796471.90424,49.32502,19.02434992790222
1617796471.91986,46.84994,19.03996992111206
1617796471.93549,43.7238,19.05559992790222
1617796471.95111,40.14346,19.07121992111206
1617796471.96674,36.34324,19.08684992790222
1617796471.98237,32.52132,19.102479934692383
1617796471.99799,28.80083,19.11809992790222
1617796472.01362,25.15318,19.133729934692383
1617796472.02924,21.44383,19.14934992790222
1617796472.04487,17.46425,19.164979934692383
1617796472.06049,13.08216,19.18059992790222
1617796472.07612,8.315056,19.196229934692383
1617796472.09175,3.349083,19.211859941482544
1617796472.10737,-1.519272,19.227479934692383
1617796472.123,-6.009644,19.243109941482544
1617796472.13862,-9.965057,19.258729934692383
1617796472.15425,-13.41634,19.274359941482544
1617796472.16987,-16.59837,19.289979934692383
1617796472.1855,-19.89227,19.305609941482544
1617796472.20113,-23.73024,19.321239948272705
1617796472.21675,-28.51675,19.336859941482544
1617796472.23238,-34.5322,19.352489948272705
1617796472.248,-41.79028,19.368109941482544
1617796472.26363,-49.87743,19.383739948272705
1617796472.27925,-57.85936,19.399359941482544
1617796472.29488,-64.31938,19.414989948272705
1617796472.31051,-67.64949,19.430619955062866
1617796472.32613,-66.49109,19.446239948272705
1617796472.34176,-60.18263,19.461869955062866
1617796472.35738,-49.06862,19.477489948272705
1617796472.37301,-34.40176,19.493119955062866
1617796472.38863,-17.9637,19.508739948272705
1617796472.40426,-1.547394,19.524369955062866
1617796472.41989,13.49661,19.539999961853027
1617796472.43551,26.47211,19.555619955062866
1617796472.45114,37.18823,19.571249961853027
1617796472.46676,45.72391,19.586869955062866
1617796472.48239,52.19904,19.602499961853027
1617796472.49801,56.65262,19.618119955062866
1617796472.51364,59.12311,19.633749961853027
1617796472.52927,59.76407,19.64937996864319
1617796472.54489,58.88773,19.664999961853027
1617796472.56052,56.9325,19.68062996864319
1617796472.57614,54.36392,19.696249961853027
1617796472.59177,51.60681,19.71187996864319
1617796472.60739,49.00195,19.727499961853027
1617796472.62302,46.83453,19.74312996864319
1617796472.63865,45.34039,19.75875997543335
1617796472.65427,44.71722,19.77437996864319
1617796472.6699,45.06699,19.79000997543335
1617796472.68552,46.33832,19.80562996864319
1617796472.70115,48.33734,19.82125997543335
1617796472.71677,50.75919,19.83687996864319
1617796472.7324,53.20956,19.85250997543335
1617796472.74803,55.2959,19.86813998222351
1617796472.76365,56.66641,19.88375997543335
1617796472.77928,57.06854,19.89938998222351
1617796472.7949,56.38242,19.91500997543335
1617796472.81053,54.63855,19.93063998222351
1617796472.82615,52.04285,19.94625997543335
1617796472.84178,48.91919,19.96188998222351
1617796472.85741,45.63815,19.977519989013672
1617796472.87303,42.4425,19.99313998222351
1617796472.88866,39.42291,20.008769989013672
1617796472.90428,36.45386,20.02438998222351
1617796472.91991,33.28992,20.040019989013672
1617796472.93553,29.69946,20.05563998222351
1617796472.95116,25.61661,20.071269989013672
1617796472.96679,21.14053,20.086899995803833
1617796472.98241,16.53137,20.102519989013672
1617796472.99804,12.04138,20.118149995803833
1617796473.01366,7.777557,20.133769989013672
1617796473.02929,3.674042,20.149399995803833
1617796473.04491,-0.4567566,20.165019989013672
1617796473.06054,-4.770233,20.180649995803833
1617796473.07617,-9.252686,20.196280002593994
1617796473.09179,-13.68607,20.211899995803833
1617796473.10742,-17.76303,20.227530002593994
1617796473.12304,-21.24973,20.243149995803833
1617796473.13867,-24.17062,20.258780002593994
1617796473.15429,-26.8158,20.274399995803833
1617796473.16992,-29.74893,20.290030002593994
1617796473.18555,-33.61899,20.305660009384155
1617796473.20117,-38.90424,20.321280002593994
1617796473.2168,-45.66013,20.336910009384155
1617796473.23242,-53.27536,20.352530002593994
1617796473.24805,-60.4617,20.368160009384155
1617796473.26367,-65.43964,20.383780002593994
1617796473.2793,-66.45035,20.399410009384155
1617796473.29493,-62.31506,20.415040016174316
1617796473.31055,-52.90305,20.430660009384155
1617796473.32618,-39.254,20.446290016174316
1617796473.3418,-23.20078,20.461910009384155
1617796473.35743,-6.808197,20.477540016174316
1617796473.37305,8.25058,20.493160009384155
1617796473.38868,21.02768,20.508790016174316
1617796473.40431,31.28754,20.524420022964478
1617796473.41993,39.2283,20.540040016174316
1617796473.43556,45.12411,20.555670022964478
1617796473.45118,49.1532,20.571290016174316
1617796473.46681,51.37924,20.586920022964478
1617796473.48243,51.89743,20.602540016174316
1617796473.49806,50.92953,20.618170022964478
1617796473.51369,48.87842,20.63380002975464
1617796473.52931,46.2424,20.649420022964478
1617796473.54494,43.48157,20.66505002975464
1617796473.56056,40.95197,20.680670022964478
1617796473.57619,38.85245,20.69630002975464
1617796473.59181,37.28925,20.711920022964478
1617796473.60744,36.32419,20.72755002975464
1617796473.62307,36.03177,20.7431800365448
1617796473.63869,36.47629,20.75880002975464
1617796473.65432,37.67685,20.7744300365448
1617796473.66994,39.51541,20.79005002975464
1617796473.68557,41.69632,20.8056800365448
1617796473.7012,43.79694,20.82131004333496
1617796473.71682,45.33746,20.8369300365448
1617796473.73245,45.94363,20.85256004333496
1617796473.74807,45.44888,20.8681800365448
1617796473.7637,43.96393,20.88381004333496
1617796473.77932,41.83218,20.8994300365448
1617796473.79495,39.47995,20.91506004333496
1617796473.81058,37.24423,20.930690050125122
1617796473.8262,35.2131,20.94631004333496
1617796473.84183,33.19238,20.961940050125122
1617796473.85745,30.82639,20.97756004333496
1617796473.87308,27.78293,20.993190050125122
1617796473.8887,23.94226,21.00881004333496
1617796473.90433,19.49084,21.024440050125122
1617796473.91996,14.86581,21.040070056915283
1617796473.93558,10.54321,21.055690050125122
1617796473.95121,6.853638,21.071320056915283
1617796473.96683,3.808197,21.086940050125122
1617796473.98246,1.153748,21.102570056915283
1617796473.99808,-1.511993,21.118190050125122
1617796474.01371,-4.551483,21.133820056915283
1617796474.02934,-8.137878,21.149450063705444
1617796474.04496,-12.23947,21.165070056915283
1617796474.06059,-16.6311,21.180700063705444
1617796474.07621,-21.0213,21.196320056915283
1617796474.09184,-25.10391,21.211950063705444
1617796474.10746,-28.68292,21.227570056915283
1617796474.12309,-31.74811,21.243200063705444
1617796474.13872,-34.50311,21.258830070495605
1617796474.15434,-37.35379,21.274450063705444
1617796474.16997,-40.79535,21.290080070495605
1617796474.18559,-45.20795,21.305700063705444
1617796474.20122,-50.61935,21.321330070495605
1617796474.21684,-56.52005,21.336950063705444
1617796474.23247,-61.83365,21.352580070495605
1617796474.2481,-65.11502,21.368210077285767
1617796474.26372,-64.96103,21.383830070495605
1617796474.27935,-60.44748,21.399460077285767
1617796474.29497,-51.49307,21.415080070495605
1617796474.3106,-38.90787,21.430710077285767
1617796474.32622,-24.17276,21.446330070495605
1617796474.34185,-9.034332,21.461960077285767
1617796474.35748,4.965759,21.477590084075928
1617796474.3731,16.81274,21.493210077285767
1617796474.38873,26.07574,21.508840084075928
1617796474.40435,32.785,21.524460077285767
1617796474.41998,37.23105,21.540090084075928
1617796474.4356,39.76767,21.555710077285767
1617796474.45123,40.74405,21.571340084075928
1617796474.46686,40.47186,21.58697009086609
1617796474.48248,39.27249,21.602590084075928
1617796474.49811,37.50302,21.61822009086609
1617796474.51373,35.52695,21.633840084075928
1617796474.52936,33.70407,21.64947009086609
1617796474.54498,32.25827,21.665090084075928
1617796474.56061,31.27133,21.68072009086609
1617796474.57624,30.64282,21.69635009765625
1617796474.59186,30.21268,21.71197009086609
1617796474.60749,29.88345,21.72760009765625
1617796474.62311,29.7681,21.74322009086609
1617796474.63874,30.1774,21.75885009765625
1617796474.65436,31.46805,21.77447009086609
1617796474.66999,33.84622,21.79010009765625
1617796474.68562,37.1655,21.80573010444641
1617796474.70124,40.94705,21.82135009765625
1617796474.71687,44.54523,21.83698010444641
1617796474.73249,47.45248,21.85260009765625
1617796474.74812,49.52942,21.86823010444641
1617796474.76374,51.04953,21.88385009765625
1617796474.77937,52.5303,21.89948010444641
1617796474.795,54.4158,21.915110111236572
1617796474.81062,56.83533,21.93073010444641
1617796474.82625,59.51498,21.946360111236572
1617796474.84187,61.90869,21.96198010444641
1617796474.8575,63.47946,21.977610111236572
1617796474.87312,64.00247,21.99323010444641
1617796474.88875,63.69958,22.008860111236572
1617796474.90438,63.16394,22.024490118026733
1617796474.92,63.11603,22.040110111236572
1617796474.93563,64.10693,22.055740118026733
1617796474.95125,66.37613,22.071360111236572
1617796474.96688,69.80496,22.086990118026733
1617796474.9825,74.17865,22.102610111236572
1617796474.99813,79.34219,22.118240118026733
1617796475.01376,85.36203,22.133870124816895
1617796475.02938,92.46753,22.149490118026733
1617796475.04501,100.8905,22.165120124816895
1617796475.06063,110.6953,22.180740118026733
1617796475.07626,121.7625,22.196370124816895
1617796475.09188,133.8777,22.211990118026733
1617796475.10751,146.8481,22.227620124816895
1617796475.12314,160.4604,22.243250131607056
1617796475.13876,174.1443,22.258870124816895
1617796475.15439,186.658,22.274500131607056
1617796475.17001,196.0109,22.290120124816895
1617796475.18564,199.9357,22.305750131607056
1617796475.20126,196.799,22.321370124816895
1617796475.21689,186.479,22.337000131607056
1617796475.23252,170.7899,22.352630138397217
1617796475.24814,152.9532,22.368250131607056
1617796475.26377,136.4399,22.383880138397217
1617796475.27939,123.6192,22.399500131607056
1617796475.29502,114.9527,22.415130138397217
1617796475.31064,109.053,22.430750131607056
1617796475.32627,103.6027,22.446380138397217
1617796475.3419,96.54134,22.462010145187378
1617796475.35752,86.8952,22.477630138397217
1617796475.37315,75.0098,22.493260145187378
1617796475.38877,62.1106,22.508880138397217
1617796475.4044,49.63534,22.524510145187378
1617796475.42002,38.61388,22.540130138397217
1617796475.43565,29.32235,22.555760145187378
1617796475.45128,21.27542,22.57139015197754
1617796475.4669,13.4502,22.587010145187378
1617796475.48253,4.717148,22.60264015197754
1617796475.49815,-5.725464,22.618260145187378
1617796475.51378,-18.04646,22.63389015197754
1617796475.5294,-31.68242,22.649510145187378
1617796475.54503,-45.73808,22.66514015197754
1617796475.56066,-59.40396,22.68076992034912
1617796475.57628,-72.47278,22.69639015197754
1617796475.59191,-85.58444,22.71201992034912
1617796475.60753,-100.054,22.72764015197754
1617796475.62316,-117.5311,22.74326992034912
1617796475.63878,-139.8155,22.75889015197754
1617796475.65441,-168.7905,22.77451992034912
1617796475.67004,-206.1725,22.790149927139282
1617796475.68566,-252.686,22.80576992034912
1617796475.70129,-306.8553,22.821399927139282
1617796475.71691,-364.0508,22.83701992034912
1617796475.73254,-416.69,22.852649927139282
1617796475.74816,-456.1318,22.86826992034912
1617796475.76379,-475.4897,22.883899927139282
1617796475.77942,-472.2298,22.899529933929443
1617796475.79504,-449.013,22.915149927139282
1617796475.81067,-412.2535,22.930779933929443
1617796475.82629,-369.1221,22.946399927139282
1617796475.84192,-324.7379,22.962029933929443
1617796475.85754,-280.9954,22.977649927139282
1617796475.87317,-237.5344,22.993279933929443
1617796475.8888,-193.9413,23.008909940719604
1617796475.90442,-151.544,23.024529933929443
1617796475.92005,-113.5792,23.040159940719604
1617796475.93567,-83.74493,23.055779933929443
1617796475.9513,-64.13232,23.071409940719604
1617796475.96692,-53.99609,23.087029933929443
1617796475.98255,-50.08466,23.102659940719604
1617796475.99818,-48.31561,23.118289947509766
1617796476.0138,-45.66644,23.133909940719604
1617796476.02943,-41.31,23.149539947509766
1617796476.04505,-36.56866,23.165159940719604
1617796476.06068,-33.61505,23.180789947509766
1617796476.07631,-33.95691,23.196419954299927
1617796476.09193,-37.4613,23.212039947509766
1617796476.10756,-42.34674,23.227669954299927
1617796476.12318,-46.04211,23.243289947509766
1617796476.13881,-46.36212,23.258919954299927
1617796476.15443,-42.32727,23.274539947509766
1617796476.17006,-34.37299,23.290169954299927
1617796476.18569,-23.89191,23.305799961090088
1617796476.20131,-12.45972,23.321419954299927
1617796476.21694,-1.227539,23.337049961090088
1617796476.23256,9.404846,23.352669954299927
1617796476.24819,19.5455,23.368299961090088
1617796476.26381,29.42633,23.383919954299927
1617796476.27944,38.97809,23.399549961090088
1617796476.29507,47.63568,23.41517996788025
1617796476.31069,54.45496,23.430799961090088
1617796476.32632,58.53241,23.44642996788025
1617796476.34194,59.43326,23.462049961090088
1617796476.35757,57.38748,23.47767996788025
1617796476.37319,53.30478,23.493299961090088
1617796476.38882,48.35782,23.50892996788025
1617796476.40445,43.62631,23.52455997467041
1617796476.42007,39.7421,23.54017996788025
1617796476.4357,36.83981,23.55580997467041
1617796476.45132,34.67957,23.57142996788025
1617796476.46695,32.92746,23.58705997467041
1617796476.48257,31.39352,23.60267996788025
1617796476.4982,30.10269,23.61830997467041
1617796476.51383,29.2496,23.63393998146057
1617796476.52945,29.03647,23.64955997467041
1617796476.54508,29.50052,23.66518998146057
1617796476.5607,30.44717,23.68080997467041
1617796476.57633,31.50439,23.69643998146057
1617796476.59195,32.22244,23.71205997467041
1617796476.60758,32.23285,23.72768998146057
1617796476.62321,31.35056,23.743319988250732
1617796476.63883,29.59549,23.75893998146057
1617796476.65446,27.1846,23.774569988250732
1617796476.67008,24.38275,23.79018998146057
1617796476.68571,21.42157,23.805819988250732
1617796476.70133,18.46619,23.82143998146057
1617796476.71696,15.5524,23.837069988250732
1617796476.73259,12.69714,23.852699995040894
1617796476.74821,9.924438,23.868319988250732
1617796476.76384,7.260986,23.883949995040894
1617796476.77946,4.686981,23.899569988250732
1617796476.79509,2.107452,23.915199995040894
1617796476.81071,-0.668457,23.930819988250732
1617796476.82634,-3.85434,23.946449995040894
1617796476.84197,-7.526154,23.962080001831055
1617796476.85759,-11.5589,23.977699995040894
1617796476.87322,-15.66107,23.993330001831055
1617796476.88884,-19.4545,24.008949995040894
1617796476.90447,-22.68414,24.024580001831055
1617796476.92009,-25.3223,24.040199995040894
1617796476.93572,-27.58917,24.055830001831055
1617796476.95135,-29.89642,24.071460008621216
1617796476.96697,-32.70895,24.087080001831055
1617796476.9826,-36.39725,24.102710008621216
1617796476.99822,-41.11667,24.118330001831055
1617796477.01385,-46.67569,24.133960008621216
1617796477.02947,-52.4921,24.149580001831055
1617796477.0451,-57.60974,24.165210008621216
1617796477.06073,-60.85675,24.180840015411377
1617796477.07635,-61.09979,24.196460008621216
1617796477.09198,-57.57584,24.212090015411377
1617796477.1076,-50.15417,24.227710008621216
1617796477.12323,-39.43283,24.243340015411377
1617796477.13885,-26.60889,24.258960008621216
1617796477.15448,-13.14908,24.274590015411377
1617796477.17011,-0.4171143,24.290220022201538
1617796477.18573,10.60127,24.305840015411377
1617796477.20136,19.47731,24.321470022201538
1617796477.21698,26.17851,24.337090015411377
1617796477.23261,30.9259,24.352720022201538
1617796477.24823,33.9893,24.368340015411377
1617796477.26386,35.59172,24.383970022201538
1617796477.27949,35.89995,24.3996000289917
1617796477.29511,35.08955,24.415220022201538
1617796477.31074,33.39755,24.4308500289917
1617796477.32636,31.14719,24.446470022201538
1617796477.34199,28.67467,24.4621000289917
1617796477.35761,26.27702,24.477720022201538
1617796477.37324,24.17459,24.4933500289917
1617796477.38887,22.52266,24.50898003578186
1617796477.40449,21.4286,24.5246000289917
1617796477.42012,21.01349,24.54023003578186
1617796477.43574,21.34781,24.5558500289917
1617796477.45137,22.45239,24.57148003578186
1617796477.46699,24.20735,24.5871000289917
1617796477.48262,26.3362,24.60273003578186
1617796477.49825,28.43518,24.61836004257202
1617796477.51387,30.07993,24.63398003578186
1617796477.5295,30.97025,24.64961004257202
1617796477.54512,31.00574,24.66523003578186
1617796477.56075,30.33717,24.68086004257202
1617796477.57637,29.24348,24.69648003578186
1617796477.592,27.96243,24.71211004257202
1617796477.60763,26.59099,24.727740049362183
1617796477.62325,25.00198,24.74336004257202
1617796477.63888,22.98552,24.758990049362183
1617796477.6545,20.41835,24.77461004257202
1617796477.67013,17.35772,24.790240049362183
1617796477.68575,14.03269,24.80586004257202
1617796477.70138,10.73737,24.821490049362183
1617796477.71701,7.638107,24.837120056152344
1617796477.73263,4.698891,24.852740049362183
1617796477.74826,1.708473,24.868370056152344
1617796477.76388,-1.536507,24.883990049362183
1617796477.77951,-5.133316,24.899620056152344
1617796477.79513,-8.980888,24.915240049362183
1617796477.81076,-12.8507,24.930870056152344
1617796477.82639,-16.52374,24.946500062942505
1617796477.84201,-19.86179,24.962120056152344
1617796477.85764,-22.90147,24.977750062942505
1617796477.87326,-25.77772,24.993370056152344
1617796477.88889,-28.71796,25.009000062942505
1617796477.90451,-32.01387,25.024620056152344
1617796477.92014,-35.96649,25.040250062942505
1617796477.93577,-40.81392,25.055880069732666
1617796477.95139,-46.55048,25.071500062942505
1617796477.96702,-52.74643,25.087130069732666
1617796477.98264,-58.45198,25.102750062942505
1617796477.99827,-62.34445,25.118380069732666
1617796478.01389,-63.05974,25.134000062942505
1617796478.02952,-59.65215,25.149630069732666
1617796478.04515,-51.98361,25.165260076522827
1617796478.06077,-40.78875,25.180880069732666
1617796478.0764,-27.46573,25.196510076522827
1617796478.09202,-13.61307,25.212130069732666
1617796478.10765,-0.6266155,25.227760076522827
1617796478.12327,10.60368,25.243380069732666
1617796478.1389,19.69755,25.259010076522827
1617796478.15453,26.6782,25.27464008331299
1617796478.17015,31.74379,25.290260076522827
1617796478.18578,35.11113,25.30589008331299
1617796478.2014,36.94234,25.321510076522827
1617796478.21703,37.36774,25.33714008331299
1617796478.23265,36.54732,25.352760076522827
1617796478.24828,34.73859,25.36839008331299
1617796478.26391,32.31169,25.38402009010315
1617796478.27953,29.72186,25.39964008331299
1617796478.29516,27.41969,25.41527009010315
1617796478.31078,25.74642,25.43089008331299
1617796478.32641,24.86239,25.44652009010315
1617796478.34204,24.765,25.46215009689331
1617796478.35766,25.33228,25.47777009010315
1617796478.37329,26.41795,25.49340009689331
1617796478.38891,27.90271,25.50902009010315
1617796478.40454,29.67214,25.52465009689331
1617796478.42016,31.59114,25.54027009010315
1617796478.43579,33.45316,25.55590009689331
1617796478.45142,35.01296,25.57153010368347
1617796478.46704,36.00626,25.58715009689331
1617796478.48267,36.2159,25.60278010368347
1617796478.49829,35.54086,25.61840009689331
1617796478.51392,34.00988,25.63403010368347
1617796478.52954,31.75988,25.64965009689331
1617796478.54517,29.01522,25.66528010368347
1617796478.5608,26.00657,25.680910110473633
1617796478.57642,22.93333,25.69653010368347
1617796478.59205,19.90777,25.712160110473633
1617796478.60767,16.96265,25.72778010368347
1617796478.6233,14.0583,25.743410110473633
1617796478.63892,11.11111,25.75903010368347
1617796478.65455,8.033257,25.774660110473633
1617796478.67018,4.744278,25.790290117263794
1617796478.6858,1.214745,25.805910110473633
1617796478.70143,-2.541794,25.821540117263794
1617796478.71705,-6.453827,25.837160110473633
1617796478.73268,-10.38205,25.852790117263794
1617796478.7483,-14.16897,25.868410110473633
1617796478.76393,-17.65263,25.884040117263794
1617796478.77956,-20.7625,25.899670124053955
1617796478.79518,-23.55225,25.915290117263794
1617796478.81081,-26.2469,25.930920124053955
1617796478.82643,-29.24458,25.946540117263794
1617796478.84206,-32.99854,25.962170124053955
1617796478.85768,-37.85054,25.977790117263794
1617796478.87331,-43.77829,25.993420124053955
1617796478.88894,-50.22343,26.009050130844116
1617796478.90456,-56.07225,26.024670124053955
1617796478.92019,-59.87843,26.040300130844116
1617796478.93581,-60.29735,26.055920124053955
1617796478.95144,-56.55252,26.071550130844116
1617796478.96706,-48.71056,26.087170124053955
1617796478.98269,-37.66406,26.102800130844116
1617796478.99832,-24.82846,26.118430137634277
1617796479.01394,-11.70004,26.134050130844116
1617796479.02957,0.503479,26.149680137634277
1617796479.04519,10.99716,26.165300130844116
1617796479.06082,19.43155,26.180930137634277
1617796479.07644,25.7534,26.196550130844116
1617796479.09207,30.11557,26.212180137634277
1617796479.1077,32.76961,26.22781014442444
1617796479.12332,34.05005,26.243430137634277
1617796479.13895,34.28285,26.25906014442444
1617796479.15457,33.75986,26.274680137634277
1617796479.1702,32.6835,26.29031014442444
1617796479.18582,31.22,26.305930137634277
1617796479.20145,29.50737,26.32156014442444
1617796479.21708,27.70755,26.3371901512146
1617796479.2327,26.01212,26.35281014442444
1617796479.24833,24.58676,26.3684401512146
1617796479.26395,23.58936,26.38406014442444
1617796479.27958,23.12993,26.3996901512146
1617796479.2952,23.31247,26.41531014442444
1617796479.31083,24.21088,26.4309401512146
1617796479.32646,25.85077,26.44656991958618
1617796479.34208,28.13188,26.4621901512146
1617796479.35771,30.77016,26.47781991958618
1617796479.37333,33.30351,26.4934401512146
1617796479.38896,35.20049,26.50906991958618
1617796479.40458,35.99863,26.5246901512146
1617796479.42021,35.44847,26.54031991958618
1617796479.43584,33.61113,26.555949926376343
1617796479.45146,30.79736,26.57156991958618
1617796479.46709,27.44052,26.587199926376343
1617796479.48271,23.94238,26.60281991958618
1617796479.49834,20.52658,26.618449926376343
1617796479.51396,17.23355,26.63406991958618
1617796479.52959,13.95041,26.649699926376343
1617796479.54522,10.53033,26.665329933166504
1617796479.56084,6.856232,26.680949926376343
1617796479.57647,2.90036,26.696579933166504
1617796479.59209,-1.262787,26.712199926376343
1617796479.60772,-5.50351,26.727829933166504
1617796479.62334,-9.664276,26.743449926376343
1617796479.63897,-13.5874,26.759079933166504
1617796479.6546,-17.14606,26.774709939956665
1617796479.67022,-20.31137,26.790329933166504
1617796479.68585,-23.18805,26.805959939956665
1617796479.70147,-26.07193,26.821579933166504
1617796479.7171,-29.35651,26.837209939956665
1617796479.73272,-33.40027,26.852829933166504
1617796479.74835,-38.34177,26.868459939956665
1617796479.76398,-43.87595,26.884089946746826
1617796479.7796,-49.21393,26.899709939956665
1617796479.79523,-53.18442,26.915339946746826
1617796479.81085,-54.54971,26.930959939956665
1617796479.82648,-52.39667,26.946589946746826
1617796479.8421,-46.46338,26.962209939956665
1617796479.85773,-37.25186,26.977839946746826
1617796479.87336,-25.88071,26.993469953536987
1617796479.88898,-13.72321,27.009089946746826
1617796479.90461,-1.986481,27.024719953536987
1617796479.92023,8.504181,27.040339946746826
1617796479.93586,17.34872,27.055969953536987
1617796479.95148,24.42911,27.071589946746826
1617796479.96711,29.74573,27.087219953536987
1617796479.98274,33.31256,27.10284996032715
1617796479.99836,35.20609,27.118469953536987
1617796480.01399,35.5997,27.13409996032715
1617796480.02961,34.79858,27.149719953536987
1617796480.04524,33.18439,27.16534996032715
1617796480.06086,31.11652,27.180969953536987
1617796480.07649,28.90073,27.19659996032715
1617796480.09212,26.77097,27.21222996711731
1617796480.10774,24.92917,27.22784996032715
1617796480.12337,23.60001,27.24347996711731
1617796480.13899,23.01187,27.25909996032715
1617796480.15462,23.29843,27.27472996711731
1617796480.17024,24.4541,27.29034996032715
1617796480.18587,26.27191,27.30597996711731
1617796480.2015,28.3876,27.32160997390747
1617796480.21712,30.40833,27.33722996711731
1617796480.23275,32.02631,27.35285997390747
1617796480.24837,33.08997,27.36847996711731
1617796480.264,33.57605,27.38410997390747
1617796480.27962,33.53806,27.39972996711731
1617796480.29525,32.97787,27.41535997390747
1617796480.31088,31.8161,27.430989980697632
1617796480.3265,29.90747,27.44660997390747
1617796480.34213,27.17645,27.462239980697632
1617796480.35775,23.7019,27.47785997390747
1617796480.37338,19.79807,27.493489980697632
1617796480.389,15.88779,27.50910997390747
1617796480.40463,12.33798,27.524739980697632
1617796480.42026,9.260925,27.540369987487793
1617796480.43588,6.475647,27.555989980697632
1617796480.45151,3.582062,27.571619987487793
1617796480.46713,0.2193298,27.587239980697632
1617796480.48276,-3.751038,27.602869987487793
1617796480.49838,-8.163452,27.618489980697632
1617796480.51401,-12.63538,27.634119987487793
1617796480.52964,-16.74976,27.649749994277954
1617796480.54526,-20.29889,27.665369987487793
1617796480.56089,-23.31607,27.680999994277954
1617796480.57651,-26.0755,27.696619987487793
1617796480.59214,-28.91547,27.712249994277954
1617796480.60776,-32.1683,27.727869987487793
1617796480.62339,-36.052,27.743499994277954
1617796480.63902,-40.67169,27.759130001068115
1617796480.65464,-45.97867,27.774749994277954
1617796480.67027,-51.68332,27.790380001068115
1617796480.68589,-57.13641,27.805999994277954
1617796480.70152,-61.34467,27.821630001068115
1617796480.71714,-63.12305,27.837249994277954
1617796480.73277,-61.40244,27.852880001068115
1617796480.7484,-55.62878,27.868510007858276
1617796480.76402,-45.98038,27.884130001068115
1617796480.77965,-33.42639,27.899760007858276
1617796480.79527,-19.4559,27.915380001068115
1617796480.8109,-5.672791,27.931010007858276
1617796480.82652,6.588135,27.946630001068115
1617796480.84215,16.53198,27.962260007858276
1617796480.85778,23.93246,27.977890014648438
1617796480.8734,28.99966,27.993510007858276
1617796480.88903,32.15366,28.009140014648438
1617796480.90465,33.85736,28.024760007858276
1617796480.92028,34.47934,28.040390014648438
1617796480.93591,34.31097,28.0560200214386
1617796480.95153,33.55908,28.071640014648438
1617796480.96716,32.41025,28.0872700214386
1617796480.98278,31.02875,28.102890014648438
1617796480.99841,29.59335,28.1185200214386
1617796481.01403,28.27252,28.134140014648438
1617796481.02966,27.22668,28.1497700214386
1617796481.04529,26.61148,28.16540002822876
1617796481.06091,26.56342,28.1810200214386
1617796481.07654,27.1734,28.19665002822876
1617796481.09216,28.4451,28.2122700214386
1617796481.10779,30.21939,28.22790002822876
1617796481.12341,32.19626,28.2435200214386
1617796481.13904,33.99445,28.25915002822876
1617796481.15467,35.26279,28.27478003501892
1617796481.17029,35.75629,28.29040002822876
1617796481.18592,35.40576,28.30603003501892
1617796481.20154,34.27274,28.32165002822876
1617796481.21717,32.47818,28.33728003501892
1617796481.23279,30.16565,28.35290002822876
1617796481.24842,27.43033,28.36853003501892
1617796481.26405,24.38913,28.384160041809082
1617796481.27967,21.17017,28.39978003501892
1617796481.2953,17.91904,28.415410041809082
1617796481.31092,14.75867,28.43103003501892
1617796481.32655,11.74387,28.446660041809082
1617796481.34217,8.848236,28.46228003501892
1617796481.3578,5.933655,28.477910041809082
1617796481.37343,2.849762,28.493540048599243
1617796481.38905,-0.5368652,28.509160041809082
1617796481.40468,-4.29129,28.524790048599243
1617796481.4203,-8.325562,28.540410041809082
1617796481.43593,-12.45108,28.556040048599243
1617796481.45155,-16.37924,28.571660041809082
1617796481.46718,-19.80637,28.587290048599243
1617796481.48281,-22.56714,28.602920055389404
1617796481.49843,-24.7319,28.618540048599243
1617796481.51406,-26.64484,28.634170055389404
1617796481.52968,-28.87851,28.649790048599243
1617796481.54531,-32.02472,28.665420055389404
1617796481.56093,-36.48981,28.681040048599243
1617796481.57656,-42.26959,28.696670055389404
1617796481.59219,-48.827,28.712300062179565
1617796481.60781,-55.10754,28.727920055389404
1617796481.62344,-59.74313,28.743550062179565
1617796481.63906,-61.38113,28.759170055389404
1617796481.65469,-59.06216,28.774800062179565
1617796481.67031,-52.50604,28.790420055389404
1617796481.68594,-42.24414,28.806050062179565
1617796481.70157,-29.48303,28.821680068969727
1617796481.71719,-15.78427,28.837300062179565
1617796481.73282,-2.620483,28.852930068969727
1617796481.74844,8.954193,28.868550062179565
1617796481.76407,18.48419,28.884180068969727
1617796481.77969,25.9826,28.899800062179565
1617796481.79532,31.73157,28.915430068969727
1617796481.81095,36.01346,28.931060075759888
1617796481.82657,38.99911,28.946680068969727
1617796481.8422,40.78442,28.962310075759888
1617796481.85782,41.45175,28.977930068969727
1617796481.87345,41.20764,28.993560075759888
1617796481.88907,40.37149,29.009180068969727
1617796481.9047,39.32855,29.024810075759888
1617796481.92033,38.44443,29.04044008255005
1617796481.93595,38.02759,29.056060075759888
1617796481.95158,38.29218,29.07169008255005
1617796481.9672,39.3284,29.087310075759888
1617796481.98283,41.12012,29.10294008255005
1617796481.99845,43.51227,29.118560075759888
1617796482.01408,46.26898,29.13419008255005
1617796482.02971,49.15283,29.14982008934021
1617796482.04533,52.01288,29.16544008255005
1617796482.06096,54.83914,29.18107008934021
1617796482.07658,57.74429,29.19669008255005
1617796482.09221,60.83563,29.21232008934021
1617796482.10783,64.17996,29.22794008255005
1617796482.12346,67.76593,29.24357008934021
1617796482.13909,71.56711,29.25920009613037
1617796482.15471,75.63013,29.27482008934021
1617796482.17034,80.05713,29.29045009613037
1617796482.18596,84.9599,29.30607008934021
1617796482.20159,90.31674,29.32170009613037
1617796482.21721,95.90521,29.33732008934021
1617796482.23284,101.4031,29.35295009613037
1617796482.24847,106.5814,29.368580102920532
1617796482.26409,111.5762,29.38420009613037
1617796482.27972,116.9217,29.399830102920532
1617796482.29534,123.3336,29.41545009613037
1617796482.31097,131.2965,29.431080102920532
1617796482.32659,140.6754,29.44670009613037
1617796482.34222,150.6934,29.462330102920532
1617796482.35785,160.2814,29.477960109710693
1617796482.37347,168.5447,29.493580102920532
1617796482.3891,175.0812,29.509210109710693
1617796482.40472,179.8895,29.524830102920532
1617796482.42035,182.9473,29.540460109710693
1617796482.43597,183.8101,29.556080102920532
1617796482.4516,181.4934,29.571710109710693
1617796482.46723,174.9118,29.587340116500854
1617796482.48285,163.5355,29.602960109710693
1617796482.49848,147.9062,29.618590116500854
1617796482.5141,129.6586,29.634210109710693
1617796482.52973,111.0683,29.649840116500854
1617796482.54535,94.27612,29.665460109710693
1617796482.56098,80.64445,29.681090116500854
1617796482.57661,70.47611,29.696720123291016
1617796482.59223,63.09958,29.712340116500854
1617796482.60786,57.23787,29.727970123291016
1617796482.62348,51.44759,29.743590116500854
1617796482.63911,44.51007,29.759220123291016
1617796482.65473,35.73043,29.774840116500854
1617796482.67036,25.09747,29.790470123291016
1617796482.68599,13.0773,29.806100130081177
1617796482.70161,0.3476257,29.821720123291016
1617796482.71724,-12.64336,29.837350130081177
1617796482.73286,-25.98769,29.852970123291016
1617796482.74849,-40.33816,29.868600130081177
1617796482.76411,-56.8011,29.884220123291016
1617796482.77974,-76.84985,29.899850130081177
1617796482.79537,-102.4037,29.915480136871338
1617796482.81099,-135.6354,29.931100130081177
1617796482.82662,-178.2705,29.946730136871338
1617796482.84224,-230.2272,29.962350130081177
1617796482.85787,-288.2659,29.977980136871338
1617796482.87349,-345.66,29.993600130081177
1617796482.88912,-393.5055,30.009230136871338
1617796482.90475,-423.4843,30.0248601436615
1617796482.92037,-430.8367,30.040480136871338
1617796482.936,-415.9727,30.0561101436615
1617796482.95162,-383.7646,30.071730136871338
1617796482.96725,-341.0893,30.0873601436615
1617796482.98287,-293.9915,30.102980136871338
1617796482.9985,-246.2399,30.1186101436615
1617796483.01413,-199.6774,30.13424015045166
1617796483.02975,-155.7522,30.1498601436615
1617796483.04538,-116.7442,30.16549015045166
1617796483.061,-85.5932,30.1811101436615
1617796483.07663,-64.59772,30.19674015045166
1617796483.09225,-53.84464,30.2123601436615
1617796483.10788,-50.80453,30.22799015045166
1617796483.12351,-51.28235,30.243619918823242
1617796483.13913,-51.35931,30.25924015045166
1617796483.15476,-48.93491,30.274869918823242
1617796483.17038,-44.15524,30.29049015045166
1617796483.18601,-38.71942,30.306119918823242
1617796483.20164,-34.48572,30.321749925613403
1617796483.21726,-32.34912,30.337369918823242
1617796483.23289,-31.87213,30.352999925613403
1617796483.24851,-31.7908,30.368619918823242
1617796483.26414,-30.8331,30.384249925613403
1617796483.27976,-28.42294,30.399869918823242
1617796483.29539,-24.93561,30.415499925613403
1617796483.31102,-21.43121,30.431129932403564
1617796483.32664,-19.11063,30.446749925613403
1617796483.34227,-18.71051,30.462379932403564
1617796483.35789,-20.19272,30.477999925613403
1617796483.37352,-22.82065,30.493629932403564
1617796483.38914,-25.59058,30.509249925613403
1617796483.40477,-27.65958,30.524879932403564
1617796483.4204,-28.71631,30.540509939193726
1617796483.43602,-29.03006,30.556129932403564
1617796483.45165,-29.2515,30.571759939193726
1617796483.46727,-30.14078,30.587379932403564
1617796483.4829,-32.24451,30.603009939193726
1617796483.49852,-35.7543,30.618629932403564
1617796483.51415,-40.41144,30.634259939193726
1617796483.52978,-45.53497,30.649889945983887
1617796483.5454,-50.09338,30.665509939193726
1617796483.56103,-52.84888,30.681139945983887
1617796483.57665,-52.64209,30.696759939193726
1617796483.59228,-48.72534,30.712389945983887
1617796483.6079,-41.00449,30.728009939193726
1617796483.62353,-30.15314,30.743639945983887
1617796483.63916,-17.44492,30.759269952774048
1617796483.65478,-4.392303,30.774889945983887
1617796483.67041,7.653259,30.790519952774048
1617796483.68603,17.80658,30.806139945983887
1617796483.70166,25.7309,30.821769952774048
1617796483.71728,31.50558,30.837389945983887
1617796483.73291,35.39536,30.853019952774048
1617796483.74854,37.6705,30.86864995956421
1617796483.76416,38.56073,30.884269952774048
1617796483.77979,38.2713,30.89989995956421
1617796483.79541,37.07825,30.915519952774048
1617796483.81104,35.29074,30.93114995956421
1617796483.82666,33.25203,30.946769952774048
1617796483.84229,31.23128,30.96239995956421
1617796483.85792,29.41821,30.97802996635437
1617796483.87354,27.91051,30.99364995956421
1617796483.88917,26.78903,31.00927996635437
1617796483.90479,26.15067,31.02489995956421
1617796483.92042,26.09351,31.04052996635437
1617796483.93604,26.69914,31.05614995956421
1617796483.95167,27.93938,31.07177996635437
1617796483.9673,29.67537,31.08740997314453
1617796483.98292,31.65187,31.10302996635437
1617796483.99855,33.56235,31.11865997314453
1617796484.01417,35.08426,31.13427996635437
1617796484.0298,35.95154,31.14990997314453
1617796484.04542,35.96753,31.16552996635437
1617796484.06105,35.0549,31.18115997314453
1617796484.07668,33.29788,31.196789979934692
1617796484.0923,30.89658,31.21240997314453
1617796484.10793,28.13739,31.228039979934692
1617796484.12355,25.2695,31.24365997314453
1617796484.13918,22.44376,31.259289979934692
1617796484.1548,19.65343,31.27490997314453
1617796484.17043,16.81813,31.290539979934692
1617796484.18606,13.87729,31.306169986724854
1617796484.20168,10.8226,31.321789979934692
1617796484.21731,7.741776,31.337419986724854
1617796484.23293,4.68544,31.353039979934692
1617796484.24856,1.657593,31.368669986724854
1617796484.26418,-1.432129,31.384289979934692
1617796484.27981,-4.664665,31.399919986724854
1617796484.29544,-8.051857,31.415549993515015
1617796484.31106,-11.4696,31.431169986724854
1617796484.32669,-14.70256,31.446799993515015
1617796484.34231,-17.57123,31.462419986724854
1617796484.35794,-20.01705,31.478049993515015
1617796484.37356,-22.196,31.493669986724854
1617796484.38919,-24.44438,31.509299993515015
1617796484.40482,-27.16796,31.524930000305176
1617796484.42044,-30.73636,31.540549993515015
1617796484.43607,-35.28989,31.556180000305176
1617796484.45169,-40.61517,31.571799993515015
1617796484.46732,-46.05059,31.587430000305176
1617796484.48294,-50.55429,31.603049993515015
1617796484.49857,-52.86253,31.618680000305176
1617796484.5142,-51.9312,31.634310007095337
1617796484.52982,-47.19364,31.649930000305176
1617796484.54545,-38.84081,31.665560007095337
1617796484.56107,-27.76503,31.681180000305176
1617796484.5767,-15.27864,31.696810007095337
1617796484.59232,-2.764267,31.712430000305176
1617796484.60795,8.681278,31.728060007095337
1617796484.62358,18.37129,31.743690013885498
1617796484.6392,26.07198,31.759310007095337
1617796484.65483,31.82029,31.774940013885498
1617796484.67045,35.8106,31.790560007095337
1617796484.68608,38.25034,31.806190013885498
1617796484.7017,39.30779,31.821810007095337
1617796484.71733,39.11884,31.837440013885498
1617796484.73296,37.81156,31.85307002067566
1617796484.74858,35.59404,31.868690013885498
1617796484.76421,32.73244,31.88432002067566
1617796484.77983,29.60996,31.899940013885498
1617796484.79546,26.60981,31.91557002067566
1617796484.81108,24.14006,31.931190013885498
1617796484.82671,22.48599,31.94682002067566
1617796484.84234,21.82431,31.96245002746582
1617796484.85796,22.17477,31.97807002067566
1617796484.87359,23.4077,31.99370002746582
1617796484.88921,25.29679,32.00932002067566
1617796484.90484,27.5315,32.02495002746582
1617796484.92046,29.78187,32.04057002067566
1617796484.93609,31.72549,32.05620002746582
1617796484.95172,33.09518,32.07183003425598
1617796484.96734,33.71398,32.08745002746582
1617796484.98297,33.53665,32.10308003425598
1617796484.99859,32.60684,32.11870002746582
1617796485.01422,31.04066,32.13433003425598
1617796485.02984,29.00383,32.14995002746582
1617796485.04547,26.66633,32.16558003425598
1617796485.0611,24.16835,32.18121004104614
1617796485.07672,21.58513,32.19683003425598
1617796485.09235,18.92603,32.21246004104614
1617796485.10797,16.12103,32.22808003425598
1617796485.1236,13.07894,32.24371004104614
1617796485.13922,9.687504,32.25933003425598
1617796485.15485,5.912525,32.27496004104614
1617796485.17048,1.788971,32.290590047836304
1617796485.1861,-2.566437,32.30621004104614
1617796485.20173,-6.990639,32.321840047836304
1617796485.21735,-11.29705,32.33746004104614
1617796485.23298,-15.34431,32.353090047836304
1617796485.2486,-19.06333,32.36871004104614
1617796485.26423,-22.4745,32.384340047836304
1617796485.27986,-25.67745,32.399970054626465
1617796485.29548,-28.84486,32.415590047836304
1617796485.31111,-32.20533,32.431220054626465
1617796485.32673,-36.02505,32.446840047836304
1617796485.34236,-40.56536,32.462470054626465
1617796485.35799,-45.93327,32.478100061416626
1617796485.37361,-51.94188,32.493720054626465
1617796485.38924,-57.95757,32.509350061416626
1617796485.40486,-62.89264,32.524970054626465
1617796485.42049,-65.40826,32.540600061416626
1617796485.43611,-64.28387,32.556220054626465
1617796485.45174,-58.87825,32.571850061416626
1617796485.46737,-49.41795,32.58748006820679
1617796485.48299,-36.96361,32.603100061416626
1617796485.49862,-23.11248,32.61873006820679
1617796485.51424,-9.479446,32.634350061416626
1617796485.52987,2.733459,32.64998006820679
1617796485.54549,12.93202,32.665600061416626
1617796485.56112,21.04384,32.68123006820679
1617796485.57675,27.27852,32.69686007499695
1617796485.59237,31.89285,32.71248006820679
1617796485.608,35.06541,32.72811007499695
1617796485.62362,36.92322,32.74373006820679
1617796485.63925,37.60315,32.75936007499695
1617796485.65487,37.28746,32.77498006820679
1617796485.6705,36.20056,32.79061007499695
1617796485.68613,34.58405,32.80624008178711
1617796485.70175,32.64566,32.82186007499695
1617796485.71738,30.5844,32.83749008178711
1617796485.733,28.62311,32.85311007499695
1617796485.74863,26.98657,32.86874008178711
1617796485.76425,25.9368,32.88436007499695
1617796485.77988,25.64479,32.89999008178711
1617796485.79551,26.18935,32.91562008857727
1617796485.81113,27.46646,32.93124008178711
1617796485.82676,29.26028,32.94687008857727
1617796485.84238,31.2511,32.96249008178711
1617796485.85801,33.08804,32.97812008857727
1617796485.87363,34.49013,32.99374008178711
1617796485.88926,35.23509,33.00937008857727
1617796485.90489,35.1974,33.02500009536743
1617796485.92051,34.32236,33.04062008857727
1617796485.93614,32.65799,33.05625009536743
1617796485.95176,30.31535,33.07187008857727
1617796485.96739,27.47499,33.08750009536743
1617796485.98301,24.35002,33.10312008857727
1617796485.99864,21.1153,33.11875009536743
1617796486.01427,17.88239,33.13438010215759
1617796486.02989,14.63974,33.15000009536743
1617796486.04552,11.34683,33.16563010215759
1617796486.06114,7.919983,33.18125009536743
1617796486.07677,4.32309,33.19688010215759
1617796486.09239,0.5569305,33.21250009536743
1617796486.10802,-3.329559,33.22813010215759
1617796486.12365,-7.257965,33.243760108947754
1617796486.13927,-11.12086,33.25938010215759
1617796486.1549,-14.81964,33.275010108947754
1617796486.17052,-18.28923,33.29063010215759
1617796486.18615,-21.54065,33.306260108947754
1617796486.20177,-24.67302,33.32188010215759
1617796486.2174,-27.85898,33.337510108947754
1617796486.23303,-31.31909,33.353140115737915
1617796486.24865,-35.25742,33.368760108947754
1617796486.26428,-39.81505,33.384390115737915
1617796486.2799,-45.03009,33.400010108947754
1617796486.29553,-50.76703,33.415640115737915
1617796486.31115,-56.58595,33.431260108947754
1617796486.32678,-61.67825,33.446890115737915
1617796486.34241,-64.92151,33.462520122528076
1617796486.35803,-65.13727,33.478140115737915
1617796486.37366,-61.45596,33.493770122528076
1617796486.38928,-53.70369,33.509390115737915
1617796486.40491,-42.50198,33.525020122528076
1617796486.42053,-29.15613,33.540640115737915
1617796486.43616,-15.20801,33.556270122528076
1617796486.45179,-2.037537,33.57190012931824
1617796486.46741,9.452179,33.587520122528076
1617796486.48304,18.8757,33.60315012931824
1617796486.49866,26.21667,33.618770122528076
1617796486.51429,31.61288,33.63440012931824
1617796486.52991,35.20966,33.650020122528076
1617796486.54554,37.14777,33.66565012931824
1617796486.56117,37.59961,33.6812801361084
1617796486.57679,36.83411,33.69690012931824
1617796486.59242,35.21298,33.7125301361084
1617796486.60804,33.12973,33.72815012931824
1617796486.62367,30.92535,33.7437801361084
1617796486.63929,28.85318,33.75940012931824
1617796486.65492,27.10956,33.7750301361084
1617796486.67055,25.85376,33.79066014289856
1617796486.68617,25.24957,33.8062801361084
1617796486.7018,25.43518,33.82191014289856
1617796486.71742,26.43658,33.8375301361084
1617796486.73305,28.12885,33.85316014289856
1617796486.74867,30.21692,33.8687801361084
1617796486.7643,32.31274,33.88441014289856
1617796486.77993,34.07318,33.90004014968872
1617796486.79555,35.26328,33.91566014289856
1617796486.81118,35.80362,33.93129014968872
1617796486.8268,35.73206,33.94691014289856
1617796486.84243,35.09079,33.96254014968872
1617796486.85805,33.87454,33.97816014289856
1617796486.87368,32.05881,33.99379014968872
1617796486.88931,29.6156,34.0094199180603
1617796486.90493,26.62225,34.02504014968872
1617796486.92056,23.24701,34.0406699180603
1617796486.93618,19.70996,34.05629014968872
1617796486.95181,16.20129,34.0719199180603
1617796486.96743,12.79593,34.08754014968872
1617796486.98306,9.423218,34.1031699180603
1617796486.99869,5.951202,34.118799924850464
1617796487.01431,2.243317,34.1344199180603
1617796487.02994,-1.747589,34.150049924850464
1617796487.04556,-5.953369,34.1656699180603
1617796487.06119,-10.20694,34.181299924850464
1617796487.07681,-14.32788,34.1969199180603
1617796487.09244,-18.19388,34.212549924850464
1617796487.10807,-21.79788,34.228179931640625
1617796487.12369,-25.23251,34.243799924850464
1617796487.13932,-28.67532,34.259429931640625
1617796487.15494,-32.33612,34.275049924850464
1617796487.17057,-36.44199,34.290679931640625
1617796487.18619,-41.17419,34.306299924850464
1617796487.20182,-46.56921,34.321929931640625
1617796487.21745,-52.40436,34.337559938430786
1617796487.23307,-58.03812,34.353179931640625
1617796487.2487,-62.44211,34.368809938430786
1617796487.26432,-64.36325,34.384429931640625
1617796487.27995,-62.69254,34.400059938430786
1617796487.29557,-56.8779,34.415679931640625
1617796487.3112,-47.19293,34.431309938430786
1617796487.32683,-34.7359,34.44693994522095
1617796487.34245,-21.08563,34.462559938430786
1617796487.35808,-7.804138,34.47818994522095
1617796487.3737,4.02597,34.493809938430786
1617796487.38933,13.94986,34.50943994522095
1617796487.40495,22.02789,34.525059938430786
1617796487.42058,28.47519,34.54068994522095
1617796487.43621,33.43936,34.55631995201111
1617796487.45183,36.84155,34.57193994522095
1617796487.46746,38.51498,34.58756995201111
1617796487.48308,38.43158,34.60318994522095
1617796487.49871,36.81561,34.61881995201111
1617796487.51433,34.168,34.63443994522095
1617796487.52996,31.13287,34.65006995201111
1617796487.54559,28.3053,34.66569995880127
1617796487.56121,26.10165,34.68131995201111
1617796487.57684,24.71564,34.69694995880127
1617796487.59246,24.15921,34.71256995201111
1617796487.60809,24.37881,34.72819995880127
1617796487.62371,25.25781,34.74381995201111
1617796487.63934,26.66833,34.75944995880127
1617796487.65497,28.439,34.77507996559143
1617796487.67059,30.36331,34.79069995880127
1617796487.68622,32.22571,34.80632996559143
1617796487.70184,33.8342,34.82194995880127
1617796487.71747,35.05167,34.83757996559143
1617796487.73309,35.81912,34.85319995880127
1617796487.74872,36.09512,34.86882996559143
1617796487.76435,35.79419,34.88445997238159
1617796487.77997,34.77301,34.90007996559143
1617796487.7956,32.85934,34.91570997238159
1617796487.81122,29.97586,34.93132996559143
1617796487.82685,26.22244,34.94695997238159
1617796487.84247,21.88052,34.96257996559143
1617796487.8581,17.35864,34.97820997238159
1617796487.87373,13.02155,34.99383997917175
1617796487.88935,9.097321,35.00945997238159
1617796487.90498,5.653137,35.02508997917175
1617796487.9206,2.663116,35.04070997238159
1617796487.93623,0.03598022,35.05633997917175
1617796487.95185,-2.270813,35.07195997238159
1617796487.96748,-4.302887,35.08758997917175
1617796487.98311,-6.103088,35.103219985961914
1617796487.99873,-7.721832,35.11883997917175
1617796488.01436,-9.194611,35.134469985961914
1617796488.02998,-10.52036,35.15008997917175
1617796488.04561,-11.68188,35.165719985961914
1617796488.06124,-12.69208,35.181349992752075
1617796488.07686,-13.69812,35.196969985961914
1617796488.09249,-14.95224,35.212599992752075
1617796488.10811,-16.67712,35.228219985961914
1617796488.12374,-18.81613,35.243849992752075
1617796488.13936,-20.79495,35.259469985961914
1617796488.15499,-21.46115,35.275099992752075
1617796488.17062,-19.37161,35.290729999542236
1617796488.18624,-13.25339,35.306349992752075
1617796488.20187,-2.504272,35.321979999542236
1617796488.21749,12.49332,35.337599992752075
1617796488.23312,30.42041,35.353229999542236
1617796488.24874,49.45261,35.368849992752075
1617796488.26437,67.80621,35.384479999542236
1617796488.28,84.24319,35.4001100063324
1617796488.29562,98.29404,35.415729999542236
1617796488.31125,110.1629,35.4313600063324
1617796488.32687,120.5575,35.446979999542236
1617796488.3425,130.3855,35.4626100063324
1617796488.35812,140.634,35.478229999542236
1617796488.37375,152.2477,35.4938600063324
1617796488.38938,165.9046,35.50949001312256
1617796488.405,181.6841,35.5251100063324
1617796488.42063,198.8054,35.54074001312256
1617796488.43625,215.5348,35.5563600063324
1617796488.45188,229.5288,35.57199001312256
1617796488.4675,238.5157,35.5876100063324
1617796488.48313,241.0005,35.60324001312256
1617796488.49876,236.7325,35.61887001991272
1617796488.51438,226.6456,35.63449001312256
1617796488.53001,212.4052,35.65012001991272
1617796488.54563,195.75,35.66574001312256
1617796488.56126,178.0298,35.68137001991272
1617796488.57688,160.0952,35.69699001312256
1617796488.59251,142.4965,35.71262001991272
1617796488.60814,125.8157,35.72825002670288
1617796488.62376,110.7493,35.74387001991272
1617796488.63939,97.97987,35.75950002670288
1617796488.65501,87.8044,35.77512001991272
1617796488.67064,79.88638,35.79075002670288
1617796488.68626,73.19148,35.80637001991272
1617796488.70189,66.34084,35.82200002670288
1617796488.71752,58.06052,35.83763003349304
1617796488.73314,47.66417,35.85325002670288
1617796488.74877,35.24472,35.86888003349304
1617796488.76439,21.38142,35.88450002670288
1617796488.78002,6.825012,35.90013003349304
1617796488.79564,-8.0709,35.91575002670288
1617796488.81127,-23.62015,35.93138003349304
1617796488.8269,-40.74792,35.9470100402832
1617796488.84252,-60.84236,35.96263003349304
1617796488.85815,-85.62238,35.9782600402832
1617796488.87377,-117.0282,35.99388003349304
1617796488.8894,-156.8438,36.0095100402832
1617796488.90502,-205.8243,36.02513003349304
1617796488.92065,-262.5262,36.0407600402832
1617796488.93628,-322.4721,36.056390047073364
1617796488.9519,-378.4098,36.0720100402832
1617796488.96753,-422.0104,36.087640047073364
1617796488.98315,-446.4533,36.1032600402832
1617796488.99878,-448.6547,36.118890047073364
1617796489.0144,-430.1067,36.1345100402832
1617796489.03003,-395.7943,36.150140047073364
1617796489.04566,-352.0425,36.165770053863525
1617796489.06128,-304.4644,36.181390047073364
1617796489.07691,-257.0711,36.197020053863525
1617796489.09253,-212.5342,36.212640047073364
1617796489.10816,-172.9955,36.228270053863525
1617796489.12378,-140.4546,36.243890047073364
1617796489.13941,-116.2858,36.259520053863525
1617796489.15504,-100.4381,36.27515006065369
1617796489.17066,-90.95935,36.290770053863525
1617796489.18629,-84.54349,36.30640006065369
1617796489.20191,-77.81668,36.322020053863525
1617796489.21754,-68.70331,36.33765006065369
1617796489.23316,-57.02957,36.353270053863525
1617796489.24879,-44.20593,36.36890006065369
1617796489.26442,-32.35336,36.38453006744385
1617796489.28004,-23.19864,36.40015006065369
1617796489.29567,-17.46964,36.41578006744385
1617796489.31129,-14.8045,36.43140006065369
1617796489.32692,-14.0899,36.44703006744385
1617796489.34254,-13.93124,36.46265006065369
1617796489.35817,-13.14984,36.47828006744385
1617796489.3738,-11.05038,36.49391007423401
1617796489.38942,-7.576294,36.50953006744385
1617796489.40505,-3.139496,36.52516007423401
1617796489.42067,1.631348,36.54078006744385
1617796489.4363,6.188446,36.55641007423401
1617796489.45192,10.237,36.57203006744385
1617796489.46755,13.77197,36.58766007423401
1617796489.48318,16.93463,36.60329008102417
1617796489.4988,19.8251,36.61891007423401
1617796489.51443,22.38348,36.63454008102417
1617796489.53005,24.36435,36.65016007423401
1617796489.54568,25.47632,36.66579008102417
1617796489.5613,25.53348,36.68141007423401
1617796489.57693,24.52655,36.69704008102417
1617796489.59256,22.6683,36.71267008781433
1617796489.60818,20.31689,36.72829008102417
1617796489.62381,17.84909,36.74392008781433
1617796489.63943,15.52975,36.75954008102417
1617796489.65506,13.41965,36.77517008781433
1617796489.67068,11.36526,36.79079008102417
1617796489.68631,9.068359,36.80642008781433
1617796489.70194,6.255432,36.82205009460449
1617796489.71756,2.819336,36.83767008781433
1617796489.73319,-1.12854,36.85330009460449
1617796489.74881,-5.337463,36.86892008781433
1617796489.76444,-9.507599,36.88455009460449
1617796489.78006,-13.43391,36.90017008781433
1617796489.79569,-17.04518,36.91580009460449
1617796489.81132,-20.42825,36.93143010139465
1617796489.82694,-23.80721,36.94705009460449
1617796489.84257,-27.46454,36.96268010139465
1617796489.85819,-31.7327,36.97830009460449
1617796489.87382,-36.85686,36.99393010139465
1617796489.88944,-42.8116,37.00955009460449
1617796489.90507,-49.19336,37.02518010139465
1617796489.9207,-55.1452,37.040810108184814
1617796489.93632,-59.46298,37.05643010139465
1617796489.95195,-60.90254,37.072060108184814
1617796489.96757,-58.55083,37.08768010139465
1617796489.9832,-52.07828,37.103310108184814
1617796489.99882,-41.9187,37.11893010139465
1617796490.01445,-29.12283,37.134560108184814
1617796490.03008,-15.13252,37.150190114974976
1617796490.0457,-1.41156,37.165810108184814
1617796490.06133,10.82587,37.181440114974976
1617796490.07695,20.85191,37.197060108184814
1617796490.09258,28.43367,37.212690114974976
1617796490.1082,33.73874,37.228310108184814
1617796490.12383,37.158,37.243940114974976
1617796490.13946,39.06923,37.25957012176514
1617796490.15508,39.76283,37.275190114974976
1617796490.17071,39.40993,37.29082012176514
1617796490.18633,38.15898,37.306440114974976
1617796490.20196,36.21671,37.32207012176514
1617796490.21759,33.90869,37.3377001285553
1617796490.23321,31.64285,37.35332012176514
1617796490.24884,29.7755,37.3689501285553
1617796490.26446,28.56573,37.38457012176514
1617796490.28009,28.07861,37.4002001285553
1617796490.29571,28.24811,37.41582012176514
1617796490.31134,28.9593,37.4314501285553
1617796490.32697,30.08793,37.44708013534546
1617796490.34259,31.51586,37.4627001285553
1617796490.35822,33.13129,37.47833013534546
1617796490.37384,34.73407,37.4939501285553
1617796490.38947,36.10314,37.50958013534546
1617796490.40509,36.95092,37.5252001285553
1617796490.42072,37.03349,37.54083013534546
1617796490.43635,36.20315,37.55646014213562
1617796490.45197,34.48632,37.57208013534546
1617796490.4676,32.02516,37.58771014213562
1617796490.48322,29.10701,37.60333013534546
1617796490.49885,26.06104,37.61896014213562
1617796490.51447,23.14004,37.63458013534546
1617796490.5301,20.44501,37.65021014213562
1617796490.54573,17.87317,37.66584014892578
1617796490.56135,15.18174,37.68146014213562
1617796490.57698,12.10227,37.69709014892578
1617796490.5926,8.519912,37.71271014213562
1617796490.60823,4.501192,37.72834014892578
1617796490.62385,0.2981339,37.74396014213562
1617796490.63948,-3.782596,37.75959014892578
1617796490.65511,-7.536201,37.77521991729736
1617796490.67073,-10.95127,37.79084014892578
1617796490.68636,-14.15916,37.80646991729736
1617796490.70198,-17.34995,37.82209014892578
1617796490.71761,-20.67088,37.83771991729736
1617796490.73323,-24.22402,37.85334014892578
1617796490.74886,-28.1377,37.86896991729736
1617796490.76449,-32.63364,37.884599924087524
1617796490.78011,-37.93427,37.90021991729736
1617796490.79574,-44.06029,37.915849924087524
1617796490.81136,-50.54299,37.93146991729736
1617796490.82699,-56.32681,37.947099924087524
1617796490.84261,-59.95003,37.96271991729736
1617796490.85824,-60.01374,37.978349924087524
1617796490.87387,-55.71438,37.993979930877686
1617796490.88949,-47.17706,38.009599924087524
1617796490.90512,-35.43039,38.025229930877686
1617796490.92074,-22.03551,38.040849924087524
1617796490.93637,-8.592491,38.056479930877686
1617796490.95199,3.75322,38.072099924087524
1617796490.96762,14.4074,38.087729930877686
1617796490.98325,23.21265,38.10335993766785
1617796490.99887,30.20105,38.118979930877686
1617796491.0145,35.37767,38.13460993766785
1617796491.03012,38.6864,38.150229930877686
1617796491.04575,40.1114,38.16585993766785
1617796491.06137,39.79658,38.181479930877686
1617796491.077,38.12148,38.19710993766785
1617796491.09263,35.60228,38.21273994445801
1617796491.10825,32.80785,38.22835993766785
1617796491.12388,30.20113,38.24398994445801
1617796491.1395,28.0435,38.25960993766785
1617796491.15513,26.46045,38.27523994445801
1617796491.17075,25.4561,38.29085993766785
1617796491.18638,25.03108,38.30648994445801
1617796491.20201,25.22482,38.32211995124817
1617796491.21763,26.06381,38.33773994445801
1617796491.23326,27.54005,38.35336995124817
1617796491.24888,29.54111,38.36898994445801
1617796491.26451,31.81613,38.38461995124817
1617796491.28013,34.00079,38.40023994445801
1617796491.29576,35.67766,38.41586995124817
1617796491.31139,36.46194,38.43149995803833
1617796491.32701,36.09863,38.44711995124817
1617796491.34264,34.58057,38.46274995803833
1617796491.35826,32.11394,38.47836995124817
1617796491.37389,29.03954,38.49399995803833
1617796491.38951,25.71078,38.50961995124817
1617796491.40514,22.33221,38.52524995803833
1617796491.42077,18.92274,38.54087996482849
1617796491.43639,15.33694,38.55649995803833
1617796491.45202,11.40857,38.57212996482849
1617796491.46764,7.063644,38.58774995803833
1617796491.48327,2.405243,38.60337996482849
1617796491.49889,-2.310593,38.61899995803833
1617796491.51452,-6.802277,38.63462996482849
1617796491.53015,-10.87088,38.65025997161865
1617796491.54577,-14.48466,38.66587996482849
1617796491.5614,-17.78268,38.68150997161865
1617796491.57702,-21.017,38.69712996482849
1617796491.59265,-24.51958,38.71275997161865
1617796491.60827,-28.60378,38.72837996482849
1617796491.6239,-33.4986,38.74400997161865
1617796491.63953,-39.21326,38.75963997840881
1617796491.65515,-45.37128,38.77525997161865
1617796491.67078,-51.12657,38.79088997840881
1617796491.6864,-55.23668,38.80650997161865
1617796491.70203,-56.36816,38.82213997840881
1617796491.71765,-53.50467,38.83775997161865
1617796491.73328,-46.34769,38.85338997840881
1617796491.74891,-35.50395,38.869019985198975
1617796491.76453,-22.35072,38.88463997840881
1617796491.78016,-8.558151,38.900269985198975
1617796491.79578,4.367126,38.91588997840881
1617796491.81141,15.44952,38.931519985198975
1617796491.82703,24.31848,38.94713997840881
1617796491.84266,31.05075,38.962769985198975
1617796491.85829,35.87863,38.978399991989136
1617796491.87391,38.98975,38.994019985198975
1617796491.88954,40.48557,39.009649991989136
1617796491.90516,40.47174,39.025269985198975
1617796491.92079,39.14066,39.040899991989136
1617796491.93641,36.82712,39.056519985198975
1617796491.95204,33.98001,39.072149991989136
1617796491.96767,31.03751,39.0877799987793
1617796491.98329,28.33951,39.103399991989136
1617796491.99892,26.10751,39.1190299987793
1617796492.01454,24.46469,39.134649991989136
1617796492.03017,23.49249,39.1502799987793
1617796492.04579,23.26038,39.165899991989136
1617796492.06142,23.84747,39.1815299987793
1617796492.07705,25.22217,39.19716000556946
1617796492.09267,27.22202,39.2127799987793
1617796492.1083,29.45883,39.22841000556946
1617796492.12392,31.41452,39.2440299987793
1617796492.13955,32.51431,39.25966000556946
1617796492.15517,32.36691,39.2752799987793
1617796492.1708,30.86984,39.29091000556946
1617796492.18643,28.23822,39.30654001235962
1617796492.20205,24.95059,39.32216000556946
1617796492.21768,21.4848,39.33779001235962
1617796492.2333,18.20969,39.35341000556946
1617796492.24893,15.20044,39.36904001235962
1617796492.26455,12.30328,39.38466000556946
1617796492.28018,9.196045,39.40029001235962
1617796492.29581,5.535095,39.41592001914978
1617796492.31143,1.099121,39.43154001235962
1617796492.32706,-4.10434,39.44717001914978
1617796492.34268,-9.813629,39.46279001235962
1617796492.35831,-15.58856,39.47842001914978
1617796492.37393,-20.93613,39.49404001235962
1617796492.38956,-25.52319,39.50967001914978
1617796492.40519,-29.29694,39.52530002593994
1617796492.42081,-32.56238,39.54092001914978
1617796492.43644,-35.89709,39.55655002593994
1617796492.45206,-39.96124,39.57217001914978
1617796492.46769,-45.23123,39.58780002593994
1617796492.48331,-51.73389,39.60342001914978
1617796492.49894,-58.86923,39.61905002593994
1617796492.51457,-65.45407,39.6346800327301
1617796492.53019,-69.90356,39.65030002593994
1617796492.54582,-70.68182,39.6659300327301
1617796492.56144,-66.78009,39.68155002593994
1617796492.57707,-58.1058,39.6971800327301
1617796492.5927,-45.57773,39.712810039520264
1617796492.60832,-30.86917,39.7284300327301
1617796492.62395,-15.84818,39.744060039520264
1617796492.63957,-2.033936,39.7596800327301
1617796492.6552,9.740723,39.775310039520264
1617796492.67082,19.29974,39.7909300327301
1617796492.68645,26.8381,39.806560039520264
1617796492.70208,32.57288,39.822190046310425
1617796492.7177,36.58118,39.837810039520264
1617796492.73333,38.83414,39.853440046310425
1617796492.74895,39.36951,39.869060039520264
1617796492.76458,38.42593,39.884690046310425
1617796492.7802,36.45169,39.900310039520264
1617796492.79583,34.00104,39.915940046310425
1617796492.81146,31.56546,39.931570053100586
1617796492.82708,29.47617,39.947190046310425
1617796492.84271,27.92694,39.962820053100586
1617796492.85833,27.004,39.978440046310425
1617796492.87396,26.72052,39.994070053100586
1617796492.88958,27.07999,40.009690046310425
1617796492.90521,27.99316,40.025320053100586
1617796492.92084,29.35507,40.04095005989075
1617796492.93646,31.01953,40.056570053100586
1617796492.95209,32.85556,40.07220005989075
1617796492.96771,34.67157,40.087820053100586
1617796492.98334,36.24841,40.10345005989075
1617796492.99896,37.28589,40.119070053100586
1617796493.01459,37.46033,40.13470005989075
1617796493.03022,36.50674,40.15033006668091
1617796493.04584,34.34708,40.16595005989075
1617796493.06147,31.14087,40.18158006668091
1617796493.07709,27.26205,40.19720005989075
1617796493.09272,23.17859,40.21283006668091
1617796493.10834,19.28152,40.22845005989075
1617796493.12397,15.77109,40.24408006668091
1617796493.1396,12.56067,40.25971007347107
1617796493.15522,9.35849,40.27533006668091
1617796493.17085,5.790527,40.29096007347107
1617796493.18647,1.593658,40.30658006668091
1617796493.2021,-3.267395,40.32221007347107
1617796493.21772,-8.538971,40.33783006668091
1617796493.23335,-13.77835,40.35346007347107
1617796493.24898,-18.55621,40.36909008026123
1617796493.2646,-22.62961,40.38471007347107
1617796493.28023,-26.09753,40.40034008026123
1617796493.29585,-29.32431,40.41596007347107
1617796493.31148,-32.78882,40.43159008026123
1617796493.3271,-36.93073,40.44721007347107
1617796493.34273,-42.03836,40.46284008026123
1617796493.35836,-48.13004,40.47847008705139
1617796493.37398,-54.92453,40.49409008026123
1617796493.38961,-61.73761,40.50972008705139
1617796493.40523,-67.43918,40.52534008026123
1617796493.42086,-70.60977,40.54097008705139
1617796493.43648,-69.89053,40.55659008026123
1617796493.45211,-64.4223,40.57222008705139
1617796493.46774,-54.30469,40.58785009384155
1617796493.48336,-40.62946,40.60347008705139
1617796493.49899,-25.1879,40.61910009384155
1617796493.51461,-9.864075,40.63472008705139
1617796493.53024,3.863708,40.65035009384155
1617796493.54586,15.2511,40.66597008705139
1617796493.56149,24.20413,40.68160009384155
1617796493.57712,30.9794,40.697230100631714
1617796493.59274,35.88251,40.71285009384155
1617796493.60837,39.09824,40.728480100631714
1617796493.62399,40.76471,40.74410009384155
1617796493.63962,41.02551,40.759730100631714
1617796493.65524,40.14182,40.77535009384155
1617796493.67087,38.48755,40.790980100631714
1617796493.6865,36.46667,40.806610107421875
1617796493.70212,34.45056,40.822230100631714
1617796493.71775,32.6842,40.837860107421875
1617796493.73337,31.31268,40.853480100631714
1617796493.749,30.38428,40.869110107421875
1617796493.76462,29.93182,40.884730100631714
1617796493.78025,29.98373,40.900360107421875
1617796493.79588,30.58554,40.915990114212036
1617796493.8115,31.75098,40.931610107421875
1617796493.82713,33.40784,40.947240114212036
1617796493.84275,35.33835,40.962860107421875
1617796493.85838,37.19089,40.978490114212036
1617796493.874,38.56796,40.994110107421875
1617796493.88963,39.10049,41.009740114212036
1617796493.90526,38.57529,41.0253701210022
1617796493.92088,36.9772,41.040990114212036
1617796493.93651,34.44318,41.0566201210022
1617796493.95213,31.17932,41.072240114212036
1617796493.96776,27.38693,41.0878701210022
1617796493.98338,23.19907,41.103490114212036
1617796493.99901,18.69299,41.1191201210022
1617796494.01464,14.02109,41.13475012779236
1617796494.03026,9.38562,41.1503701210022
1617796494.04589,5.067047,41.16600012779236
1617796494.06151,1.307343,41.1816201210022
1617796494.07714,-1.840332,41.19725012779236
1617796494.09276,-4.571106,41.2128701210022
1617796494.10839,-7.31958,41.22850012779236
1617796494.12402,-10.54419,41.24413013458252
1617796494.13964,-14.5162,41.25975012779236
1617796494.15527,-19.13608,41.27538013458252
1617796494.17089,-23.92596,41.29100012779236
1617796494.18652,-28.24753,41.30663013458252
1617796494.20214,-31.57532,41.32225012779236
1617796494.21777,-33.77628,41.33788013458252
1617796494.2334,-35.12936,41.35351014137268
1617796494.24902,-36.27594,41.36913013458252
1617796494.26465,-37.92499,41.38476014137268
1617796494.28027,-40.58197,41.40038013458252
1617796494.2959,-44.34967,41.41601014137268
1617796494.31152,-48.80011,41.43163013458252
1617796494.32715,-52.98563,41.44726014137268
1617796494.34278,-55.62289,41.46289014816284
1617796494.3584,-55.42511,41.47851014137268
1617796494.37403,-51.43039,41.49414014816284
1617796494.38965,-43.39136,41.50976014137268
1617796494.40528,-31.90277,41.52539014816284
1617796494.4209,-18.27658,41.54101014137268
1617796494.43653,-4.13446,41.55664014816284
1617796494.45216,9.042114,41.572269916534424
1617796494.46778,20.29062,41.58789014816284
1617796494.48341,29.30893,41.603519916534424
1617796494.49903,36.25317,41.61914014816284
1617796494.51466,41.48166,41.634769916534424
1617796494.53028,45.24854,41.65039014816284
1617796494.54591,47.63135,41.666019916534424
1617796494.56154,48.58221,41.681649923324585
1617796494.57716,48.08844,41.697269916534424
1617796494.59279,46.31989,41.712899923324585
1617796494.60841,43.62665,41.728519916534424
1617796494.62404,40.47717,41.744149923324585
1617796494.63966,37.34003,41.759769916534424
1617796494.65529,34.6203,41.775399923324585
1617796494.67092,32.63199,41.791029930114746
1617796494.68654,31.59595,41.806649923324585
1617796494.70217,31.66626,41.822279930114746
1617796494.71779,32.86557,41.837899923324585
1617796494.73342,35.05948,41.853529930114746
1617796494.74904,37.94458,41.869149923324585
1617796494.76467,41.08353,41.884779930114746
1617796494.7803,44.04959,41.90040993690491
1617796494.79592,46.50894,41.916029930114746
1617796494.81155,48.29852,41.93165993690491
1617796494.82717,49.38644,41.947279930114746
1617796494.8428,49.82791,41.96290993690491
1617796494.85842,49.67819,41.978529930114746
1617796494.87405,49.0285,41.99415993690491
1617796494.88968,48.04874,42.00978994369507
1617796494.9053,47.04257,42.02540993690491
1617796494.92093,46.42474,42.04103994369507
1617796494.93655,46.64886,42.05665993690491
1617796494.95218,48.04221,42.07228994369507
1617796494.9678,50.63382,42.08790993690491
1617796494.98343,54.15997,42.10353994369507
1617796494.99906,58.14749,42.11916995048523
1617796495.01468,62.13339,42.13478994369507
1617796495.03031,65.85696,42.15041995048523
1617796495.04593,69.39719,42.16603994369507
1617796495.06156,73.14127,42.18166995048523
1617796495.07719,77.6091,42.19729995727539
1617796495.09281,83.27676,42.21291995048523
1617796495.10844,90.44406,42.22854995727539
1617796495.12406,99.22507,42.24416995048523
1617796495.13969,109.5958,42.25979995727539
1617796495.15531,121.3949,42.27541995048523
1617796495.17094,134.207,42.29104995727539
1617796495.18657,147.2388,42.30667996406555
1617796495.20219,159.3915,42.32229995727539
1617796495.21782,169.5457,42.33792996406555
1617796495.23344,177.0055,42.35354995727539
