,index,PPG_Raw,PPG_Clean,PPG_Rate,PPG_Peaks,EDA_Raw,EDA_Clean,EDA_Tonic,EDA_Phasic,SCR_Onsets,SCR_Peaks,SCR_Height,SCR_Amplitude,SCR_RiseTime,SCR_Recovery,SCR_RecoveryTime,Index,Label,Condition,id
0,0.0,16.62943,5.24203917669245,68.72784150156411,0,0.3427955847573992,0.3428355945024737,0.34451977681999346,-0.001684124158730673,0,0,0,0,0,0,0,286,2,radost,1
1,0.015873015873015872,16.15819,4.466928985943692,67.47915942653061,0,0.3424992807679773,0.34255369034681776,0.34448620691922766,-0.0019324584504801616,0,0,0,0,0,0,0,287,2,radost,1
2,0.031746031746031744,15.22271,2.9737136998708804,66.27217235004306,0,0.3422434201657752,0.3423113534288856,0.34445279264960726,-0.0021413811373134865,0,0,0,0,0,0,0,288,2,radost,1
3,0.047619047619047616,13.57224,0.6031684513202682,65.10594367173644,0,0.34203793186143233,0.3421133963742362,0.34441953402824665,-0.0023060796107966268,0,0,0,0,0,0,0,289,2,radost,1
4,0.06349206349206349,10.97145,0.0,63.979516031577795,0,0.3418915965634136,0.34196250722875926,0.34438643107102956,-0.002423865840934222,0,0,0,0,0,0,0,290,2,radost,1
5,0.07936507936507936,7.398388,0.0,62.89191984826371,0,0.3418023743530533,0.34185918811237465,0.3443534837925142,-0.002494237722375358,0,0,0,0,0,0,0,291,2,radost,1
6,0.09523809523809523,3.192963,0.0,61.84218069233021,0,0.34176228270969744,0.3418017805217259,0.3443206922058651,-0.0025188537716519803,0,0,0,0,0,0,0,292,2,radost,1
7,0.1111111111111111,-0.9411583,0.0,60.829325623147874,0,0.34176327777319926,0.34178657512118543,0.3442880563228119,-0.0025014233361319105,0,0,0,0,0,0,0,293,2,radost,1
8,0.12698412698412698,-4.18586,0.0,59.85238860806999,0,0.3417973156834116,0.34180800009883616,0.34425557615363395,-0.0024475182380224534,0,0,0,0,0,0,0,294,2,radost,1
9,0.14285714285714285,-6.037319,0.0,58.91041513145584,0,0.34185635258018754,0.34185887897355394,0.34422325170716866,-0.0023643149672959137,0,0,0,0,0,0,0,295,2,radost,1
10,0.15873015873015872,-6.489006,0.0,58.00246609124537,0,0.3419323446033801,0.3419307463422638,0.3441910829908408,-0.0022602789344629377,0,0,0,0,0,0,0,296,2,radost,1
11,0.1746031746031746,-6.027241,0.0,57.127621071303764,0,0.3420172478928423,0.3420142084790022,0.3441590700107082,-0.0021448038715559123,0,0,0,0,0,0,0,297,2,radost,1
12,0.19047619047619047,-5.518806,0.0,56.28498106894042,0,0.3421030185884271,0.3420993348177668,0.34412721277152003,-0.002027820349337313,0,0,0,0,0,0,0,298,2,radost,1
13,0.20634920634920634,-5.782085,0.0,55.47367074885946,0,0.3421816128299876,0.3421760659782696,0.34409551127678023,-0.0019193877516099607,0,0,0,0,0,0,0,299,2,radost,1
14,0.2222222222222222,-7.390965,0.0,54.69284028732205,0,0.3422449867573767,0.3422346239406043,0.3440639655288131,-0.001829284100615415,0,0,0,0,0,0,0,300,2,radost,1
15,0.23809523809523808,-10.46277,0.0,53.94166686348444,0,0.3422850965104475,0.34226591011230345,0.344032575528823,-0.0017666079900366203,0,0,0,0,0,0,0,301,2,radost,1
16,0.25396825396825395,-14.61128,0.0,53.21935584869282,0,0.34229389822905293,0.34226187731916957,0.3440013412769443,-0.0017394065942165733,0,0,0,0,0,0,0,302,2,radost,1
17,0.2698412698412698,-18.98735,0.0,52.525141738939624,0,0.3422633480530461,0.34221586224612366,0.34397026277227544,-0.0017543432273437907,0,0,0,0,0,0,0,303,2,radost,1
18,0.2857142857142857,-22.55193,0.0,51.85828887067954,0,0.34218540212228,0.342122865693154,0.3439393400128927,-0.001816417087517402,0,0,0,0,0,0,0,304,2,radost,1
19,0.30158730158730157,-24.28901,0.0,51.21809195572908,0,0.3420520165766076,0.34197976937253427,0.3439085729958402,-0.0019287464595188156,0,0,0,0,0,0,0,305,2,radost,1
20,0.31746031746031744,-23.46586,0.0,50.60387646699362,0,0.3418559616354576,0.3417854800158317,0.34387796171709273,-0.0020924246077669963,0,0,0,0,0,0,0,306,2,radost,1
21,0.3333333333333333,-19.9375,0.0,50.01499890324226,0,0.341599859422547,0.34154099434645746,0.3438475061714903,-0.0023064548037022075,0,0,0,0,0,0,0,307,2,radost,1
22,0.3492063492063492,-14.1593,0.0,49.450846958047094,0,0.3412928774675791,0.3412493819031202,0.3438172063526437,-0.0025677675022378107,0,0,0,0,0,0,0,308,2,radost,1
23,0.36507936507936506,-7.010563,0.0,48.91083961528464,0,0.3409443012212258,0.3409156864819668,0.34378706225281075,-0.0028713188994960765,0,0,0,0,0,1,0,309,2,radost,1
24,0.38095238095238093,0.5961723,0.0,48.39442719123095,0,0.34056341613415914,0.34054675069283763,0.3437570738627463,-0.003210266376402774,0,0,0,0,0,0,0,310,2,radost,1
25,0.3968253968253968,8.065861,0.0,47.90109134123977,0,0.3401595076570511,0.3401509714107722,0.34372724117152775,-0.0035762130470071555,0,0,0,0,0,0,0,311,2,radost,1
26,0.4126984126984127,15.29191,0.0,47.430345047245915,0,0.3397418612405736,0.3397379965049715,0.34369756416636077,-0.003959511029325418,0,0,0,0,0,0,0,312,2,radost,1
27,0.42857142857142855,22.45235,3.9918205563887392,46.98173260086289,0,0.3393197623353987,0.33931837508573554,0.3436680428323696,-0.004349611198193205,0,0,0,0,0,0,0,313,2,radost,1
28,0.4444444444444444,29.77662,11.67002042488368,46.554829595620696,0,0.33890249639219827,0.3389031747112243,0.3436386771523777,-0.004735445978285331,0,0,0,0,0,0,0,314,2,radost,1
29,0.4603174603174603,37.25294,19.011411251956524,46.14924294090073,0,0.33849934886164434,0.3385035796954678,0.34360946710668416,-0.005105831035882513,0,0,0,0,0,0,0,315,2,radost,1
30,0.47619047619047616,44.23396,25.448250039673045,45.76461090935499,0,0.3381196051944089,0.33813048501103454,0.3435804126728431,-0.0054498713759818795,0,0,0,0,0,0,0,316,2,radost,1
31,0.49206349206349204,49.74041,30.287597480420004,45.40060322903142,0,0.337772550841164,0.3377941003851184,0.34355151382545174,-0.005757357245998357,0,0,0,0,0,0,0,317,2,radost,1
32,0.5079365079365079,52.82653,33.005789947226326,45.056921231061125,0,0.33746747125258153,0.3375035790643464,0.34352277053595365,-0.00601913537076014,0,0,0,0,0,0,0,318,2,radost,1
33,0.5238095238095237,53.17512,33.54894024948814,44.733298063587036,0,0.33721365187933344,0.3372666852992346,0.3434941827724628,-0.006227441467876764,0,0,0,0,0,0,0,319,2,radost,1
34,0.5396825396825397,51.43417,32.47723865881693,44.42949898262618,0,0.33702037817209174,0.3370895137286917,0.3434657504996138,-0.006376180863085782,0,0,0,0,0,0,0,320,2,radost,1
35,0.5555555555555556,48.89851,30.855126401760785,44.145321730758155,0,0.33689693558152844,0.3369762723495323,0.34343747367844285,-0.006461145520620624,0,0,0,0,0,0,0,321,2,radost,1
36,0.5714285714285714,47.06968,29.908172290843744,43.880597014925364,0,0.33685200870954146,0.33692913848432066,0.3434093522663023,-0.006480158075281041,1,0,0,0,0,0,0,322,2,radost,1
37,0.5873015873015872,47.159,30.581944565521383,43.63518909522225,0,0.3368847314236297,0.3369481940660845,0.34338138621681236,-0.006433136547671219,0,0,0,0,0,0,0,323,2,radost,1
38,0.6031746031746031,49.76176,33.19423717988562,43.40899649735317,0,0.33698658790764313,0.33703144277070984,0.34335357547984974,-0.006322077211793712,0,0,0,0,0,0,0,324,2,radost,1
39,0.6190476190476191,54.35538,37.342406483578294,43.201952862466605,0,0.33714884758803043,0.3371749073784245,0.3433259200015746,-0.006150957233592689,0,0,0,0,0,0,0,325,2,radost,1
40,0.6349206349206349,59.70606,42.119932708686264,43.01402794934887,0,0.3373627798912403,0.3373728016983859,0.3432984197244937,-0.005925562746429353,0,0,0,0,0,0,0,326,2,radost,1
41,0.6507936507936507,64.33649,46.55388906294545,42.84522880550757,0,0.3376196542437214,0.33761776789559295,0.3432710745875583,-0.0056532515242679006,0,0,0,0,0,0,0,327,2,radost,1
42,0.6666666666666666,67.36775,50.06427151855673,42.695601125528846,0,0.33791074007192234,0.337901167416976,0.34324388452629256,-0.005342662055714106,0,0,0,0,0,0,0,328,2,radost,1
43,0.6825396825396826,68.96458,52.72561155422977,42.56523081729255,0,0.3382273068022918,0.3382134120193807,0.3432168494729496,-0.005003382516187397,0,0,0,0,0,0,0,329,2,radost,1
44,0.6984126984126984,70.07027,55.196707425356195,42.454245799223756,0,0.33856062386127844,0.3385443205816145,0.3431899693566887,-0.004645593956051497,0,0,0,0,0,0,0,330,2,radost,1
45,0.7142857142857142,71.83498,58.3368774313497,42.36281805481159,0,0.3389019606753308,0.3388834872638474,0.34316324410376947,-0.004279702141408116,0,0,0,0,0,0,0,331,2,radost,1
46,0.7301587301587301,75.13441,62.67574138015021,42.2911659742055,0,0.3392425866708976,0.3392206469635218,0.34313667363775646,-0.003915972098391686,0,0,0,0,0,0,0,332,2,radost,1
47,0.746031746031746,80.10153,67.98219533914401,42.23955701689807,0,0.33957377127442745,0.33954602474095846,0.3431102578797289,-0.0035641786877725033,0,0,0,0,0,0,0,333,2,radost,1
48,0.7619047619047619,85.5546,73.15124308003072,42.20831073442635,0,0.33988678391236904,0.3398506568487736,0.3430839967484888,-0.003233285575748735,0,0,0,0,0,0,0,334,2,radost,1
49,0.7777777777777777,89.40921,76.49901361135728,42.1978021978022,1,0.340172894011171,0.3401266721746343,0.34305789016076277,-0.002931163791392003,0,0,0,0,0,0,0,335,2,radost,1
50,0.7936507936507936,89.41833,76.37499212776669,42.29019689741364,0,0.340423370997282,0.3403675243457962,0.3430319380313919,-0.0026643596222999397,0,0,0,0,0,0,0,336,2,radost,1
51,0.8095238095238095,84.34491,71.84714765122013,42.56129680593231,0,0.3406294842971506,0.3405681665389301,0.3430061402735053,-0.0024379198049428764,0,0,0,0,0,0,0,337,2,radost,1
52,0.8253968253968254,74.58187,63.16536259169695,43.00497244993952,0,0.34078282047334224,0.3407251632800218,0.3429804967986731,-0.002255279724917547,0,0,0,0,0,0,0,338,2,radost,1
53,0.8412698412698412,61.87634,51.78556116403671,43.618593098434644,0,0.34088179747473196,0.34083673623361044,0.3429550075170374,-0.0021182176278392254,0,0,0,0,0,0,0,339,2,radost,1
54,0.8571428571428571,48.48958,39.90116116199115,44.40256959314775,0,0.3409314170363735,0.3409027440725914,0.3429296723374178,-0.0020268747496443697,0,0,0,0,0,0,0,340,2,radost,1
55,0.873015873015873,36.55142,29.607771234344394,45.360045360045355,0,0.34093694848825257,0.34092459974593936,0.34290449116739063,-0.001979838048947199,0,0,0,0,0,0,0,341,2,radost,1
56,0.8888888888888888,27.43995,21.962393831275016,46.49669303033945,0,0.340903661160355,0.34090513147689266,0.34287946391334256,-0.001974279208908254,0,1,0,0,0,0,0,342,2,radost,1
57,0.9047619047619047,20.59849,16.259256971853972,47.82058425241594,0,0.34083682438266644,0.340848396290371,0.3428545904804989,-0.002006141109845555,0,0,0,0,0,0,0,343,2,radost,1
58,0.9206349206349206,13.45351,9.816989768567078,49.3421052631579,0,0.3407417074851726,0.34075945656348544,0.34282987077292765,-0.00207036127872848,0,0,0,0,0,0,0,344,2,radost,1
59,0.9365079365079365,1.811951,0.0,51.07389162561576,0,0.3406235797978595,0.34064413095690926,0.3428053046935227,-0.002161120957790057,0,0,0,0,0,0,0,345,2,radost,1
60,0.9523809523809523,-18.72511,0.0,53.03075251701709,0,0.34048771065071265,0.34050873119719816,0.3427808921439682,-0.002272108322171314,0,0,0,0,0,0,0,346,2,radost,1
61,0.9682539682539681,-51.17233,0.0,55.22954780807733,0,0.340339369373718,0.34035979570426916,0.34275663302468734,-0.0023967848523910916,0,0,0,0,0,0,0,347,2,radost,1
62,0.9841269841269841,-96.11061,0.0,57.68896921029321,0,0.3401838252968612,0.3402038301846042,0.3427325272347804,-0.002528644741080167,0,0,0,0,0,0,0,348,2,radost,1
63,1.0,-151.3262,0.0,60.42915893428329,0,0.340026347750128,0.3400470642123551,0.34270857467195404,-0.0026614583118058574,0,0,0,0,0,0,0,349,2,radost,1
0,0.0,19.37979,0.0,57.087268622244046,0,0.34704816329126137,0.3469647940292935,0.3443575267216254,0.0026073143133584775,0,0,0,0,0,0,0,1397,4,radost,3
1,0.015873015873015872,17.6507,0.0,56.645224699491415,0,0.34711304718945063,0.3470205520962846,0.3443585853596482,0.0026620287106718836,0,1,0,0,0,0,0,1398,4,radost,3
2,0.031746031746031744,16.49081,0.0,56.21109938730748,0,0.34708985793419417,0.34700336405072724,0.3443596736520346,0.0026437674438465485,0,0,0,0,0,0,0,1399,4,radost,3
3,0.047619047619047616,16.03711,0.0,55.78493648667829,0,0.34698316203462753,0.34691383274973114,0.3443607917056665,0.0025531332634619857,0,0,0,0,0,0,0,1400,4,radost,3
4,0.06349206349206349,16.22546,0.0,55.366771969440876,0,0.34680245935939635,0.3467547301026403,0.3443619396289398,0.002392897970817642,0,0,0,0,0,0,0,1401,4,radost,3
5,0.07936507936507936,16.84335,0.0,54.95663463275545,0,0.3465572619516789,0.34653087598396026,0.3443631175317125,0.0021678813309124606,0,0,0,0,0,0,0,1402,4,radost,3
6,0.09523809523809523,17.57983,0.0,54.55454672434837,0,0.3462570818546542,0.34624893965035025,0.3443643255252133,0.0018847524895283547,0,0,0,0,0,0,0,1403,4,radost,3
7,0.1111111111111111,18.20108,0.0,54.16052453937397,0,0.3459114311115006,0.34591717456849935,0.34436556372191257,0.001551764801235408,0,0,0,0,0,0,0,1404,4,radost,3
8,0.12698412698412698,18.59341,0.0,53.77457898981681,0,0.3455298217653968,0.3455451004000919,0.3443668322353605,0.0011784378145187802,0,0,0,0,0,0,0,1405,4,radost,3
9,0.14285714285714285,18.70029,0.0,53.39671614741587,0,0.34512176585952153,0.3451431476239973,0.34436813117999654,0.0007752018941595974,0,0,0,0,0,0,0,1406,4,radost,3
10,0.15873015873015872,18.52649,0.0,53.026937761139116,0,0.3446967754370533,0.3447222809975884,0.34436946067093543,0.0003530216827669571,0,0,0,0,0,0,0,1407,4,radost,3
11,0.1746031746031746,18.06863,0.0,52.66524175027399,0,0.34426436254117093,0.34429361795508673,0.34437082082373655,-7.698550064611276e-05,0,0,0,0,0,1,0,1408,4,radost,3
12,0.19047619047619047,17.30539,0.0,52.31162267422695,0,0.3438340392150528,0.34386805731793313,0.34437221175416177,-0.0005039209500498957,0,0,0,0,0,0,0,1409,4,radost,3
13,0.20634920634920634,16.13428,0.0,51.96607218014411,0,0.34341531750187765,0.3434559325243992,0.3443736335779291,-0.0009174513425401431,0,0,0,0,0,0,0,1410,4,radost,3
14,0.2222222222222222,14.47723,0.0,51.62857942947779,0,0.3430177094448243,0.34306670208237505,0.34437508641046777,-0.0013081182853051574,0,0,0,0,0,0,0,1411,4,radost,3
15,0.23809523809523808,12.23425,0.0,51.299131504630296,0,0.342650727087071,0.3427086881455015,0.3443765703666806,-0.0016675997392567744,0,0,0,0,0,0,0,1412,4,radost,3
16,0.25396825396825395,9.418884,0.0,50.97771379680751,0,0.3423238824717968,0.34238887198088325,0.34437808556071997,-0.0019889145510920904,0,0,0,0,0,0,0,1413,4,radost,3
17,0.2698412698412698,6.171844,0.0,50.664310376212555,0,0.34204668764217994,0.34211275257787654,0.3443796321057806,-0.002266563844299756,0,0,0,0,0,0,0,1414,4,radost,3
18,0.2857142857142857,2.650726,0.0,50.3589043457042,0,0.3418276026891757,0.3418842717017139,0.34438121011391504,-0.002496605965349932,0,0,0,0,0,0,0,1415,4,radost,3
19,0.30158730158730157,-0.9922791,0.0,50.06147817903578,0,0.34166661817647137,0.34170580536215345,0.34438281969587337,-0.0026766650148849565,0,0,0,0,0,0,0,1416,4,radost,3
20,0.31746031746031744,-4.697418,0.0,49.77201404478092,0,0.34155963852150495,0.34157821811740713,0.3443844609609705,-0.002805876543658104,0,0,0,0,0,0,0,1417,4,radost,3
21,0.3333333333333333,-8.491241,0.0,49.49049411704021,0,0.3415025417669749,0.3415009731790849,0.34438613401698154,-0.0028847774474853776,0,0,0,0,0,0,0,1418,4,radost,3
22,0.3492063492063492,-12.35611,0.0,49.21690087401138,0,0.3414912059555799,0.3414722883111094,0.3443878389700671,-0.002915150068255528,1,0,0,0,0,0,0,1419,4,radost,3
23,0.36507936507936506,-16.16187,0.0,48.95121738549288,0,0.3415215091300182,0.3414893253690176,0.3443895759247265,-0.002899832654581997,0,0,0,0,0,0,0,1420,4,radost,3
24,0.38095238095238093,-19.53705,0.0,48.69342759037842,0,0.3415893293329883,0.34154840021043453,0.3443913449837797,-0.002842509451311063,0,0,0,0,0,0,0,1421,4,radost,3
25,0.3968253968253968,-21.84741,0.0,48.44351656518939,0,0.3416905446071888,0.3416451996573385,0.34439314624837475,-0.002747493737264066,0,0,0,0,0,0,0,1422,4,radost,3
26,0.4126984126984127,-22.20682,0.0,48.201470784680936,0,0.3418210329953179,0.3417749930999581,0.34439497981802,-0.0026195162213727167,0,0,0,0,0,0,0,1423,4,radost,3
27,0.42857142857142855,-19.81412,0.0,47.96727837554923,0,0.3419766725400741,0.34193282800632646,0.3443968457906379,-0.0024635295331783017,0,0,0,0,0,0,0,1424,4,radost,3
28,0.4444444444444444,-14.18335,0.0,47.74092936426024,0,0.34215334128415603,0.34211370080725834,0.344398744262638,-0.0022845373379279154,0,0,0,0,0,0,0,1425,4,radost,3
29,0.4603174603174603,-5.46109,0.0,47.522415920015746,0,0.342346917270262,0.34231269712939266,0.34440067532900576,-0.0020874541036209238,0,0,0,0,0,0,0,1426,4,radost,3
30,0.47619047619047616,5.589294,0.0,47.311732593869806,0,0.3425532785410905,0.3425250979395465,0.34440263908340507,-0.001876998956757075,0,0,0,0,0,0,0,1427,4,radost,3
31,0.49206349206349204,17.90927,0.0,47.108876555009715,0,0.34276830313934,0.34274645067224835,0.3444046356182915,-0.0016576245549167542,0,0,0,0,0,0,0,1428,4,radost,3
32,0.5079365079365079,30.16055,0.0,46.91384782521917,0,0.34298786910770895,0.3429726067138298,0.34440666502503303,-0.0014334796027900896,0,0,0,0,0,0,0,1429,4,radost,3
33,0.5238095238095237,41.16666,0.0,46.72664951254854,0,0.3432078544888957,0.34319972862692155,0.3444087273940365,-0.001208401627806942,0,0,0,0,0,0,0,1430,4,radost,3
34,0.5396825396825397,50.21597,6.937851497787622,46.54728804522864,0,0.3434242437738583,0.3434242721662547,0.3444108228148763,-0.0009859349644648458,0,0,0,0,0,0,0,1431,4,radost,3
35,0.5555555555555556,57.31891,14.803631540677738,46.37577340687894,0,0.3436341095750746,0.343642949425927,0.3444129513764241,-0.0007693676071922903,0,0,0,0,0,0,0,1432,4,radost,3
36,0.5714285714285714,63.04825,21.469286569909855,46.21211937408231,0,0.34383516155319765,0.34385268033980393,0.34441511316697715,-0.0005617797100759255,0,0,0,0,0,0,0,1433,4,radost,3
37,0.5873015873015872,68.28381,27.658908189003313,46.0563437574221,0,0.34402511741527697,0.3440505401974954,0.34441730827438294,-0.0003660960710085892,0,0,0,0,0,0,0,1434,4,radost,3
38,0.6031746031746031,73.79398,34.05320264280929,45.90846864710839,0,0.3442016948683615,0.344233710806106,0.344419536786159,-0.00018513497005906215,0,0,0,0,0,0,0,1435,4,radost,3
39,0.6190476190476191,79.94214,41.024997309917765,45.76852066435688,0,0.34436261161950066,0.3443994424041139,0.3444217987896056,-2.1646255705322587e-05,0,0,0,0,0,0,0,1436,4,radost,3
40,0.6349206349206349,86.91318,48.51850571652604,45.6365312197254,0,0.34450558537574383,0.3445450324266973,0.34442409437190996,0.00012166742038689348,0,0,0,0,0,0,0,1437,4,radost,3
41,0.6507936507936507,94.16345,56.12239786801743,45.51253677966438,0,0.34462833384413993,0.3446678257733051,0.3444264236202406,0.0002421508708411401,0,0,0,0,0,0,0,1438,4,radost,3
42,0.6666666666666666,100.8285,63.30900968228437,45.39657914259362,0,0.34472857473173857,0.34476523941261517,0.34442878662182963,0.0003372209774458559,0,0,0,0,0,0,0,1439,4,radost,3
43,0.6825396825396826,106.243,69.73579566565328,45.28870572588468,0,0.34480402574558877,0.3448348120806408,0.34443118346404183,0.00040441638919184325,0,0,0,0,0,0,0,1440,4,radost,3
44,0.6984126984126984,110.468,75.46837867129508,45.188969865202225,0,0.34485240459274,0.34487427761318,0.3444336142344294,0.0004414708546666696,0,0,0,0,0,0,0,1441,4,radost,3
45,0.7142857142857142,114.2152,81.01443979421772,45.09743112774345,0,0.34487142898024137,0.34488165825347755,0.34443607902077006,0.0004464065296787772,0,1,0,0,0,0,0,1442,4,radost,3
46,0.7301587301587301,118.5649,87.1442496222201,45.01415564101064,0,0.34485881661514217,0.3448553722544074,0.344438577911088,0.00041764157941872454,0,0,0,0,0,0,0,1443,4,radost,3
47,0.746031746031746,124.3658,94.57187629787474,44.93921643886003,0,0.3448122852044917,0.3447943484226235,0.3444411109936565,0.00035410472260762277,0,0,0,0,0,0,0,1444,4,radost,3
48,0.7619047619047619,131.8561,103.63187443355123,44.87269382669255,0,0.34472955245533926,0.34469813909447405,0.34444367835698064,0.00025534820742839013,0,0,0,0,0,0,0,1445,4,radost,3
49,0.7777777777777777,141.0591,114.08639415185931,44.8146757677881,0,0.34460833607473396,0.34456702252995763,0.3444462800897605,0.00012165020551904861,0,0,0,0,0,0,0,1446,4,radost,3
50,0.7936507936507936,151.0353,125.14415529910467,44.76525829293909,0,0.34444669581623943,0.34440208595291527,0.34444891628083385,-4.5902147778277905e-05,0,0,0,0,0,0,0,1447,4,radost,3
51,0.8095238095238095,160.3388,135.68796024350505,44.724545935710104,0,0.3442472116713085,0.3442052814668075,0.3444515870190985,-0.0002453568375626159,0,0,0,0,0,0,0,1448,4,radost,3
52,0.8253968253968254,167.6669,144.6217811258825,44.69265219584298,0,0.34401566087349406,0.34397944874685293,0.344454292393416,-0.00047387427713909823,0,0,0,0,0,0,0,1449,4,radost,3
53,0.8412698412698412,172.3493,151.19828613660098,44.66970003354169,0,0.34375788811762953,0.3437283005569805,0.34445703249249665,-0.0007277417909516446,0,0,0,0,0,0,0,1450,4,radost,3
54,0.8571428571428571,174.3388,155.19645731950266,44.65582239761167,0,0.3434797380985484,0.3434563695040202,0.3444598074047674,-0.0010024268602606492,0,0,0,0,0,0,0,1451,4,radost,3
55,0.873015873015873,173.9204,156.87741177881833,44.651162790697676,1,0.3431870555110842,0.34316891676704786,0.3444626172182262,-0.0012926683936521275,0,0,0,0,0,1,0,1452,4,radost,3
56,0.8888888888888888,171.3918,156.72286528838563,44.763933820327594,0,0.3428856850500703,0.3428718056410682,0.344465462020284,-0.0015926031831968626,0,0,0,0,0,0,0,1453,4,radost,3
57,0.9047619047619047,166.877,155.03050335918326,45.09449465899753,0,0.3425814714103402,0.3425713445178139,0.34446834189759784,-0.0018959229234839891,0,0,0,0,0,0,0,1454,4,radost,3
58,0.9206349206349206,160.7495,151.49809203830142,45.63538759043632,0,0.3422802592867276,0.34227410537467223,0.34447125693589836,-0.0021960557225227184,0,0,0,0,0,0,0,1455,4,radost,3
59,0.9365079365079365,152.1401,144.9650617627738,46.38399774616143,0,0.34198789337406565,0.34198672497954097,0.3444742072198157,-0.002486364896711748,0,0,0,0,0,0,0,1456,4,radost,3
60,0.9523809523809523,138.9492,133.46745910709564,47.341910352403616,0,0.3417102183671882,0.3417156968768444,0.34447719283270717,-0.002760356984650962,0,0,0,0,0,0,0,1457,4,radost,3
61,0.9682539682539681,118.5075,114.6759178359758,48.514494088180044,0,0.34145307896092836,0.3414671628129857,0.34448021385649075,-0.0030118903215226784,0,0,0,0,0,0,0,1458,4,radost,3
62,0.9841269841269841,88.67119,86.64956203970667,49.910641754671,0,0.3412223198501199,0.34124671257126277,0.3444832703714874,-0.003235375204018311,0,0,0,0,0,0,0,1459,4,radost,3
63,1.0,48.92188,48.71289469757523,51.54261563747359,0,0.34102378572959613,0.3410592011645748,0.3444863624562769,-0.0034259566974872142,0,0,0,0,0,0,0,1460,4,radost,3
0,0.0,8.162842,0.0,68.73837021297719,0,0.3548674062912582,0.35487834164225707,0.35091727812019263,0.003682342922076185,0,0,0,0,0,0,0,2629,6,radost,5
1,0.015873015873015872,7.28009,0.0,67.68295302668513,0,0.35492833420617,0.3549349451982286,0.3509191167693522,0.0037357009774558535,0,0,0,0,0,0,0,2630,6,radost,5
2,0.031746031746031744,7.183441,0.0,66.65267076306112,0,0.3549667081574677,0.3549675298441109,0.35092095660774564,0.003765035906533361,0,0,0,0,0,0,0,2631,6,radost,5
3,0.047619047619047616,8.493103,0.0,65.64771526107802,0,0.35498069878651817,0.3549745923480421,0.3509227976068618,0.003768844518961778,0,1,0,0,0,0,0,2632,6,radost,5
4,0.06349206349206349,11.42313,0.0,64.66819245911162,0,0.3549684767346879,0.3549549447758733,0.3509246397405317,0.003745938919928719,0,0,0,0,0,0,0,2633,6,radost,5
5,0.07936507936507936,15.80045,0.0,63.714132393395595,0,0.3549282126433436,0.3549077757415107,0.35092648298493084,0.0036955077604961905,0,0,0,0,0,0,0,2634,6,radost,5
6,0.09523809523809523,21.01016,0.0,62.785498426223135,0,0.35485807715385187,0.35483270195627653,0.35092832731856716,0.003617167786975345,0,0,0,0,0,0,0,2635,6,radost,5
7,0.1111111111111111,26.20157,0.0,61.88219573317762,0,0.354756291101183,0.354729806299494,0.3509301727222519,0.003511001911540904,0,0,0,0,0,0,0,2636,6,radost,5
8,0.12698412698412698,30.55017,0.0,61.00407908353025,0,0.35462307081550015,0.3545996594043178,0.3509320191790552,0.0033775807981067047,0,0,0,0,0,0,0,2637,6,radost,5
9,0.14285714285714285,33.50052,0.0,60.15095995127984,0,0.354461250721212,0.35444332285782454,0.35093386667424536,0.003217966062478196,0,0,0,0,0,0,0,2638,6,radost,5
10,0.15873015873015872,34.95041,0.12815953180234152,59.322612996391555,0,0.35427384284169117,0.3542623334367337,0.3509357151952126,0.0030336945081500762,0,0,0,0,0,0,0,2639,6,radost,5
11,0.1746031746031746,35.13901,0.0,58.51878195684931,0,0.3540638592003102,0.3540586691765299,0.3509375647313775,0.0028267441955208946,0,0,0,0,0,0,0,2640,6,radost,5
12,0.19047619047619047,34.4527,0.0,57.73918499237309,0,0.35383431182044184,0.35383469933213213,0.3509394152740855,0.002599484402668793,0,0,0,0,0,0,0,2641,6,radost,5
13,0.20634920634920634,33.11566,0.0,56.983519520239646,0,0.35358821272545843,0.3535931212992188,0.3509412668164886,0.0023546125467960683,0,0,0,0,0,0,0,2642,6,radost,5
14,0.2222222222222222,31.07111,0.0,56.25146658273459,0,0.3533285739387326,0.35333688825321097,0.35094311935341443,0.0020950818233433587,0,0,0,0,0,0,0,2643,6,radost,5
15,0.23809523809523808,27.98331,0.0,55.5426947844774,0,0.3530584074836369,0.3530691316115283,0.3509449728812262,0.001824023668387182,0,0,0,0,0,0,0,2644,6,radost,5
16,0.25396825396825395,23.42285,0.0,54.856863836306005,0,0.3527807253835441,0.3527930824591405,0.3509468273976737,0.001544669184340798,0,0,0,0,0,1,0,2645,6,radost,5
17,0.2698412698412698,17.17679,0.0,54.19362774067017,0,0.35249853966182665,0.35251199584580073,0.3509486829017374,0.0012602734373445808,0,0,0,0,0,0,0,2646,6,radost,5
18,0.2857142857142857,9.420197,0.0,53.55263765163256,0,0.35221486234185695,0.3522290814219313,0.35095053939346843,0.0009740460933125013,0,0,0,0,0,0,0,2647,6,radost,5
19,0.30158730158730157,0.9375305,0.0,52.933544440673614,0,0.3519327054470077,0.3519474432826481,0.35095239687382485,0.0006890912621209251,0,0,0,0,0,0,0,2648,6,radost,5
20,0.31746031746031744,-7.171417,0.0,52.336000997582886,0,0.35165508100065157,0.35167003118090423,0.3509542553445076,0.00040835871091747826,0,0,0,0,0,0,0,2649,6,radost,5
21,0.3333333333333333,-13.66745,0.0,51.75966429383651,0,0.351385001026161,0.35139960448575785,0.35095611480779654,0.00013460782255376893,0,0,0,0,0,0,0,2650,6,radost,5
22,0.3492063492063492,-17.50415,0.0,51.20419723403086,0,0.35112547754690876,0.3511387094265805,0.35095797526638906,-0.00012961516004465401,0,0,0,0,0,0,0,2651,6,radost,5
23,0.36507936507936506,-17.86511,0.0,50.66927031919225,0,0.3508795103981623,0.35088966930224574,0.3509598367232429,-0.0003819869245309496,0,0,0,0,0,0,0,2652,6,radost,5
24,0.38095238095238093,-14.38507,0.0,50.15456314412386,0,0.3506493249628578,0.3506545864752847,0.35096169918142406,-0.0006204050948288497,0,0,0,0,0,0,0,2653,6,radost,5
25,0.3968253968253968,-7.195038,0.0,49.659765749397934,0,0.35043592072165053,0.3504353541584683,0.35096356264396206,-0.0008429764444045874,0,0,0,0,0,0,0,2654,6,radost,5
26,0.4126984126984127,3.02002,0.0,49.184579847160265,0,0.3502401886633691,0.3502336752980727,0.3509654271137125,-0.0010479980128636252,0,0,0,0,0,0,0,2655,6,radost,5
27,0.42857142857142855,15.10791,0.0,48.72871993859105,0,0.35006301977684223,0.35005108534002016,0.35096729259322934,-0.0012339343396807708,0,0,0,0,0,0,0,2656,6,radost,5
28,0.4444444444444444,27.81497,0.0,48.291914339663315,0,0.3499053050508985,0.3498889754040611,0.35096915908464754,-0.001399394289900004,0,0,0,0,0,0,0,2657,6,radost,5
29,0.4603174603174603,39.75568,0.0,47.87390613076093,0,0.3497679354743666,0.3497486124354592,0.3509710265895758,-0.0015431109023413346,0,0,0,0,0,0,0,2658,6,radost,5
30,0.47619047619047616,49.70615,1.8592579334290158,47.47445404476126,0,0.34965180203607515,0.3496311532661852,0.35097289510900187,-0.0016639273283116085,0,0,0,0,0,0,0,2659,6,radost,5
31,0.49206349206349204,56.90057,9.049966958729403,47.093333307354776,0,0.3495577957248528,0.34953765017504795,0.35097476464321054,-0.0017607912713904137,0,0,0,0,0,0,0,2660,6,radost,5
32,0.5079365079365079,61.42371,13.885734255595306,46.73033644266346,0,0.34948680752952827,0.34946904643449495,0.35097663519171446,-0.0018327594405592078,0,0,0,0,0,0,0,2661,6,radost,5
33,0.5238095238095237,64.06885,17.103654661186106,46.38527405663365,0,0.3494397284389301,0.3494261613936782,0.35097850675319925,-0.0018790124670801478,0,0,0,0,0,0,0,2662,6,radost,5
34,0.5396825396825397,66.07599,19.814766994828076,46.057975610215465,0,0.3494174494418871,0.3494096657792194,0.3509803793254826,-0.0018988796036889183,1,0,0,0,0,0,0,2663,6,radost,5
35,0.5555555555555556,68.64978,23.145061415315876,45.74829019400278,0,0.34942086152722773,0.34942004899394635,0.35098225290548846,-0.0018918714258317915,0,0,0,0,0,0,0,2664,6,radost,5
36,0.5714285714285714,72.59177,27.86867377473986,45.456087315795216,0,0.3494508556837809,0.34945758115447123,0.3509841274892367,-0.001857717794075946,0,0,0,0,0,0,0,2665,6,radost,5
37,0.5873015873015872,78.38461,34.1603147513111,45.181257712462056,0,0.3495083229003749,0.3495222733313446,0.350986003071848,-0.0017964076139596091,0,0,0,0,0,0,0,2666,6,radost,5
38,0.6031746031746031,85.60025,41.565345588747654,44.92371419753851,0,0.3495941541658387,0.34961383985627154,0.3509878796475646,-0.0017082265287957166,0,0,0,0,0,0,0,2667,6,radost,5
39,0.6190476190476191,93.16672,49.214931903085564,44.6833925561774,0,0.3497092301012403,0.34973166658143606,0.3509897572097866,-0.001593788660383161,0,0,0,0,0,0,0,2668,6,radost,5
40,0.6349206349206349,99.7666,56.21698836737445,44.46025249941839,0,0.3498532335781932,0.34987478859752635,0.350991635751124,-0.0014540588910323575,0,0,0,0,0,0,0,2669,6,radost,5
41,0.6507936507936507,104.6932,62.07025419739465,44.25427869023545,0,0.35002355117553796,0.3500418801725833,0.35099351526346384,-0.001290362924783056,0,0,0,0,0,0,0,2670,6,radost,5
42,0.6666666666666666,108.1366,66.92470803467262,44.065481854492845,0,0.35021730977032783,0.3502312586532268,0.3509953957380514,-0.0011043833862586982,0,0,0,0,0,0,0,2671,6,radost,5
43,0.6825396825396826,111.0742,71.56638292045223,43.89389999079666,0,0.3504316362396158,0.3504409029076878,0.3509972771655858,-0.0008981413777287776,0,0,0,0,0,0,0,2672,6,radost,5
44,0.6984126984126984,114.7547,77.11556187963318,43.73959969429406,0,0.35066365746045497,0.35066848573426174,0.35099915953632865,-0.0006739640707631826,0,0,0,0,0,0,0,2673,6,radost,5
45,0.7142857142857142,120.2224,84.54552467282937,43.60267761076714,0,0.35091050030989834,0.3509114186344556,0.35100104284022365,-0.0004344399332038579,0,0,0,0,0,0,0,2674,6,radost,5
46,0.7301587301587301,128.3492,94.20919579440016,43.483262038925545,0,0.35116929166499905,0.3511669065379599,0.3510029270670269,-0.00018236400432234008,0,0,0,0,0,0,0,2675,6,radost,5
47,0.746031746031746,138.7367,105.57416128437904,43.381514700653426,0,0.35143715840281015,0.3514320095017109,0.35100481220644625,7.932380410407322e-05,0,0,0,0,0,0,0,2676,6,radost,5
48,0.7619047619047619,149.8017,117.29921495098961,43.29763270115615,0,0.3517112274003848,0.35170370808848006,0.35100669824828734,0.0003476040862364386,0,0,0,0,0,0,0,2677,6,radost,5
49,0.7777777777777777,159.317,127.65118107578607,43.2318507035322,0,0.35198862553477595,0.35197896904217607,0.35100858518260586,0.0006194436173250519,0,0,0,0,0,0,0,2678,6,radost,5
50,0.7936507936507936,165.4795,135.11195237551746,43.18444334532395,0,0.35226647968303687,0.3522548079895707,0.35101047299986315,0.0008918580552805765,0,0,0,0,0,0,0,2679,6,radost,5
51,0.8095238095238095,167.577,138.933569319755,43.155727928155294,0,0.3525419167222202,0.3525283461838567,0.35101236169108424,0.001161968684074514,0,0,0,0,0,0,0,2680,6,radost,5
52,0.8253968253968254,165.9224,139.40659118697272,43.146067415730336,1,0.35281206352937955,0.35279685874159356,0.3510142512480159,0.0014270506505282754,0,0,0,0,0,0,0,2681,6,radost,5
53,0.8412698412698412,161.5939,137.70541542547213,43.26704215322209,0,0.35307404698156775,0.3530578123944038,0.3510161416632836,0.001684570715853082,0,0,0,0,0,0,0,2682,6,radost,5
54,0.8571428571428571,155.9868,135.32367468523742,43.621580535710066,0,0.35332499395583783,0.3533088914667751,0.3510180329305457,0.0019322132332986837,0,0,0,0,0,0,0,2683,6,radost,5
55,0.873015873015873,150.9162,133.27100187612874,44.202049549193916,0,0.3535620337836939,0.3535480115855256,0.351019925044643,0.002167893857470344,0,0,0,0,0,0,0,2684,6,radost,5
56,0.8888888888888888,146.6771,131.32467139674878,45.00656495795152,0,0.35378294028602936,0.3537733214979411,0.35102181800174326,0.0023897613623224015,0,0,0,0,0,0,0,2685,6,radost,5
57,0.9047619047619047,141.4723,127.65968729363776,46.03826313228002,0,0.35398699158119884,0.35398319427712394,0.35102371179947767,0.002596188846371076,0,0,0,0,0,0,0,2686,6,radost,5
58,0.9206349206349206,131.5585,119.0795918546561,47.30486506581949,0,0.354173680026708,0.3541762100521306,0.3510256064370706,0.0027857564627038842,0,0,0,0,0,0,0,2687,6,radost,5
59,0.9365079365079365,112.8397,101.86420401680289,48.818446223811414,0,0.3543424979800628,0.35435113312459876,0.3510275019154599,0.0029572285354867184,0,0,0,0,0,0,0,2688,6,radost,5
60,0.9523809523809523,82.44882,73.02895168559715,50.59534751085605,0,0.354492937798769,0.3545068868289372,0.35102939823740736,0.0031095284200447445,0,0,0,0,0,0,0,2689,6,radost,5
61,0.9682539682539681,39.89912,31.639294211799495,52.65617064499746,0,0.3546244918403325,0.35464252968748583,0.3510312954075991,0.003241714657922549,0,0,0,0,0,0,0,2690,6,radost,5
62,0.9841269841269841,-12.39372,0.0,55.025797419457234,0,0.3547366524622593,0.35475723627003136,0.3510331934327343,0.0033529618363121135,0,0,0,0,0,0,0,2691,6,radost,5
63,1.0,-72.96379,0.0,57.73335604494148,0,0.3548289120220552,0.3548502856933049,0.35103509232160285,0.0034425490874736724,0,0,0,0,0,0,0,2692,6,radost,5
