timestamp,value,norm_ts
1617796676.05432,47.14392,2.3733701705932617
1617796676.06994,45.15558,2.3889901638031006
1617796676.08557,41.9231,2.4046201705932617
1617796676.10119,38.0943,2.4202401638031006
1617796676.11682,34.28613,2.4358701705932617
1617796676.13245,31.01343,2.451500177383423
1617796676.14807,28.60919,2.4671201705932617
1617796676.1637,27.18463,2.482750177383423
1617796676.17932,26.69604,2.4983701705932617
1617796676.19495,26.98413,2.514000177383423
1617796676.21057,27.84863,2.5296201705932617
1617796676.2262,29.09735,2.545250177383423
1617796676.24183,30.57214,2.560880184173584
1617796676.25745,32.08612,2.576500177383423
1617796676.27308,33.44025,2.592130184173584
1617796676.2887,34.43115,2.607750177383423
1617796676.30433,34.8512,2.623380184173584
1617796676.31995,34.56494,2.639000177383423
1617796676.33558,33.51526,2.654630184173584
1617796676.35121,31.73877,2.670260190963745
1617796676.36683,29.34796,2.685880184173584
1617796676.38246,26.45215,2.701510190963745
1617796676.39808,23.14954,2.717130184173584
1617796676.41371,19.47913,2.732760190963745
1617796676.42933,15.44464,2.748380184173584
1617796676.44496,11.09595,2.764010190963745
1617796676.46059,6.528931,2.779639959335327
1617796676.47621,1.878235,2.795260190963745
1617796676.49184,-2.757996,2.810889959335327
1617796676.50746,-7.425171,2.826510190963745
1617796676.52309,-12.36322,2.842139959335327
1617796676.53871,-17.88055,2.857760190963745
1617796676.55434,-24.15552,2.873389959335327
1617796676.56997,-30.99719,2.8890199661254883
1617796676.58559,-37.73163,2.904639959335327
1617796676.60122,-43.21655,2.9202699661254883
1617796676.61684,-46.10522,2.935889959335327
1617796676.63247,-45.23297,2.9515199661254883
1617796676.64809,-40.02826,2.967139959335327
1617796676.66372,-30.71136,2.9827699661254883
1617796676.67935,-18.2663,2.9983999729156494
1617796676.69497,-4.154724,3.0140199661254883
1617796676.7106,10.08673,3.0296499729156494
1617796676.72622,23.17334,3.0452699661254883
1617796676.74185,34.27368,3.0608999729156494
1617796676.75747,43.00446,3.0765199661254883
1617796676.7731,49.26849,3.0921499729156494
1617796676.78873,53.12097,3.1077799797058105
1617796676.80435,54.67981,3.1233999729156494
1617796676.81998,54.0766,3.1390299797058105
1617796676.8356,51.5799,3.1546499729156494
1617796676.85123,47.60822,3.1702799797058105
1617796676.86685,42.74597,3.1858999729156494
1617796676.88248,37.64661,3.2015299797058105
1617796676.89811,32.91669,3.2171599864959717
1617796676.91373,28.98474,3.2327799797058105
1617796676.92936,26.04523,3.2484099864959717
1617796676.94498,24.08734,3.2640299797058105
1617796676.96061,22.96271,3.2796599864959717
1617796676.97623,22.47552,3.2952799797058105
1617796676.99186,22.43304,3.3109099864959717
1617796677.00749,22.69531,3.326539993286133
1617796677.02311,23.14478,3.3421599864959717
1617796677.03874,23.67175,3.357789993286133
1617796677.05436,24.13507,3.3734099864959717
1617796677.06999,24.36493,3.389039993286133
1617796677.08561,24.11163,3.4046599864959717
1617796677.10124,23.11145,3.420289993286133
1617796677.11687,21.18365,3.435920000076294
1617796677.13249,18.29919,3.451539993286133
1617796677.14812,14.66467,3.467170000076294
1617796677.16374,10.64795,3.482789993286133
1617796677.17937,6.658447,3.498420000076294
1617796677.19499,2.929565,3.514039993286133
1617796677.21062,-0.550415,3.529670000076294
1617796677.22625,-4.078003,3.545300006866455
1617796677.24187,-8.058716,3.560920000076294
1617796677.2575,-12.8634,3.576550006866455
1617796677.27312,-18.72607,3.592170000076294
1617796677.28875,-25.7334,3.607800006866455
1617796677.30437,-33.80261,3.623420000076294
1617796677.32,-42.64038,3.639050006866455
1617796677.33563,-51.59009,3.654680013656616
1617796677.35125,-59.53711,3.670300006866455
1617796677.36688,-64.99573,3.685930013656616
1617796677.3825,-66.44434,3.701550006866455
1617796677.39813,-62.80823,3.717180013656616
1617796677.41375,-53.9021,3.732800006866455
1617796677.42938,-40.56982,3.748430013656616
1617796677.44501,-24.43506,3.7640600204467773
1617796677.46063,-7.393799,3.779680013656616
1617796677.47626,8.907715,3.7953100204467773
1617796677.49188,23.39648,3.810930013656616
1617796677.50751,35.56738,3.8265600204467773
1617796677.52313,45.31189,3.842180013656616
1617796677.53876,52.64795,3.8578100204467773
1617796677.55439,57.60388,3.8734400272369385
1617796677.57001,60.21497,3.8890600204467773
1617796677.58564,60.63965,3.9046900272369385
1617796677.60126,59.20776,3.9203100204467773
1617796677.61689,56.46948,3.9359400272369385
1617796677.63251,53.04077,3.9515600204467773
1617796677.64814,49.50208,3.9671900272369385
1617796677.66377,46.27441,3.9828200340270996
1617796677.67939,43.5874,3.9984400272369385
1617796677.69502,41.50452,4.0140700340271
1617796677.71064,40.00537,4.0296900272369385
1617796677.72627,39.04114,4.0453200340271
1617796677.74189,38.58948,4.0609400272369385
1617796677.75752,38.59302,4.0765700340271
1617796677.77315,38.93738,4.092200040817261
1617796677.78877,39.39392,4.1078200340271
1617796677.8044,39.64331,4.123450040817261
1617796677.82002,39.37305,4.1390700340271
1617796677.83565,38.37073,4.154700040817261
1617796677.85127,36.59912,4.1703200340271
1617796677.8669,34.19946,4.185950040817261
1617796677.88253,31.36108,4.201580047607422
1617796677.89815,28.25012,4.217200040817261
1617796677.91378,24.87183,4.232830047607422
1617796677.9294,21.11487,4.248450040817261
1617796677.94503,16.81287,4.264080047607422
1617796677.96065,11.87402,4.279700040817261
1617796677.97628,6.36731,4.295330047607422
1617796677.99191,0.5391846,4.310960054397583
1617796678.00753,-5.274902,4.326580047607422
1617796678.02316,-10.79102,4.342210054397583
1617796678.03878,-15.92151,4.357830047607422
1617796678.05441,-20.85046,4.373460054397583
1617796678.07003,-26.01025,4.389080047607422
1617796678.08566,-31.98169,4.404710054397583
1617796678.10129,-39.20959,4.420340061187744
1617796678.11691,-47.75696,4.435960054397583
1617796678.13254,-57.03503,4.451590061187744
1617796678.14816,-65.79077,4.467210054397583
1617796678.16379,-72.33252,4.482840061187744
1617796678.17941,-74.93933,4.498460054397583
1617796678.19504,-72.44824,4.514090061187744
1617796678.21067,-64.59814,4.529720067977905
1617796678.22629,-52.146,4.545340061187744
1617796678.24192,-36.55469,4.560970067977905
1617796678.25754,-19.59131,4.576590061187744
1617796678.27317,-2.824951,4.592220067977905
1617796678.28879,12.62451,4.607840061187744
1617796678.30442,26.0946,4.623470067977905
1617796678.32005,37.26892,4.639100074768066
1617796678.33567,45.97656,4.654720067977905
1617796678.3513,52.11584,4.670350074768066
1617796678.36692,55.71875,4.685970067977905
1617796678.38255,56.95667,4.701600074768066
1617796678.39818,56.21399,4.7172300815582275
1617796678.4138,53.99829,4.732850074768066
1617796678.42943,50.86121,4.7484800815582275
1617796678.44505,47.31042,4.764100074768066
1617796678.46068,43.77722,4.7797300815582275
1617796678.4763,40.57947,4.795350074768066
1617796678.49193,37.92993,4.8109800815582275
1617796678.50756,35.9342,4.826610088348389
1617796678.52318,34.61377,4.8422300815582275
1617796678.53881,33.93115,4.857860088348389
1617796678.55443,33.80615,4.8734800815582275
1617796678.57006,34.16833,4.889110088348389
1617796678.58568,34.88538,4.9047300815582275
1617796678.60131,35.78564,4.920360088348389
1617796678.61694,36.59827,4.93599009513855
1617796678.63256,36.99524,4.951610088348389
1617796678.64819,36.66321,4.96724009513855
1617796678.66381,35.39441,4.982860088348389
1617796678.67944,33.16418,4.99849009513855
1617796678.69506,30.10999,5.014110088348389
1617796678.71069,26.51477,5.02974009513855
1617796678.72632,22.66907,5.045370101928711
1617796678.74194,18.80408,5.06099009513855
1617796678.75757,15.00452,5.076620101928711
1617796678.77319,11.20105,5.09224009513855
1617796678.78882,7.194092,5.107870101928711
1617796678.80444,2.747803,5.12349009513855
1617796678.82007,-2.254395,5.139120101928711
1617796678.8357,-7.732544,5.154750108718872
1617796678.85132,-13.37756,5.170370101928711
1617796678.86695,-18.74426,5.186000108718872
1617796678.88257,-23.44458,5.201620101928711
1617796678.8982,-27.33679,5.217250108718872
1617796678.91382,-30.6322,5.232870101928711
1617796678.92945,-33.84692,5.248500108718872
1617796678.94508,-37.61768,5.264130115509033
1617796678.9607,-42.48535,5.279750108718872
1617796678.97633,-48.63342,5.295380115509033
1617796678.99195,-55.74011,5.311000108718872
1617796679.00758,-62.98535,5.326630115509033
1617796679.0232,-69.12415,5.342250108718872
1617796679.03883,-72.73083,5.357880115509033
1617796679.05446,-72.50757,5.373510122299194
1617796679.07008,-67.65796,5.389130115509033
1617796679.08571,-58.11292,5.404760122299194
1617796679.10133,-44.61792,5.420380115509033
1617796679.11696,-28.54517,5.436010122299194
1617796679.13258,-11.59521,5.451630115509033
1617796679.14821,4.641968,5.467260122299194
1617796679.16384,18.97156,5.4828901290893555
1617796679.17946,30.7262,5.498510122299194
1617796679.19509,39.71521,5.5141401290893555
1617796679.21071,46.05493,5.529760122299194
1617796679.22634,50.00696,5.5453901290893555
1617796679.24196,51.84937,5.561010122299194
1617796679.25759,51.92114,5.5766401290893555
1617796679.27322,50.59216,5.592270135879517
1617796679.28884,48.29541,5.6078901290893555
1617796679.30447,45.47693,5.623520135879517
1617796679.32009,42.56836,5.6391401290893555
1617796679.33572,39.89502,5.654770135879517
1617796679.35134,37.66882,5.6703901290893555
1617796679.36697,36.01025,5.686020135879517
1617796679.3826,34.94128,5.701650142669678
1617796679.39822,34.47095,5.717270135879517
1617796679.41385,34.57959,5.732900142669678
1617796679.42947,35.23584,5.748520135879517
1617796679.4451,36.35803,5.764150142669678
1617796679.46072,37.75574,5.779770135879517
1617796679.47635,39.12463,5.795400142669678
1617796679.49198,40.07507,5.811030149459839
1617796679.5076,40.23914,5.826650142669678
1617796679.52323,39.35107,5.842280149459839
1617796679.53885,37.38916,5.857900142669678
1617796679.55448,34.54138,5.873530149459839
1617796679.5701,31.17224,5.889150142669678
1617796679.58573,27.63928,5.904780149459839
1617796679.60136,24.18359,5.92041015625
1617796679.61698,20.88452,5.936030149459839
1617796679.63261,17.63831,5.95166015625
1617796679.64823,14.28687,5.967280149459839
1617796679.66386,10.69458,5.98291015625
1617796679.67948,6.808472,5.998530149459839
1617796679.69511,2.638672,6.01416015625
1617796679.71074,-1.79126,6.029790163040161
1617796679.72636,-6.414673,6.04541015625
1617796679.74199,-11.15674,6.061040163040161
1617796679.75761,-15.89978,6.07666015625
1617796679.77324,-20.50317,6.092290163040161
1617796679.78886,-24.8175,6.10791015625
1617796679.80449,-28.80017,6.123540163040161
1617796679.82012,-32.53979,6.139170169830322
1617796679.83574,-36.26917,6.154790163040161
1617796679.85137,-40.2738,6.170420169830322
1617796679.86699,-44.72681,6.186040163040161
1617796679.88262,-49.5885,6.201670169830322
1617796679.89824,-54.46277,6.217290163040161
1617796679.91387,-58.67273,6.232920169830322
1617796679.9295,-61.32129,6.248550176620483
1617796679.94512,-61.51282,6.264170169830322
1617796679.96075,-58.54297,6.279800176620483
1617796679.97637,-52.09619,6.295420169830322
1617796679.992,-42.33643,6.311050176620483
1617796680.00762,-29.87524,6.326670169830322
1617796680.02325,-15.65515,6.342300176620483
1617796680.03888,-0.7088623,6.3579301834106445
1617796680.0545,14.01953,6.373550176620483
1617796680.07013,27.88416,6.3891801834106445
1617796680.08575,40.50354,6.404800176620483
1617796680.10138,51.74487,6.4204301834106445
1617796680.117,61.61194,6.436050176620483
1617796680.13263,70.18103,6.4516801834106445
1617796680.14826,77.52869,6.467310190200806
1617796680.16388,83.72314,6.4829301834106445
1617796680.17951,88.83423,6.498560190200806
1617796680.19513,92.82458,6.5141801834106445
1617796680.21076,95.5647,6.529810190200806
1617796680.22638,96.84106,6.5454301834106445
1617796680.24201,96.46411,6.561060190200806
1617796680.25764,94.40601,6.576689958572388
1617796680.27326,90.86401,6.592310190200806
1617796680.28889,86.18994,6.607939958572388
1617796680.30451,80.70764,6.623560190200806
1617796680.32014,74.53784,6.639189958572388
1617796680.33576,67.57007,6.654810190200806
1617796680.35139,59.61804,6.670439958572388
1617796680.36702,50.63983,6.686069965362549
1617796680.38264,40.88794,6.701689958572388
1617796680.39827,30.84131,6.717319965362549
1617796680.41389,21.0282,6.732939958572388
1617796680.42952,11.8465,6.748569965362549
1617796680.44514,3.598877,6.764189958572388
1617796680.46077,-3.35498,6.779819965362549
1617796680.4764,-8.522217,6.79544997215271
1617796680.49202,-11.40265,6.811069965362549
1617796680.50765,-11.88641,6.82669997215271
1617796680.52327,-10.57703,6.842319965362549
1617796680.5389,-8.81604,6.85794997215271
1617796680.55453,-8.222412,6.873579978942871
1617796680.57015,-9.960632,6.88919997215271
1617796680.58578,-14.24615,6.904829978942871
1617796680.6014,-20.34497,6.92044997215271
1617796680.61703,-27.07556,6.936079978942871
1617796680.63265,-33.5119,6.95169997215271
1617796680.64828,-39.38214,6.967329978942871
1617796680.66391,-44.98987,6.982959985733032
1617796680.67953,-50.76202,6.998579978942871
1617796680.69516,-56.8103,7.014209985733032
1617796680.71078,-62.84637,7.029829978942871
1617796680.72641,-68.34912,7.045459985733032
1617796680.74203,-72.90656,7.061079978942871
1617796680.75766,-76.26709,7.076709985733032
1617796680.77329,-78.20502,7.092339992523193
1617796680.78891,-78.30817,7.107959985733032
1617796680.80454,-75.92261,7.123589992523193
1617796680.82016,-70.42676,7.139209985733032
1617796680.83579,-61.60883,7.154839992523193
1617796680.85141,-49.96008,7.170459985733032
1617796680.86704,-36.62665,7.186089992523193
1617796680.88267,-23.07648,7.2017199993133545
1617796680.89829,-10.65106,7.217339992523193
1617796680.91392,-0.2446289,7.2329699993133545
1617796680.92954,7.75708,7.248589992523193
1617796680.94517,13.37567,7.2642199993133545
1617796680.96079,16.86261,7.279839992523193
1617796680.97642,18.58478,7.2954699993133545
1617796680.99205,18.94073,7.311100006103516
1617796681.00767,18.37848,7.3267199993133545
1617796681.0233,17.29828,7.342350006103516
1617796681.03892,16.03333,7.3579699993133545
1617796681.05455,14.82056,7.373600006103516
1617796681.07017,13.81189,7.3892199993133545
1617796681.0858,13.12543,7.404850006103516
1617796681.10143,12.84058,7.420480012893677
1617796681.11705,13.00262,7.436100006103516
1617796681.13268,13.59296,7.451730012893677
1617796681.1483,14.51965,7.467350006103516
1617796681.16393,15.65601,7.482980012893677
1617796681.17955,16.88104,7.498600006103516
1617796681.19518,18.08942,7.514230012893677
1617796681.21081,19.17822,7.529860019683838
1617796681.22643,20.00165,7.545480012893677
1617796681.24206,20.35333,7.561110019683838
1617796681.25768,20.02466,7.576730012893677
1617796681.27331,18.86145,7.592360019683838
1617796681.28893,16.84454,7.607980012893677
1617796681.30456,14.12323,7.623610019683838
1617796681.32019,10.94653,7.639240026473999
1617796681.33581,7.608765,7.654860019683838
1617796681.35144,4.311218,7.670490026473999
1617796681.36706,1.100281,7.686110019683838
1617796681.38269,-2.148743,7.701740026473999
1617796681.39831,-5.6521,7.717360019683838
1617796681.41394,-9.624451,7.732990026473999
1617796681.42957,-14.14716,7.74862003326416
1617796681.44519,-19.08179,7.764240026473999
1617796681.46082,-24.10291,7.77987003326416
1617796681.47644,-28.83069,7.795490026473999
1617796681.49207,-32.94055,7.81112003326416
1617796681.50769,-36.32043,7.826740026473999
1617796681.52332,-39.12488,7.84237003326416
1617796681.53895,-41.6778,7.858000040054321
1617796681.55457,-44.42664,7.87362003326416
1617796681.5702,-47.80396,7.889250040054321
1617796681.58582,-52.10065,7.90487003326416
1617796681.60145,-57.3349,7.920500040054321
1617796681.61707,-63.11017,7.93612003326416
1617796681.6327,-68.53494,7.951750040054321
1617796681.64833,-72.3381,7.967380046844482
1617796681.66395,-73.1521,7.983000040054321
1617796681.67958,-69.92178,7.998630046844482
1617796681.6952,-62.32828,8.014250040054321
1617796681.71083,-50.94568,8.029880046844482
1617796681.72645,-37.09061,8.045500040054321
1617796681.74208,-22.41241,8.061130046844482
1617796681.75771,-8.458496,8.076760053634644
1617796681.77333,3.729065,8.092380046844482
1617796681.78896,13.66034,8.108010053634644
1617796681.80458,21.28754,8.123630046844482
1617796681.82021,26.78436,8.139260053634644
1617796681.83583,30.37952,8.154880046844482
1617796681.85146,32.29559,8.170510053634644
1617796681.86709,32.81427,8.186140060424805
1617796681.88271,32.25153,8.201760053634644
1617796681.89834,30.9733,8.217390060424805
1617796681.91396,29.31494,8.233010053634644
1617796681.92959,27.47543,8.248640060424805
1617796681.94521,25.53116,8.264260053634644
1617796681.96084,23.45895,8.279890060424805
1617796681.97647,21.24121,8.295520067214966
1617796681.99209,18.9491,8.311140060424805
1617796682.00772,16.77814,8.326770067214966
1617796682.02334,14.97983,8.342390060424805
1617796682.03897,13.80118,8.358020067214966
1617796682.05459,13.35684,8.373640060424805
1617796682.07022,13.57672,8.389270067214966
1617796682.08585,14.21204,8.404900074005127
1617796682.10147,14.92096,8.420520067214966
1617796682.1171,15.35461,8.436150074005127
1617796682.13272,15.2897,8.451770067214966
1617796682.14835,14.68741,8.467400074005127
1617796682.16397,13.67499,8.483020067214966
1617796682.1796,12.44244,8.498650074005127
1617796682.19523,11.1496,8.514280080795288
1617796682.21085,9.821442,8.529900074005127
1617796682.22648,8.331482,8.545530080795288
1617796682.2421,6.47049,8.561150074005127
1617796682.25773,4.042297,8.576780080795288
1617796682.27335,0.9498596,8.592400074005127
1617796682.28898,-2.71048,8.608030080795288
1617796682.30461,-6.705872,8.62366008758545
1617796682.32023,-10.70721,8.639280080795288
1617796682.33586,-14.44092,8.65491008758545
1617796682.35148,-17.77774,8.670530080795288
1617796682.36711,-20.79608,8.68616008758545
1617796682.38273,-23.76773,8.701780080795288
1617796682.39836,-27.07581,8.71741008758545
1617796682.41399,-31.08917,8.73304009437561
1617796682.42961,-35.96915,8.74866008758545
1617796682.44524,-41.52457,8.76429009437561
1617796682.46086,-47.09143,8.77991008758545
1617796682.47649,-51.57507,8.79554009437561
1617796682.49211,-53.68637,8.81116008758545
1617796682.50774,-52.34726,8.82679009437561
1617796682.52337,-47.0582,8.842420101165771
1617796682.53899,-38.14142,8.85804009437561
1617796682.55462,-26.71579,8.873670101165771
1617796682.57024,-14.35028,8.88929009437561
1617796682.58587,-2.613922,8.904920101165771
1617796682.60149,7.384399,8.92054009437561
1617796682.61712,15.15823,8.936170101165771
1617796682.63275,20.79355,8.951800107955933
1617796682.64837,24.65613,8.967420101165771
1617796682.664,27.11734,8.983050107955933
1617796682.67962,28.38162,8.998670101165771
1617796682.69525,28.48248,9.014300107955933
1617796682.71087,27.45682,9.029920101165771
1617796682.7265,25.4288,9.045550107955933
1617796682.74213,22.68796,9.061180114746094
1617796682.75775,19.58527,9.076800107955933
1617796682.77338,16.44284,9.092430114746094
1617796682.789,13.46964,9.108050107955933
1617796682.80463,10.78214,9.123680114746094
1617796682.82026,8.473907,9.139310121536255
1617796682.83588,6.643127,9.154930114746094
1617796682.85151,5.439484,9.170560121536255
1617796682.86713,4.965729,9.186180114746094
1617796682.88276,5.194122,9.201810121536255
1617796682.89838,5.889709,9.217430114746094
1617796682.91401,6.664124,9.233060121536255
1617796682.92964,7.131592,9.248690128326416
1617796682.94526,7.038971,9.264310121536255
1617796682.96089,6.338623,9.279940128326416
1617796682.97651,5.135529,9.295560121536255
1617796682.99214,3.602234,9.311190128326416
1617796683.00776,1.834717,9.326810121536255
1617796683.02339,-0.1820984,9.342440128326416
1617796683.03902,-2.533386,9.358070135116577
1617796683.05464,-5.287598,9.373690128326416
1617796683.07027,-8.423492,9.389320135116577
1617796683.08589,-11.81601,9.404940128326416
1617796683.10152,-15.28091,9.420570135116577
1617796683.11714,-18.64935,9.436190128326416
1617796683.13277,-21.8335,9.451820135116577
1617796683.1484,-24.88876,9.467450141906738
1617796683.16402,-27.96765,9.483070135116577
1617796683.17965,-31.31232,9.498700141906738
1617796683.19527,-35.17038,9.514320135116577
1617796683.2109,-39.67233,9.529950141906738
1617796683.22652,-44.69748,9.545570135116577
1617796683.24215,-49.75424,9.561200141906738
1617796683.25778,-53.97316,9.5768301486969
1617796683.2734,-56.23943,9.592450141906738
1617796683.28903,-55.54128,9.6080801486969
1617796683.30465,-51.29364,9.623700141906738
1617796683.32028,-43.56287,9.6393301486969
1617796683.3359,-33.07402,9.654950141906738
1617796683.35153,-21.02289,9.6705801486969
1617796683.36716,-8.694946,9.68621015548706
1617796683.38278,2.83783,9.7018301486969
1617796683.39841,12.86896,9.71746015548706
1617796683.41403,21.05095,9.7330801486969
1617796683.42966,27.27399,9.74871015548706
1617796683.44528,31.52887,9.7643301486969
1617796683.46091,33.89517,9.77996015548706
1617796683.47654,34.52312,9.795590162277222
1617796683.49216,33.70763,9.81121015548706
1617796683.50779,31.84898,9.826840162277222
1617796683.52341,29.36966,9.84246015548706
1617796683.53904,26.58438,9.858090162277222
1617796683.55466,23.6888,9.87371015548706
1617796683.57029,20.77156,9.889340162277222
1617796683.58592,17.90988,9.904970169067383
1617796683.60154,15.26653,9.920590162277222
1617796683.61717,13.06487,9.936220169067383
1617796683.63279,11.51149,9.951840162277222
1617796683.64842,10.68834,9.967470169067383
1617796683.66404,10.53781,9.983090162277222
1617796683.67967,10.83575,9.998720169067383
1617796683.6953,11.30038,10.014350175857544
1617796683.71092,11.67264,10.029970169067383
1617796683.72655,11.76256,10.045600175857544
1617796683.74217,11.48157,10.061220169067383
1617796683.7578,10.78285,10.076850175857544
1617796683.77342,9.640015,10.092470169067383
1617796683.78905,8.028229,10.108100175857544
1617796683.80468,5.942978,10.123730182647705
1617796683.8203,3.379929,10.139350175857544
1617796683.83593,0.395813,10.154980182647705
1617796683.85155,-2.940567,10.170600175857544
1617796683.86718,-6.520355,10.186230182647705
1617796683.8828,-10.21107,10.201850175857544
1617796683.89843,-13.85834,10.217480182647705
1617796683.91406,-17.3175,10.233110189437866
1617796683.92968,-20.50595,10.248730182647705
1617796683.94531,-23.41507,10.264360189437866
1617796683.96093,-26.20175,10.279980182647705
1617796683.97656,-29.15022,10.295610189437866
1617796683.99218,-32.66614,10.311230182647705
1617796684.00781,-37.09192,10.326860189437866
1617796684.02344,-42.49887,10.342489957809448
1617796684.03906,-48.46857,10.358110189437866
1617796684.05469,-54.04977,10.373739957809448
1617796684.07031,-57.9209,10.389360189437866
1617796684.08594,-58.75223,10.404989957809448
1617796684.10156,-55.68257,10.420610189437866
1617796684.11719,-48.59856,10.436239957809448
1617796684.13282,-38.2292,10.45186996459961
1617796684.14844,-25.88727,10.467489957809448
1617796684.16407,-13.0946,10.48311996459961
1617796684.17969,-1.169373,10.498739957809448
1617796684.19532,9.018524,10.51436996459961
1617796684.21094,17.10384,10.529989957809448
1617796684.22657,23.10657,10.54561996459961
1617796684.2422,27.21266,10.56124997138977
1617796684.25782,29.67196,10.57686996459961
1617796684.27345,30.7084,10.59249997138977
1617796684.28907,30.56072,10.60811996459961
1617796684.3047,29.46953,10.62374997138977
1617796684.32032,27.69942,10.63936996459961
1617796684.33595,25.51505,10.65499997138977
1617796684.35158,23.13367,10.670629978179932
1617796684.3672,20.697,10.68624997138977
1617796684.38283,18.27251,10.701879978179932
1617796684.39845,15.93365,10.71749997138977
1617796684.41408,13.80273,10.733129978179932
1617796684.4297,12.07933,10.74874997138977
1617796684.44533,10.99873,10.764379978179932
1617796684.46096,10.70683,10.780009984970093
1617796684.47658,11.17898,10.795629978179932
1617796684.49221,12.17959,10.811259984970093
1617796684.50783,13.32251,10.826879978179932
1617796684.52346,14.22581,10.842509984970093
1617796684.53908,14.60725,10.858129978179932
1617796684.55471,14.37556,10.873759984970093
1617796684.57034,13.55793,10.889389991760254
1617796684.58596,12.24787,10.905009984970093
1617796684.60159,10.50134,10.920639991760254
1617796684.61721,8.341782,10.936259984970093
1617796684.63284,5.805367,10.951889991760254
1617796684.64846,2.969849,10.967509984970093
1617796684.66409,-0.01430511,10.983139991760254
1617796684.67972,-2.995384,10.998769998550415
1617796684.69534,-5.866516,11.014389991760254
1617796684.71097,-8.621292,11.030019998550415
1617796684.72659,-11.3217,11.045639991760254
1617796684.74222,-14.11058,11.061269998550415
1617796684.75784,-17.17353,11.076889991760254
1617796684.77347,-20.71548,11.092519998550415
1617796684.7891,-24.92403,11.108150005340576
1617796684.80472,-29.86401,11.123769998550415
1617796684.82035,-35.34157,11.139400005340576
1617796684.83597,-40.79933,11.155019998550415
1617796684.8516,-45.35161,11.170650005340576
1617796684.86722,-47.94461,11.186269998550415
1617796684.88285,-47.6605,11.201900005340576
1617796684.89848,-44.01839,11.217530012130737
1617796684.9141,-37.11073,11.233150005340576
1617796684.92973,-27.60633,11.248780012130737
1617796684.94535,-16.59007,11.264400005340576
1617796684.96098,-5.254272,11.280030012130737
1617796684.9766,5.332336,11.295650005340576
1617796684.99223,14.42396,11.311280012130737
1617796685.00786,21.66983,11.326910018920898
1617796685.02348,27.04812,11.342530012130737
1617796685.03911,30.71547,11.358160018920898
1617796685.05473,32.85306,11.373780012130737
1617796685.07036,33.57089,11.389410018920898
1617796685.08598,32.93691,11.405030012130737
1617796685.10161,31.0645,11.420660018920898
1617796685.11724,28.20749,11.43629002571106
1617796685.13286,24.80595,11.451910018920898
1617796685.14849,21.33813,11.46754002571106
1617796685.16411,18.2216,11.483160018920898
1617796685.17974,15.64677,11.49879002571106
1617796685.19536,13.62329,11.514410018920898
1617796685.21099,12.03745,11.53004002571106
1617796685.22662,10.80656,11.54567003250122
1617796685.24224,9.916588,11.56129002571106
1617796685.25787,9.416195,11.57692003250122
1617796685.27349,9.311146,11.59254002571106
1617796685.28912,9.503925,11.60817003250122
1617796685.30474,9.778095,11.62379002571106
1617796685.32037,9.872515,11.63942003250122
1617796685.336,9.564526,11.655050039291382
1617796685.35162,8.706564,11.67067003250122
1617796685.36725,7.265392,11.686300039291382
1617796685.38287,5.284065,11.70192003250122
1617796685.3985,2.893866,11.717550039291382
1617796685.41412,0.2523632,11.73317003250122
1617796685.42975,-2.46701,11.748800039291382
1617796685.44538,-5.106905,11.764430046081543
1617796685.461,-7.547959,11.780050039291382
1617796685.47663,-9.731284,11.795680046081543
1617796685.49225,-11.72515,11.811300039291382
1617796685.50788,-13.70596,11.826930046081543
1617796685.52351,-15.96537,11.842560052871704
1617796685.53913,-18.80275,11.858180046081543
1617796685.55476,-22.40952,11.873810052871704
1617796685.57038,-26.72157,11.889430046081543
1617796685.58601,-31.28596,11.905060052871704
1617796685.60163,-35.33878,11.920680046081543
1617796685.61726,-37.94358,11.936310052871704
1617796685.63289,-38.25483,11.951940059661865
1617796685.64851,-35.7661,11.967560052871704
1617796685.66414,-30.48971,11.983190059661865
1617796685.67976,-22.96408,11.998810052871704
1617796685.69539,-14.10351,12.014440059661865
1617796685.71101,-4.954635,12.030060052871704
1617796685.72664,3.542109,12.045690059661865
1617796685.74227,10.73302,12.061320066452026
1617796685.75789,16.3219,12.076940059661865
1617796685.77352,20.28455,12.092570066452026
1617796685.78914,22.78265,12.108190059661865
1617796685.80477,23.98259,12.123820066452026
1617796685.82039,24.00578,12.139440059661865
1617796685.83602,22.90092,12.155070066452026
1617796685.85165,20.75158,12.170700073242188
1617796685.86727,17.7443,12.186320066452026
1617796685.8829,14.16362,12.201950073242188
1617796685.89852,10.39897,12.217570066452026
1617796685.91415,6.803228,12.233200073242188
1617796685.92977,3.616192,12.248820066452026
1617796685.9454,0.9335327,12.264450073242188
1617796685.96103,-1.251675,12.280080080032349
1617796685.97665,-3.025215,12.295700073242188
1617796685.99228,-4.462082,12.311330080032349
1617796686.0079,-5.623081,12.326950073242188
1617796686.02353,-6.541977,12.342580080032349
1617796686.03915,-7.262089,12.358200073242188
1617796686.05478,-7.827168,12.373830080032349
1617796686.07041,-8.330597,12.38946008682251
1617796686.08603,-8.887398,12.405080080032349
1617796686.10166,-9.636452,12.42071008682251
1617796686.11728,-10.67193,12.436330080032349
1617796686.13291,-11.9831,12.45196008682251
1617796686.14853,-13.43495,12.467580080032349
1617796686.16416,-14.84729,12.48321008682251
1617796686.17979,-16.10222,12.498840093612671
1617796686.19541,-17.21725,12.51446008682251
1617796686.21104,-18.37349,12.530090093612671
1617796686.22666,-19.84766,12.54571008682251
1617796686.24229,-21.87447,12.561340093612671
1617796686.25791,-24.59058,12.57696008682251
1617796686.27354,-28.01012,12.592590093612671
1617796686.28917,-32.05823,12.608220100402832
1617796686.30479,-36.5661,12.623840093612671
1617796686.32042,-41.18253,12.639470100402832
1617796686.33604,-45.26682,12.655090093612671
1617796686.35167,-47.92582,12.670720100402832
1617796686.36729,-48.15589,12.686340093612671
1617796686.38292,-45.19131,12.701970100402832
1617796686.39855,-38.79877,12.717600107192993
1617796686.41417,-29.46524,12.733220100402832
1617796686.4298,-18.26448,12.748850107192993
1617796686.44542,-6.554703,12.764470100402832
1617796686.46105,4.417774,12.780100107192993
1617796686.47667,13.8205,12.795720100402832
1617796686.4923,21.29118,12.811350107192993
1617796686.50793,26.79738,12.826980113983154
1617796686.52355,30.45907,12.842600107192993
1617796686.53918,32.40201,12.858230113983154
1617796686.5548,32.71756,12.873850107192993
1617796686.57043,31.56466,12.889480113983154
1617796686.58605,29.24835,12.905100107192993
1617796686.60168,26.20883,12.920730113983154
1617796686.61731,22.92061,12.936360120773315
1617796686.63293,19.74898,12.951980113983154
1617796686.64856,16.84993,12.967610120773315
1617796686.66418,14.2504,12.983230113983154
1617796686.67981,11.97505,12.998860120773315
1617796686.69543,10.17173,13.014480113983154
1617796686.71106,9.107746,13.030110120773315
1617796686.72669,9.030964,13.045740127563477
1617796686.74231,9.966286,13.061360120773315
1617796686.75794,11.63533,13.076990127563477
1617796686.77356,13.52592,13.092610120773315
1617796686.78919,15.08396,13.108240127563477
1617796686.80481,15.92732,13.123860120773315
1617796686.82044,15.93985,13.139490127563477
1617796686.83607,15.23552,13.155120134353638
1617796686.85169,14.02374,13.170740127563477
1617796686.86732,12.5046,13.186370134353638
1617796686.88294,10.81108,13.201990127563477
1617796686.89857,8.985611,13.217620134353638
1617796686.91419,7.031063,13.233240127563477
1617796686.92982,4.867687,13.248870134353638
1617796686.94545,2.388134,13.264500141143799
1617796686.96107,-0.5500641,13.280120134353638
1617796686.9767,-4.033657,13.295750141143799
1617796686.99232,-8.034031,13.311370134353638
1617796687.00795,-12.35097,13.327000141143799
1617796687.02357,-16.68993,13.342620134353638
1617796687.0392,-20.76653,13.358250141143799
1617796687.05483,-24.43495,13.37388014793396
1617796687.07045,-27.74332,13.389500141143799
1617796687.08608,-30.93155,13.40513014793396
1617796687.1017,-34.36309,13.420750141143799
1617796687.11733,-38.35737,13.43638014793396
1617796687.13295,-43.03665,13.452000141143799
1617796687.14858,-48.21357,13.46763014793396
1617796687.16421,-53.30576,13.483260154724121
1617796687.17983,-57.37364,13.49888014793396
1617796687.19546,-59.30194,13.514510154724121
1617796687.21108,-58.08661,13.53013014793396
1617796687.22671,-53.12755,13.545760154724121
1617796687.24233,-44.48158,13.56138014793396
1617796687.25796,-32.90137,13.577010154724121
1617796687.27359,-19.64074,13.592640161514282
1617796687.28921,-6.131248,13.608260154724121
1617796687.30484,6.360527,13.623890161514282
1617796687.32046,17.00422,13.639510154724121
1617796687.33609,25.44986,13.655140161514282
1617796687.35171,31.71585,13.670760154724121
1617796687.36734,35.99585,13.686390161514282
1617796687.38297,38.50127,13.702020168304443
1617796687.39859,39.41003,13.717640161514282
1617796687.41422,38.90928,13.733270168304443
1617796687.42984,37.21362,13.748890161514282
1617796687.44547,34.65807,13.764520168304443
1617796687.46109,31.64225,13.780140161514282
1617796687.47672,28.57636,13.795770168304443
1617796687.49235,25.80332,13.811400175094604
1617796687.50797,23.55419,13.827020168304443
1617796687.5236,21.94683,13.842650175094604
1617796687.53922,21.00734,13.858270168304443
1617796687.55485,20.72297,13.873900175094604
1617796687.57047,21.04433,13.889520168304443
1617796687.5861,21.9147,13.905150175094604
1617796687.60173,23.23673,13.920780181884766
1617796687.61735,24.84114,13.936400175094604
1617796687.63298,26.49225,13.952030181884766
1617796687.6486,27.87967,13.967650175094604
1617796687.66423,28.72458,13.983280181884766
1617796687.67986,28.83354,13.998910188674927
1617796687.69548,28.18079,14.014530181884766
1617796687.71111,26.88124,14.030160188674927
1617796687.72673,25.1667,14.045780181884766
1617796687.74236,23.27167,14.061410188674927
1617796687.75798,21.30047,14.077030181884766
1617796687.77361,19.20141,14.092660188674927
1617796687.78924,16.82251,14.108289957046509
1617796687.80486,13.99784,14.123910188674927
1617796687.82049,10.64396,14.139539957046509
1617796687.83611,6.87151,14.155160188674927
1617796687.85174,2.908112,14.170789957046509
1617796687.86736,-0.9507828,14.186410188674927
1617796687.88299,-4.488098,14.202039957046509
1617796687.89862,-7.669758,14.21766996383667
1617796687.91424,-10.63443,14.233289957046509
1617796687.92987,-13.64494,14.24891996383667
1617796687.94549,-16.92109,14.264539957046509
1617796687.96112,-20.52095,14.28016996383667
1617796687.97674,-24.32013,14.295789957046509
1617796687.99237,-28.04073,14.31141996383667
1617796688.008,-31.42042,14.327049970626831
1617796688.02362,-34.32578,14.34266996383667
1617796688.03925,-36.81115,14.358299970626831
1617796688.05487,-39.10699,14.37391996383667
1617796688.0705,-41.55245,14.389549970626831
1617796688.08612,-44.51165,14.40516996383667
1617796688.10175,-48.29984,14.420799970626831
1617796688.11738,-53.03049,14.436429977416992
1617796688.133,-58.5215,14.452049970626831
1617796688.14863,-64.10518,14.467679977416992
1617796688.16425,-68.63586,14.483299970626831
1617796688.17988,-70.66881,14.498929977416992
1617796688.1955,-68.90103,14.514549970626831
1617796688.21113,-62.62916,14.530179977416992
1617796688.22676,-52.05179,14.545809984207153
1617796688.24238,-38.31113,14.561429977416992
1617796688.25801,-23.106,14.577059984207153
1617796688.27363,-8.190224,14.592679977416992
1617796688.28926,5.069912,14.608309984207153
1617796688.30488,15.96012,14.623929977416992
1617796688.32051,24.35125,14.639559984207153
1617796688.33614,30.48371,14.655189990997314
1617796688.35176,34.69254,14.670809984207153
1617796688.36739,37.24299,14.686439990997314
1617796688.38301,38.30761,14.702059984207153
1617796688.39864,38.04859,14.717689990997314
1617796688.41426,36.6958,14.733309984207153
1617796688.42989,34.60255,14.748939990997314
1617796688.44552,32.17787,14.764569997787476
1617796688.46114,29.78089,14.780189990997314
1617796688.47677,27.62545,14.795819997787476
1617796688.49239,25.79831,14.811439990997314
1617796688.50802,24.3054,14.827069997787476
1617796688.52364,23.19016,14.842689990997314
1617796688.53927,22.60218,14.858319997787476
1617796688.5549,22.7148,14.873950004577637
1617796688.57052,23.63474,14.889569997787476
1617796688.58615,25.25808,14.905200004577637
1617796688.60177,27.2505,14.920819997787476
1617796688.6174,29.13206,14.936450004577637
1617796688.63302,30.46911,14.952069997787476
1617796688.64865,31.01672,14.967700004577637
1617796688.66428,30.76887,14.983330011367798
1617796688.6799,29.89058,14.998950004577637
1617796688.69553,28.5724,15.014580011367798
1617796688.71115,26.91133,15.030200004577637
1617796688.72678,24.91209,15.045830011367798
1617796688.7424,22.52076,15.061450004577637
1617796688.75803,19.70682,15.077080011367798
1617796688.77366,16.57963,15.092710018157959
1617796688.78928,13.30259,15.108330011367798
1617796688.80491,10.05049,15.123960018157959
1617796688.82053,6.953358,15.139580011367798
1617796688.83616,4.038754,15.155210018157959
1617796688.85178,1.251415,15.170830011367798
1617796688.86741,-1.498322,15.186460018157959
1617796688.88304,-4.287422,15.20209002494812
1617796688.89866,-7.16824,15.217710018157959
1617796688.91429,-10.15995,15.23334002494812
1617796688.92991,-13.26983,15.248960018157959
1617796688.94554,-16.46937,15.26459002494812
1617796688.96116,-19.70555,15.280210018157959
1617796688.97679,-22.91798,15.29584002494812
1617796688.99242,-26.0442,15.311470031738281
1617796689.00804,-29.07819,15.32709002494812
1617796689.02367,-32.12517,15.342720031738281
1617796689.03929,-35.41407,15.35834002494812
1617796689.05492,-39.22058,15.373970031738281
1617796689.07054,-43.71349,15.38959002494812
1617796689.08617,-48.75574,15.405220031738281
1617796689.1018,-53.74572,15.420850038528442
1617796689.11742,-57.63388,15.436470031738281
1617796689.13305,-59.15414,15.452100038528442
1617796689.14867,-57.2018,15.467720031738281
1617796689.1643,-51.24858,15.483350038528442
1617796689.17992,-41.57955,15.498970031738281
1617796689.19555,-29.25127,15.514600038528442
1617796689.21118,-15.76808,15.530230045318604
1617796689.2268,-2.639065,15.545850038528442
1617796689.24243,9.018974,15.561480045318604
1617796689.25805,18.5766,15.577100038528442
1617796689.27368,25.86811,15.592730045318604
1617796689.2893,30.96877,15.608350038528442
1617796689.30493,34.05138,15.623980045318604
1617796689.32056,35.30093,15.639610052108765
1617796689.33618,34.98487,15.655230045318604
1617796689.35181,33.46789,15.670860052108765
1617796689.36743,31.20446,15.686480045318604
1617796689.38306,28.63335,15.702110052108765
1617796689.39868,26.07489,15.717730045318604
1617796689.41431,23.6716,15.733360052108765
1617796689.42994,21.43118,15.748990058898926
1617796689.44556,19.31646,15.764610052108765
1617796689.46119,17.3717,15.780240058898926
1617796689.47681,15.76738,15.795860052108765
1617796689.49244,14.72739,15.811490058898926
1617796689.50806,14.43491,15.827110052108765
1617796689.52369,14.94355,15.842740058898926
1617796689.53932,16.07878,15.858370065689087
1617796689.55494,17.57767,15.873990058898926
1617796689.57057,19.10369,15.889620065689087
1617796689.58619,20.40118,15.905240058898926
1617796689.60182,21.27455,15.920870065689087
1617796689.61744,21.63843,15.936490058898926
1617796689.63307,21.43843,15.952120065689087
1617796689.6487,20.69971,15.967750072479248
1617796689.66432,19.50065,15.983370065689087
1617796689.67995,17.962,15.999000072479248
1617796689.69557,16.19593,16.014620065689087
1617796689.7112,14.24979,16.030250072479248
1617796689.72682,12.07155,16.045870065689087
1617796689.74245,9.518162,16.061500072479248
1617796689.75808,6.502636,16.07713007926941
1617796689.7737,3.044041,16.092750072479248
1617796689.78933,-0.6767883,16.10838007926941
1617796689.80495,-4.363121,16.124000072479248
1617796689.82058,-7.75806,16.13963007926941
1617796689.8362,-10.71747,16.155250072479248
1617796689.85183,-13.30024,16.17088007926941
1617796689.86746,-15.6851,16.18651008605957
1617796689.88308,-18.12092,16.20213007926941
1617796689.89871,-20.85105,16.21776008605957
1617796689.91433,-24.08349,16.23338007926941
1617796689.92996,-27.9011,16.24901008605957
1617796689.94559,-32.16931,16.26464009284973
1617796689.96121,-36.45711,16.28026008605957
1617796689.97684,-39.96721,16.29589009284973
1617796689.99246,-41.71215,16.31151008605957
1617796690.00809,-40.76028,16.32714009284973
1617796690.02371,-36.61887,16.34276008605957
1617796690.03934,-29.4149,16.35839009284973
1617796690.05497,-19.93897,16.374020099639893
1617796690.07059,-9.374565,16.38964009284973
1617796690.08622,1.055038,16.405270099639893
1617796690.10184,10.42339,16.42089009284973
1617796690.11747,18.25253,16.436520099639893
1617796690.13309,24.40983,16.45214009284973
1617796690.14872,28.9489,16.467770099639893
1617796690.16435,31.91037,16.483400106430054
1617796690.17997,33.26469,16.499020099639893
1617796690.1956,32.9911,16.514650106430054
1617796690.21122,31.18856,16.530270099639893
1617796690.22685,28.16707,16.545900106430054
1617796690.24247,24.38664,16.561520099639893
1617796690.2581,20.35412,16.577150106430054
1617796690.27373,16.48356,16.592780113220215
1617796690.28935,13.04826,16.608400106430054
1617796690.30498,10.17305,16.624030113220215
1617796690.3206,7.909439,16.639650106430054
1617796690.33623,6.311874,16.655280113220215
1617796690.35185,5.428879,16.670900106430054
1617796690.36748,5.278084,16.686530113220215
1617796690.38311,5.778244,16.702160120010376
1617796690.39873,6.764519,16.717780113220215
1617796690.41436,7.946899,16.733410120010376
1617796690.42998,9.008736,16.749030113220215
1617796690.44561,9.661041,16.764660120010376
1617796690.46123,9.725769,16.780280113220215
1617796690.47686,9.158646,16.795910120010376
1617796690.49249,8.023827,16.811540126800537
1617796690.50811,6.441895,16.827160120010376
1617796690.52374,4.522438,16.842790126800537
1617796690.53936,2.312401,16.858410120010376
1617796690.55499,-0.1972733,16.874040126800537
1617796690.57061,-3.032883,16.889660120010376
1617796690.58624,-6.196121,16.905290126800537
1617796690.60187,-9.617607,16.9209201335907
1617796690.61749,-13.17048,16.936540126800537
1617796690.63312,-16.7341,16.9521701335907
1617796690.64874,-20.19165,16.967790126800537
1617796690.66437,-23.51463,16.9834201335907
1617796690.67999,-26.79441,16.999040126800537
1617796690.69562,-30.21538,17.0146701335907
1617796690.71125,-33.97036,17.03030014038086
1617796690.72687,-38.12959,17.0459201335907
1617796690.7425,-42.4166,17.06155014038086
1617796690.75812,-46.15677,17.0771701335907
1617796690.77375,-48.34343,17.09280014038086
1617796690.78937,-47.88587,17.1084201335907
1617796690.805,-44.03796,17.12405014038086
1617796690.82063,-36.68745,17.13968014717102
1617796690.83625,-26.48725,17.15530014038086
1617796690.85188,-14.651,17.17093014717102
1617796690.8675,-2.622589,17.18655014038086
1617796690.88313,8.332718,17.20218014717102
1617796690.89875,17.37771,17.21780014038086
1617796690.91438,24.1501,17.23343014717102
1617796690.93001,28.7048,17.24906015396118
1617796690.94563,31.31316,17.26468014717102
1617796690.96126,32.33215,17.28031015396118
1617796690.97688,32.08208,17.29593014717102
1617796690.99251,30.8493,17.31156015396118
1617796691.00813,28.83067,17.32718014717102
1617796691.02376,26.22399,17.34281015396118
1617796691.03939,23.2383,17.358440160751343
1617796691.05501,20.09506,17.37406015396118
1617796691.07064,17.05407,17.389690160751343
1617796691.08626,14.40117,17.40531015396118
1617796691.10189,12.40579,17.420940160751343
1617796691.11751,11.27045,17.43656015396118
1617796691.13314,11.04214,17.452190160751343
1617796691.14877,11.58017,17.467820167541504
1617796691.16439,12.6188,17.483440160751343
1617796691.18002,13.83536,17.499070167541504
1617796691.19564,14.98392,17.514690160751343
1617796691.21127,16.02525,17.530320167541504
1617796691.22689,17.11205,17.545940160751343
1617796691.24252,18.50064,17.561570167541504
1617796691.25815,20.34285,17.577200174331665
1617796691.27377,22.54695,17.592820167541504
1617796691.2894,24.68044,17.608450174331665
1617796691.30502,26.11493,17.624070167541504
1617796691.32065,26.29282,17.639700174331665
1617796691.33627,24.92824,17.655320167541504
1617796691.3519,22.17847,17.670950174331665
1617796691.36753,18.6709,17.686580181121826
1617796691.38315,15.37981,17.702200174331665
1617796691.39878,13.38492,17.717830181121826
1617796691.4144,13.51593,17.733450174331665
1617796691.43003,15.93149,17.749080181121826
1617796691.44565,19.91118,17.764700174331665
1617796691.46128,23.91605,17.780330181121826
1617796691.47691,26.11285,17.795960187911987
1617796691.49253,25.20975,17.811580181121826
1617796691.50816,21.17841,17.827210187911987
1617796691.52378,15.6098,17.842830181121826
1617796691.53941,11.47556,17.858460187911987
1617796691.55503,12.24858,17.874080181121826
1617796691.57066,20.72746,17.889710187911987
1617796691.58629,37.94341,17.90533995628357
1617796691.60191,62.56355,17.920960187911987
1617796691.61754,91.09875,17.93658995628357
1617796691.63316,118.952,17.952210187911987
1617796691.64879,141.8105,17.96783995628357
1617796691.66441,156.9136,17.983460187911987
1617796691.68004,163.644,17.99908995628357
1617796691.69567,163.1523,18.01471996307373
1617796691.71129,157.3541,18.03033995628357
1617796691.72692,147.8585,18.04596996307373
1617796691.74254,135.2514,18.06158995628357
1617796691.75817,119.0909,18.07721996307373
1617796691.77379,98.41095,18.09283995628357
1617796691.78942,72.2807,18.10846996307373
1617796691.80505,40.31042,18.12409996986389
1617796691.82067,3.096802,18.13971996307373
1617796691.8363,-37.38544,18.15534996986389
1617796691.85192,-77.29538,18.17096996307373
1617796691.86755,-110.9333,18.18659996986389
1617796691.88317,-131.6827,18.20221996307373
1617796691.8988,-133.9503,18.21784996986389
1617796691.91443,-115.5088,18.233479976654053
1617796691.93005,-79.15469,18.24909996986389
1617796691.94568,-32.40552,18.264729976654053
1617796691.9613,14.62015,18.28034996986389
1617796691.97693,52.46085,18.295979976654053
1617796691.99255,75.09839,18.31159996986389
1617796692.00818,81.23679,18.327229976654053
1617796692.02381,73.66599,18.342859983444214
1617796692.03943,57.65341,18.358479976654053
1617796692.05506,39.22565,18.374109983444214
1617796692.07068,24.06671,18.389729976654053
1617796692.08631,16.97424,18.405359983444214
1617796692.10193,21.31784,18.420979976654053
1617796692.11756,38.24942,18.436609983444214
1617796692.13319,65.91125,18.452239990234375
1617796692.14881,99.2493,18.467859983444214
1617796692.16444,130.9825,18.483489990234375
1617796692.18006,153.7857,18.499109983444214
1617796692.19569,162.6838,18.514739990234375
1617796692.21131,156.6583,18.530359983444214
1617796692.22694,138.7241,18.545989990234375
1617796692.24257,114.5847,18.561619997024536
1617796692.25819,90.43451,18.577239990234375
1617796692.27382,71.06226,18.592869997024536
1617796692.28944,58.77887,18.608489990234375
1617796692.30507,53.40411,18.624119997024536
1617796692.32069,53.05872,18.639739990234375
1617796692.33632,55.07855,18.655369997024536
1617796692.35195,57.02319,18.671000003814697
1617796692.36757,57.22089,18.686619997024536
1617796692.3832,55.01221,18.702250003814697
1617796692.39882,50.4978,18.717869997024536
1617796692.41445,44.13531,18.733500003814697
1617796692.43007,36.24341,18.749119997024536
1617796692.4457,26.62793,18.764750003814697
1617796692.46133,14.55701,18.78038001060486
1617796692.47695,-1.182129,18.796000003814697
1617796692.49258,-22.2713,18.81163001060486
1617796692.5082,-50.85223,18.827250003814697
1617796692.52383,-89.30127,18.84288001060486
1617796692.53946,-139.3026,18.85851001739502
1617796692.55508,-200.33,18.87413001060486
1617796692.57071,-268.3777,18.88976001739502
1617796692.58633,-335.7711,18.90538001060486
1617796692.60196,-392.7327,18.92101001739502
1617796692.61758,-430.4726,18.93663001060486
1617796692.63321,-444.0878,18.95226001739502
1617796692.64884,-434.0687,18.96789002418518
1617796692.66446,-405.3326,18.98351001739502
1617796692.68009,-364.6707,18.99914002418518
1617796692.69571,-318.074,19.01476001739502
1617796692.71134,-269.5079,19.03039002418518
1617796692.72696,-221.41,19.04601001739502
1617796692.74259,-176.0626,19.06164002418518
1617796692.75822,-136.552,19.077270030975342
1617796692.77384,-106.2071,19.09289002418518
1617796692.78947,-87.14862,19.108520030975342
1617796692.80509,-78.84119,19.12414002418518
1617796692.82072,-77.95819,19.139770030975342
1617796692.83634,-79.71777,19.15539002418518
1617796692.85197,-79.92352,19.171020030975342
1617796692.8676,-76.53223,19.186650037765503
1617796692.88322,-69.89819,19.202270030975342
1617796692.89885,-62.02795,19.217900037765503
1617796692.91447,-55.11682,19.233520030975342
1617796692.9301,-50.46326,19.249150037765503
1617796692.94572,-48.09351,19.264770030975342
1617796692.96135,-47.0672,19.280400037765503
1617796692.97698,-46.11987,19.296030044555664
1617796692.9926,-44.17694,19.311650037765503
1617796693.00823,-40.63177,19.327280044555664
1617796693.02385,-35.35199,19.342900037765503
1617796693.03948,-28.54779,19.358530044555664
1617796693.0551,-20.5412,19.374150037765503
1617796693.07073,-11.71863,19.389780044555664
1617796693.08636,-2.481628,19.405410051345825
1617796693.10198,6.763123,19.421030044555664
1617796693.11761,15.63849,19.436660051345825
1617796693.13323,23.77002,19.452280044555664
1617796693.14886,30.79993,19.467910051345825
1617796693.16448,36.38562,19.483530044555664
1617796693.18011,40.25995,19.499160051345825
1617796693.19574,42.30359,19.514790058135986
1617796693.21136,42.61053,19.530410051345825
1617796693.22699,41.48456,19.546040058135986
1617796693.24261,39.36438,19.561660051345825
1617796693.25824,36.65607,19.577290058135986
1617796693.27386,33.6731,19.592910051345825
1617796693.28949,30.57959,19.608540058135986
1617796693.30512,27.50043,19.624170064926147
1617796693.32074,24.58521,19.639790058135986
1617796693.33637,22.05078,19.655420064926147
1617796693.35199,20.11591,19.671040058135986
1617796693.36762,18.91205,19.686670064926147
1617796693.38324,18.44,19.702290058135986
1617796693.39887,18.55896,19.717920064926147
1617796693.4145,19.04785,19.73355007171631
1617796693.43012,19.62903,19.749170064926147
1617796693.44575,19.98676,19.76480007171631
1617796693.46137,19.78979,19.780420064926147
1617796693.477,18.71484,19.79605007171631
1617796693.49262,16.6167,19.811670064926147
1617796693.50825,13.54901,19.82730007171631
1617796693.52388,9.828857,19.84293007850647
1617796693.5395,5.89563,19.85855007171631
1617796693.55513,2.207336,19.87418007850647
1617796693.57075,-0.9679565,19.88980007171631
1617796693.58638,-3.588562,19.90543007850647
1617796693.602,-5.810669,19.92105007171631
1617796693.61763,-7.892029,19.93668007850647
1617796693.63326,-10.08264,19.95231008529663
1617796693.64888,-12.5968,19.96793007850647
1617796693.66451,-15.60297,19.98356008529663
1617796693.68013,-19.23993,19.99918007850647
1617796693.69576,-23.51117,20.01481008529663
1617796693.71138,-28.21478,20.03043007850647
1617796693.72701,-32.7619,20.04606008529663
1617796693.74264,-36.22626,20.061690092086792
1617796693.75826,-37.53381,20.07731008529663
1617796693.77389,-35.8042,20.092940092086792
1617796693.78951,-30.74359,20.10856008529663
1617796693.80514,-22.81543,20.124190092086792
1617796693.82076,-13.16205,20.13981008529663
1617796693.83639,-3.228699,20.155440092086792
1617796693.85202,5.709045,20.171070098876953
1617796693.86764,12.88702,20.186690092086792
1617796693.88327,18.13208,20.202320098876953
1617796693.89889,21.67902,20.217940092086792
1617796693.91452,23.8678,20.233570098876953
1617796693.93014,24.935,20.249190092086792
1617796693.94577,24.95599,20.264820098876953
1617796693.9614,23.93445,20.280450105667114
1617796693.97702,21.91254,20.296070098876953
1617796693.99265,19.07715,20.311700105667114
1617796694.00827,15.7547,20.327320098876953
1617796694.0239,12.33771,20.342950105667114
1617796694.03952,9.174316,20.358570098876953
1617796694.05515,6.527039,20.374200105667114
1617796694.07078,4.49469,20.389830112457275
1617796694.0864,3.06012,20.405450105667114
1617796694.10203,2.167175,20.421080112457275
1617796694.11765,1.767273,20.436700105667114
1617796694.13328,1.868958,20.452330112457275
1617796694.1489,2.467712,20.467950105667114
1617796694.16453,3.499451,20.483580112457275
1617796694.18016,4.767761,20.499210119247437
1617796694.19578,5.976807,20.514830112457275
1617796694.21141,6.781189,20.530460119247437
1617796694.22703,6.933411,20.546080112457275
1617796694.24266,6.365601,20.561710119247437
1617796694.25828,5.183533,20.577330112457275
1617796694.27391,3.627625,20.592960119247437
1617796694.28954,1.904358,20.608590126037598
1617796694.30516,0.145874,20.624210119247437
1617796694.32079,-1.608154,20.639840126037598
1617796694.33641,-3.398071,20.655460119247437
1617796694.35204,-5.287048,20.671090126037598
1617796694.36766,-7.348328,20.686710119247437
1617796694.38329,-9.695923,20.702340126037598
1617796694.39892,-12.52759,20.71797013282776
1617796694.41454,-16.08499,20.733590126037598
1617796694.43017,-20.53445,20.74922013282776
1617796694.44579,-25.82251,20.764840126037598
1617796694.46142,-31.50531,20.78047013282776
1617796694.47704,-36.71466,20.796090126037598
1617796694.49267,-40.31622,20.81172013282776
1617796694.5083,-41.18692,20.82735013961792
1617796694.52392,-38.61441,20.84297013282776
1617796694.53955,-32.55118,20.85860013961792
1617796694.55517,-23.66367,20.87422013282776
1617796694.5708,-13.13351,20.88985013961792
1617796694.58642,-2.299042,20.90547013282776
1617796694.60205,7.721558,20.92110013961792
1617796694.61768,16.24536,20.93673014640808
1617796694.6333,23.02051,20.95235013961792
1617796694.64893,28.07474,20.96798014640808
1617796694.66455,31.54013,20.98360013961792
1617796694.68018,33.5094,20.99923014640808
1617796694.6958,34.04233,21.01485013961792
1617796694.71143,33.2373,21.03048014640808
1617796694.72706,31.28329,21.046110153198242
1617796694.74268,28.49979,21.06173014640808
1617796694.75831,25.26535,21.077360153198242
1617796694.77393,21.97778,21.09298014640808
1617796694.78956,18.91962,21.108610153198242
1617796694.80519,16.27194,21.124240159988403
1617796694.82081,14.10178,21.139860153198242
1617796694.83644,12.45123,21.155490159988403
1617796694.85206,11.37045,21.171110153198242
1617796694.86769,10.93774,21.186740159988403
1617796694.88331,11.23682,21.202360153198242
1617796694.89894,12.2666,21.217990159988403
1617796694.91457,13.85663,21.233620166778564
1617796694.93019,15.68002,21.249240159988403
1617796694.94582,17.28412,21.264870166778564
1617796694.96144,18.26486,21.280490159988403
1617796694.97707,18.37802,21.296120166778564
1617796694.99269,17.67755,21.311740159988403
1617796695.00832,16.42398,21.327370166778564
1617796695.02395,14.99179,21.343000173568726
1617796695.03957,13.6499,21.358620166778564
1617796695.0552,12.4592,21.374250173568726
1617796695.07082,11.2338,21.389870166778564
1617796695.08645,9.659058,21.405500173568726
1617796695.10207,7.451035,21.421120166778564
1617796695.1177,4.50824,21.436750173568726
1617796695.13333,0.9911041,21.452380180358887
1617796695.14895,-2.770386,21.468000173568726
1617796695.16458,-6.345047,21.483630180358887
1617796695.1802,-9.405914,21.499250173568726
1617796695.19583,-11.85005,21.514880180358887
1617796695.21145,-13.8596,21.530500173568726
1617796695.22708,-15.86058,21.546130180358887
1617796695.24271,-18.37994,21.561760187149048
1617796695.25833,-21.85208,21.577380180358887
1617796695.27396,-26.40392,21.593010187149048
1617796695.28958,-31.74666,21.608630180358887
1617796695.30521,-37.13695,21.624260187149048
1617796695.32083,-41.51768,21.639880180358887
1617796695.33646,-43.7639,21.655510187149048
1617796695.35209,-42.97208,21.67113995552063
1617796695.36771,-38.73691,21.686760187149048
1617796695.38334,-31.28564,21.70238995552063
1617796695.39896,-21.41811,21.718010187149048
1617796695.41459,-10.31294,21.73363995552063
1617796695.43021,0.7657471,21.749260187149048
1617796695.44584,10.76945,21.76488995552063
1617796695.46147,19.06731,21.78051996231079
1617796695.47709,25.44152,21.79613995552063
1617796695.49272,30.01768,21.81176996231079
1617796695.50834,33.09637,21.82738995552063
1617796695.52397,34.98281,21.84301996231079
1617796695.53959,35.89548,21.85863995552063
1617796695.55522,35.95553,21.87426996231079
1617796695.57085,35.2467,21.889899969100952
1617796695.58647,33.87772,21.90551996231079
1617796695.6021,32.05428,21.921149969100952
1617796695.61772,30.04969,21.93676996231079
1617796695.63335,28.15049,21.952399969100952
1617796695.64897,26.57758,21.96801996231079
1617796695.6646,25.44621,21.983649969100952
1617796695.68023,24.77042,21.999279975891113
1617796695.69585,24.51383,22.014899969100952
1617796695.71148,24.65969,22.030529975891113
1617796695.7271,25.23604,22.046149969100952
1617796695.74273,26.27105,22.061779975891113
1617796695.75835,27.72081,22.077399969100952
1617796695.77398,29.40009,22.093029975891113
1617796695.78961,30.95728,22.108659982681274
1617796695.80523,31.96778,22.124279975891113
1617796695.82086,32.06954,22.139909982681274
1617796695.83648,31.08599,22.155529975891113
1617796695.85211,29.11338,22.171159982681274
1617796695.86773,26.47357,22.186779975891113
1617796695.88336,23.59899,22.202409982681274
1617796695.89899,20.83791,22.218039989471436
1617796695.91461,18.34838,22.233659982681274
1617796695.93024,16.07814,22.249289989471436
1617796695.94586,13.81441,22.264909982681274
1617796695.96149,11.3257,22.280539989471436
1617796695.97711,8.479593,22.296159982681274
1617796695.99274,5.290388,22.311789989471436
1617796696.00837,1.91013,22.327419996261597
1617796696.02399,-1.451809,22.343039989471436
1617796696.03962,-4.596851,22.358669996261597
1617796696.05524,-7.4123,22.374289989471436
1617796696.07087,-9.940117,22.389919996261597
1617796696.08649,-12.34858,22.405539989471436
1617796696.10212,-14.89373,22.421169996261597
1617796696.11775,-17.83979,22.436800003051758
1617796696.13337,-21.38924,22.452419996261597
1617796696.149,-25.55898,22.468050003051758
1617796696.16462,-30.11638,22.483669996261597
1617796696.18025,-34.55388,22.499300003051758
1617796696.19587,-38.0928,22.514919996261597
1617796696.2115,-39.8143,22.530550003051758
1617796696.22713,-38.88312,22.54618000984192
1617796696.24275,-34.81223,22.561800003051758
1617796696.25838,-27.65398,22.57743000984192
1617796696.274,-18.06585,22.593050003051758
1617796696.28963,-7.153557,22.60868000984192
1617796696.30525,3.84201,22.624300003051758
1617796696.32088,13.84139,22.63993000984192
1617796696.33651,22.16284,22.65556001663208
1617796696.35213,28.52708,22.67118000984192
1617796696.36776,32.96066,22.68681001663208
1617796696.38338,35.6419,22.70243000984192
1617796696.39901,36.85024,22.71806001663208
1617796696.41463,36.87138,22.73368000984192
1617796696.43026,36.03452,22.74931001663208
1617796696.44589,34.66844,22.76494002342224
1617796696.46151,33.01892,22.78056001663208
1617796696.47714,31.24384,22.79619002342224
1617796696.49276,29.41583,22.81181001663208
1617796696.50839,27.59341,22.82744002342224
1617796696.52401,25.88998,22.84306001663208
1617796696.53964,24.48639,22.85869002342224
1617796696.55527,23.58894,22.874320030212402
1617796696.57089,23.31042,22.88994002342224
1617796696.58652,23.63052,22.905570030212402
1617796696.60214,24.38527,22.92119002342224
1617796696.61777,25.334,22.936820030212402
1617796696.63339,26.20183,22.95244002342224
1617796696.64902,26.81221,22.968070030212402
1617796696.66465,27.07367,22.983700037002563
1617796696.68027,27.00854,22.999320030212402
1617796696.6959,26.66975,23.014950037002563
1617796696.71152,26.13977,23.030570030212402
1617796696.72715,25.49387,23.046200037002563
1617796696.74277,24.7599,23.061820030212402
1617796696.7584,23.93338,23.077450037002563
1617796696.77403,22.99545,23.093080043792725
1617796696.78965,21.92522,23.108700037002563
1617796696.80528,20.71919,23.124330043792725
1617796696.8209,19.38618,23.139950037002563
1617796696.83653,17.92854,23.155580043792725
1617796696.85215,16.30527,23.171200037002563
1617796696.86778,14.43527,23.186830043792725
1617796696.88341,12.21022,23.202460050582886
1617796696.89903,9.589935,23.218080043792725
1617796696.91466,6.661255,23.233710050582886
1617796696.93028,3.709534,23.249330043792725
1617796696.94591,1.166672,23.264960050582886
1617796696.96153,-0.5150909,23.280580043792725
1617796696.97716,-0.9888763,23.296210050582886
1617796696.99279,-0.1951904,23.311840057373047
1617796697.00841,1.566742,23.327460050582886
1617796697.02404,3.69162,23.343090057373047
1617796697.03966,5.379166,23.358710050582886
1617796697.05529,5.944763,23.374340057373047
1617796697.07091,5.020798,23.389960050582886
1617796697.08654,2.788406,23.405590057373047
1617796697.10217,0.06034851,23.421220064163208
1617796697.11779,-1.773727,23.436840057373047
1617796697.13342,-1.084717,23.452470064163208
1617796697.14904,3.530426,23.468090057373047
1617796697.16467,12.77165,23.483720064163208
1617796697.18029,26.33337,23.499340057373047
1617796697.19592,43.03519,23.514970064163208
1617796697.21155,61.25462,23.53060007095337
1617796697.22717,79.50787,23.546220064163208
1617796697.2428,96.922,23.56185007095337
1617796697.25842,113.3651,23.577470064163208
1617796697.27405,129.2372,23.59310007095337
1617796697.28968,145.0968,23.60873007774353
1617796697.3053,161.2309,23.62435007095337
1617796697.32093,177.334,23.63998007774353
1617796697.33655,192.494,23.65560007095337
1617796697.35218,205.3335,23.67123007774353
1617796697.3678,214.373,23.68685007095337
1617796697.38343,218.4949,23.70248007774353
1617796697.39906,217.3168,23.71811008453369
1617796697.41468,211.4786,23.73373007774353
1617796697.43031,202.5576,23.74936008453369
1617796697.44593,192.6504,23.76498007774353
1617796697.46156,183.6602,23.78061008453369
1617796697.47718,176.6296,23.79623007774353
1617796697.49281,171.3887,23.81186008453369
1617796697.50844,166.728,23.827490091323853
1617796697.52406,160.9801,23.84311008453369
1617796697.53969,152.7539,23.858740091323853
1617796697.55531,141.5003,23.87436008453369
1617796697.57094,127.6779,23.889990091323853
1617796697.58656,112.5434,23.90561008453369
1617796697.60219,97.63626,23.921240091323853
1617796697.61782,84.26639,23.936870098114014
1617796697.63344,73.05345,23.952490091323853
1617796697.64907,63.74414,23.968120098114014
1617796697.66469,55.35339,23.983740091323853
1617796697.68032,46.47946,23.999370098114014
1617796697.69594,35.82553,24.014990091323853
1617796697.71157,22.65727,24.030620098114014
1617796697.7272,7.108414,24.046250104904175
1617796697.74282,-10.04109,24.061870098114014
1617796697.75845,-27.65634,24.077500104904175
1617796697.77407,-44.86392,24.093120098114014
1617796697.7897,-61.54901,24.108750104904175
1617796697.80532,-78.41684,24.124370098114014
1617796697.82095,-96.87369,24.140000104904175
1617796697.83658,-118.8382,24.155630111694336
1617796697.8522,-146.5618,24.171250104904175
1617796697.86783,-182.1875,24.186880111694336
1617796697.88345,-226.8429,24.202500104904175
1617796697.89908,-279.3466,24.218130111694336
1617796697.9147,-335.3134,24.233750104904175
1617796697.93033,-387.3791,24.249380111694336
1617796697.94596,-427.007,24.265010118484497
1617796697.96158,-447.3779,24.280630111694336
1617796697.97721,-445.9647,24.296260118484497
1617796697.99283,-425.3815,24.311880111694336
1617796698.00846,-392.0832,24.327510118484497
1617796698.02408,-353.4491,24.343130111694336
1617796698.03971,-314.7598,24.358760118484497
1617796698.05534,-277.842,24.374390125274658
1617796698.07096,-241.7277,24.390010118484497
1617796698.08659,-204.7905,24.405640125274658
1617796698.10221,-166.8265,24.421260118484497
1617796698.11784,-129.8362,24.436890125274658
1617796698.13346,-97.08017,24.452510118484497
1617796698.14909,-71.33252,24.468140125274658
1617796698.16472,-53.39355,24.48377013206482
1617796698.18034,-41.74521,24.499390125274658
1617796698.19597,-33.53049,24.51502013206482
1617796698.21159,-26.05563,24.530640125274658
1617796698.22722,-17.91745,24.54627013206482
1617796698.24284,-9.477844,24.561890125274658
1617796698.25847,-2.12561,24.57752013206482
1617796698.2741,2.861206,24.59315013885498
1617796698.28972,5.218536,24.60877013206482
1617796698.30535,5.906128,24.62440013885498
1617796698.32097,6.570801,24.64002013206482
1617796698.3366,8.569702,24.65565013885498
1617796698.35222,12.24197,24.67127013206482
1617796698.36785,16.78564,24.68690013885498
1617796698.38348,20.76108,24.70253014564514
1617796698.3991,22.9541,24.71815013885498
1617796698.41473,23.03101,24.73378014564514
1617796698.43035,21.72736,24.74940013885498
1617796698.44598,20.48987,24.76503014564514
1617796698.4616,20.75061,24.78065013885498
1617796698.47723,23.20557,24.79628014564514
1617796698.49286,27.56741,24.811910152435303
1617796698.50848,32.69446,24.82753014564514
1617796698.52411,37.14865,24.843160152435303
1617796698.53973,39.8465,24.85878014564514
1617796698.55536,40.43954,24.874410152435303
1617796698.57098,39.37027,24.89003014564514
1617796698.58661,37.50757,24.905660152435303
1617796698.60224,35.72937,24.921290159225464
1617796698.61786,34.50467,24.936910152435303
1617796698.63349,33.77988,24.952540159225464
1617796698.64911,33.1265,24.968160152435303
1617796698.66474,31.99915,24.983790159225464
1617796698.68036,30.01535,24.999410152435303
1617796698.69599,27.10452,25.015040159225464
1617796698.71162,23.50455,25.030670166015625
1617796698.72724,19.59229,25.046290159225464
1617796698.74287,15.70227,25.061920166015625
1617796698.75849,12.01663,25.077540159225464
1617796698.77412,8.555176,25.093170166015625
1617796698.78974,5.229767,25.108790159225464
1617796698.80537,1.926941,25.124420166015625
1617796698.821,-1.393524,25.140050172805786
1617796698.83662,-4.696625,25.155670166015625
1617796698.85225,-7.86377,25.171300172805786
1617796698.86787,-10.77408,25.186920166015625
1617796698.8835,-13.33801,25.202550172805786
1617796698.89912,-15.57208,25.218170166015625
1617796698.91475,-17.62839,25.233800172805786
1617796698.93038,-19.81055,25.249430179595947
1617796698.946,-22.46567,25.265050172805786
1617796698.96163,-25.80551,25.280680179595947
1617796698.97725,-29.78342,25.296300172805786
1617796698.99288,-33.93472,25.311930179595947
1617796699.0085,-37.45123,25.327550172805786
1617796699.02413,-39.3707,25.343180179595947
1617796699.03976,-38.90295,25.35881018638611
1617796699.05538,-35.68646,25.374430179595947
1617796699.07101,-29.91965,25.39006018638611
1617796699.08663,-22.29172,25.405680179595947
1617796699.10226,-13.70828,25.42131018638611
1617796699.11788,-5.069519,25.436930179595947
1617796699.13351,2.958038,25.45256018638611
1617796699.14914,9.960449,25.46818995475769
1617796699.16476,15.74054,25.48381018638611
1617796699.18039,20.20712,25.49943995475769
1617796699.19601,23.3136,25.51506018638611
1617796699.21164,25.06155,25.53068995475769
1617796699.22726,25.53583,25.54631018638611
1617796699.24289,24.92085,25.56193995475769
1617796699.25852,23.46968,25.57756996154785
1617796699.27414,21.4651,25.59318995475769
1617796699.28977,19.15845,25.60881996154785
1617796699.30539,16.74921,25.62443995475769
1617796699.32102,14.42427,25.64006996154785
1617796699.33664,12.38905,25.65568995475769
1617796699.35227,10.85606,25.67131996154785
1617796699.3679,10.00781,25.686949968338013
1617796699.38352,9.947632,25.70256996154785
1617796699.39915,10.6243,25.718199968338013
1617796699.41477,11.85922,25.73381996154785
1617796699.4304,13.40874,25.749449968338013
1617796699.44602,15.00276,25.76506996154785
1617796699.46165,16.44707,25.780699968338013
1617796699.47728,17.61214,25.796329975128174
1617796699.4929,18.42503,25.811949968338013
1617796699.50853,18.81631,25.827579975128174
1617796699.52415,18.72226,25.843199968338013
1617796699.53978,18.06665,25.858829975128174
1617796699.5554,16.87035,25.874449968338013
1617796699.57103,15.25938,25.890079975128174
1617796699.58666,13.43506,25.905709981918335
1617796699.60228,11.58832,25.921329975128174
1617796699.61791,9.785645,25.936959981918335
1617796699.63353,7.942566,25.952579975128174
1617796699.64916,5.86586,25.968209981918335
1617796699.66479,3.383759,25.983839988708496
1617796699.68041,0.4611206,25.999459981918335
1617796699.69604,-2.730026,26.015089988708496
1617796699.71166,-5.902893,26.030709981918335
1617796699.72729,-8.767303,26.046339988708496
1617796699.74291,-11.18201,26.061959981918335
1617796699.75854,-13.22437,26.077589988708496
1617796699.77417,-15.14198,26.093219995498657
1617796699.78979,-17.27266,26.108839988708496
1617796699.80542,-19.95291,26.124469995498657
1617796699.82104,-23.47624,26.140089988708496
1617796699.83667,-28.00096,26.155719995498657
1617796699.85229,-33.42074,26.171339988708496
1617796699.86792,-39.24842,26.186969995498657
1617796699.88355,-44.53986,26.20260000228882
1617796699.89917,-48.07547,26.218219995498657
1617796699.9148,-48.67638,26.23385000228882
1617796699.93042,-45.64571,26.249469995498657
1617796699.94605,-39.0489,26.26510000228882
1617796699.96167,-29.70437,26.280719995498657
1617796699.9773,-18.92025,26.29635000228882
1617796699.99293,-7.995819,26.31198000907898
1617796700.00855,2.088821,26.32760000228882
1617796700.02418,10.83209,26.34323000907898
1617796700.0398,18.07469,26.35885000228882
1617796700.05543,23.80419,26.37448000907898
1617796700.07105,28.00096,26.39010000228882
1617796700.08668,30.60783,26.40573000907898
1617796700.10231,31.67316,26.42136001586914
1617796700.11793,31.37331,26.43698000907898
1617796700.13356,30.02393,26.45261001586914
1617796700.14918,27.97472,26.46823000907898
1617796700.16481,25.54421,26.48386001586914
1617796700.18043,22.90071,26.49948000907898
1617796700.19606,20.17366,26.51511001586914
1617796700.21169,17.51713,26.5307400226593
1617796700.22731,15.14828,26.54636001586914
1617796700.24294,13.35346,26.5619900226593
1617796700.25856,12.41416,26.57761001586914
1617796700.27419,12.45802,26.5932400226593
1617796700.28981,13.43489,26.60886001586914
1617796700.30544,15.10081,26.6244900226593
1617796700.32107,17.10444,26.640120029449463
1617796700.33669,19.06295,26.6557400226593
1617796700.35232,20.67132,26.671370029449463
1617796700.36794,21.7483,26.6869900226593
1617796700.38357,22.19643,26.702620029449463
1617796700.39919,21.99189,26.7182400226593
1617796700.41482,21.16075,26.733870029449463
1617796700.43045,19.75841,26.749500036239624
1617796700.44607,17.9144,26.765120029449463
1617796700.4617,15.80933,26.780750036239624
1617796700.47732,13.62396,26.796370029449463
1617796700.49295,11.47798,26.812000036239624
1617796700.50857,9.357689,26.827620029449463
1617796700.5242,7.087654,26.843250036239624
1617796700.53983,4.431931,26.858880043029785
1617796700.55545,1.236305,26.874500036239624
1617796700.57108,-2.477676,26.890130043029785
1617796700.5867,-6.470535,26.905750036239624
1617796700.60233,-10.37915,26.921380043029785
1617796700.61795,-13.8827,26.937000036239624
1617796700.63358,-16.82895,26.952630043029785
1617796700.64921,-19.3045,26.968260049819946
1617796700.66483,-21.59542,26.983880043029785
1617796700.68046,-24.0939,26.999510049819946
1617796700.69608,-27.17259,27.015130043029785
1617796700.71171,-31.12198,27.030760049819946
1617796700.72733,-36.00298,27.046380043029785
1617796700.74296,-41.58215,27.062010049819946
1617796700.75859,-47.21425,27.077640056610107
1617796700.77421,-51.91628,27.093260049819946
1617796700.78984,-54.5237,27.108890056610107
1617796700.80546,-54.01986,27.124510049819946
1617796700.82109,-49.85011,27.140140056610107
1617796700.83671,-42.14961,27.155760049819946
1617796700.85234,-31.75426,27.171390056610107
1617796700.86797,-19.89629,27.18702006340027
1617796700.88359,-7.903671,27.202640056610107
1617796700.89922,3.172668,27.21827006340027
1617796700.91484,12.67052,27.233890056610107
1617796700.93047,20.3148,27.24952006340027
1617796700.94609,26.05659,27.265140056610107
1617796700.96172,29.94756,27.28077006340027
1617796700.97735,32.07954,27.29640007019043
1617796700.99297,32.63629,27.31202006340027
1617796701.0086,31.92542,27.32765007019043
1617796701.02422,30.34213,27.34327006340027
1617796701.03985,28.32552,27.35890007019043
1617796701.05547,26.21828,27.37452006340027
1617796701.0711,24.26558,27.39015007019043
1617796701.08673,22.5706,27.40578007698059
1617796701.10235,21.18439,27.42140007019043
1617796701.11798,20.18414,27.43703007698059
1617796701.1336,19.64,27.45265007019043
1617796701.14923,19.6403,27.46828007698059
1617796701.16485,20.22697,27.48390007019043
1617796701.18048,21.35951,27.49953007698059
1617796701.19611,22.87585,27.515160083770752
1617796701.21173,24.55194,27.53078007698059
1617796701.22736,26.07713,27.546410083770752
1617796701.24298,27.09924,27.56203007698059
1617796701.25861,27.32014,27.577660083770752
1617796701.27423,26.56737,27.59328007698059
1617796701.28986,24.89186,27.608910083770752
1617796701.30549,22.54968,27.624540090560913
1617796701.32111,19.9391,27.640160083770752
1617796701.33674,17.41031,27.655790090560913
1617796701.35236,15.11819,27.671410083770752
1617796701.36799,12.97148,27.687040090560913
1617796701.38361,10.67407,27.702660083770752
1617796701.39924,7.956451,27.718290090560913
1617796701.41487,4.638031,27.733920097351074
1617796701.43049,0.7682495,27.749540090560913
1617796701.44612,-3.424683,27.765170097351074
1617796701.46174,-7.635712,27.780790090560913
1617796701.47737,-11.59723,27.796420097351074
1617796701.49299,-15.13947,27.812040090560913
1617796701.50862,-18.2677,27.827670097351074
1617796701.52425,-21.18124,27.843300104141235
1617796701.53987,-24.24762,27.858920097351074
1617796701.5555,-27.90906,27.874550104141235
1617796701.57112,-32.47708,27.890170097351074
1617796701.58675,-37.94666,27.905800104141235
1617796701.60237,-43.77356,27.921420097351074
1617796701.618,-48.8851,27.937050104141235
1617796701.63363,-51.94189,27.952680110931396
1617796701.64925,-51.74957,27.968300104141235
1617796701.66488,-47.6861,27.983930110931396
1617796701.6805,-39.87952,27.999550104141235
1617796701.69613,-29.23413,28.015180110931396
1617796701.71175,-17.06775,28.030800104141235
1617796701.72738,-4.765656,28.046430110931396
1617796701.74301,6.565247,28.062060117721558
1617796701.75863,16.23853,28.077680110931396
1617796701.77426,23.93024,28.093310117721558
1617796701.78988,29.58759,28.108930110931396
1617796701.80551,33.2778,28.124560117721558
1617796701.82114,35.1593,28.14019012451172
1617796701.83676,35.45596,28.155810117721558
1617796701.85239,34.47461,28.17144012451172
1617796701.86801,32.58969,28.187060117721558
1617796701.88364,30.15887,28.20269012451172
1617796701.89926,27.52386,28.218310117721558
1617796701.91489,24.91815,28.23394012451172
1617796701.93052,22.52615,28.24957013130188
1617796701.94614,20.50754,28.26519012451172
1617796701.96177,19.00345,28.28082013130188
1617796701.97739,18.16605,28.29644012451172
1617796701.99302,18.12781,28.31207013130188
1617796702.00864,18.94312,28.32769012451172
1617796702.02427,20.5582,28.34332013130188
1617796702.0399,22.80011,28.35895013809204
1617796702.05552,25.32248,28.37457013130188
1617796702.07115,27.71591,28.39020013809204
1617796702.08677,29.52103,28.40582013130188
1617796702.1024,30.33853,28.42145013809204
1617796702.11802,29.95984,28.43707013130188
1617796702.13365,28.39816,28.45270013809204
1617796702.14928,25.88965,28.468330144882202
1617796702.1649,22.79355,28.48395013809204
1617796702.18053,19.45938,28.499580144882202
1617796702.19615,16.07333,28.51520013809204
1617796702.21178,12.64212,28.530830144882202
1617796702.2274,9.042175,28.54645013809204
1617796702.24303,5.15036,28.562080144882202
1617796702.25866,0.9774475,28.577710151672363
1617796702.27428,-3.330658,28.593330144882202
1617796702.28991,-7.531952,28.608960151672363
1617796702.30553,-11.44189,28.624580144882202
1617796702.32116,-15.01328,28.640210151672363
1617796702.33678,-18.39941,28.655830144882202
1617796702.35241,-21.86212,28.671460151672363
1617796702.36804,-25.72446,28.687090158462524
1617796702.38366,-30.20334,28.702710151672363
1617796702.39929,-35.34161,28.718340158462524
1617796702.41491,-40.94125,28.733960151672363
1617796702.43054,-46.45969,28.749590158462524
1617796702.44616,-51.0538,28.765210151672363
1617796702.46179,-53.65063,28.780840158462524
1617796702.47742,-53.19766,28.796470165252686
1617796702.49304,-48.98389,28.812090158462524
1617796702.50867,-40.95697,28.827720165252686
1617796702.52429,-29.8457,28.843340158462524
1617796702.53992,-16.95233,28.858970165252686
1617796702.55554,-3.831543,28.874590158462524
1617796702.57117,8.219299,28.890220165252686
1617796702.5868,18.38992,28.905850172042847
1617796702.60242,26.4194,28.921470165252686
1617796702.61805,32.40836,28.937100172042847
1617796702.63367,36.57312,28.952720165252686
1617796702.6493,39.08652,28.968350172042847
1617796702.66492,40.01523,28.983970165252686
1617796702.68055,39.44885,28.999600172042847
1617796702.69618,37.5899,29.015230178833008
1617796702.7118,34.81937,29.030850172042847
1617796702.72743,31.63318,29.046480178833008
1617796702.74305,28.54996,29.062100172042847
1617796702.75868,25.96802,29.077730178833008
1617796702.7743,24.08853,29.093350172042847
1617796702.78993,22.94305,29.108980178833008
1617796702.80556,22.46069,29.12461018562317
1617796702.82118,22.56934,29.140230178833008
1617796702.83681,23.21167,29.15586018562317
1617796702.85243,24.35516,29.171480178833008
1617796702.86806,25.89978,29.18711018562317
1617796702.88368,27.6286,29.202730178833008
1617796702.89931,29.17468,29.21836018562317
1617796702.91494,30.11963,29.23399019241333
1617796702.93056,30.11029,29.24961018562317
1617796702.94619,28.97742,29.26524019241333
1617796702.96181,26.83527,29.28086018562317
1617796702.97744,23.99017,29.29649019241333
1617796702.99306,20.86963,29.31211018562317
1617796703.00869,17.83215,29.32774019241333
1617796703.02432,15.06567,29.343369960784912
1617796703.03994,12.52466,29.35899019241333
1617796703.05557,9.963684,29.374619960784912
1617796703.07119,7.078857,29.39024019241333
1617796703.08682,3.637634,29.405869960784912
1617796703.10244,-0.3826904,29.42149019241333
1617796703.11807,-4.78064,29.437119960784912
1617796703.1337,-9.182007,29.452749967575073
1617796703.14932,-13.21228,29.468369960784912
1617796703.16495,-16.63641,29.483999967575073
1617796703.18057,-19.45813,29.499619960784912
1617796703.1962,-21.93158,29.515249967575073
1617796703.21182,-24.47546,29.530869960784912
1617796703.22745,-27.59595,29.546499967575073
1617796703.24308,-31.63147,29.562129974365234
1617796703.2587,-36.63049,29.577749967575073
1617796703.27433,-42.18604,29.593379974365234
1617796703.28995,-47.45673,29.608999967575073
1617796703.30558,-51.23407,29.624629974365234
1617796703.3212,-52.29141,29.640249967575073
1617796703.33683,-49.68146,29.655879974365234
1617796703.35246,-43.06262,29.671509981155396
1617796703.36808,-32.8468,29.687129974365234
1617796703.38371,-20.07324,29.702759981155396
1617796703.39933,-6.13147,29.718379974365234
1617796703.41496,7.584167,29.734009981155396
1617796703.43058,19.98578,29.749629974365234
1617796703.44621,30.41644,29.765259981155396
1617796703.46184,38.60181,29.780889987945557
1617796703.47746,44.5249,29.796509981155396
1617796703.49309,48.33765,29.812139987945557
1617796703.50871,50.26208,29.827759981155396
1617796703.52434,50.61169,29.843389987945557
1617796703.53996,49.79712,29.859009981155396
1617796703.55559,48.29401,29.874639987945557
1617796703.57122,46.61389,29.890269994735718
1617796703.58684,45.2215,29.905889987945557
1617796703.60247,44.50616,29.921519994735718
1617796703.61809,44.75574,29.937139987945557
1617796703.63372,46.15344,29.952769994735718
1617796703.64934,48.83093,29.968389987945557
1617796703.66497,52.87537,29.984019994735718
1617796703.6806,58.33966,29.99965000152588
1617796703.69622,65.21362,30.015269994735718
1617796703.71185,73.42828,30.03090000152588
1617796703.72747,82.76154,30.046519994735718
1617796703.7431,92.82312,30.06215000152588
1617796703.75872,103.0476,30.077769994735718
1617796703.77435,112.8239,30.09340000152588
1617796703.78998,121.6325,30.10903000831604
1617796703.8056,129.2919,30.12465000152588
1617796703.82123,136.0324,30.14028000831604
1617796703.83685,142.4762,30.15590000152588
1617796703.85248,149.4671,30.17153000831604
1617796703.8681,157.7763,30.18715000152588
1617796703.88373,167.8473,30.20278000831604
1617796703.89936,179.6316,30.2184100151062
1617796703.91498,192.5343,30.23403000831604
1617796703.93061,205.5023,30.2496600151062
1617796703.94623,217.2345,30.26528000831604
1617796703.96186,226.4344,30.2809100151062
1617796703.97748,232.0761,30.29653000831604
1617796703.99311,233.5893,30.3121600151062
1617796704.00874,230.9215,30.327790021896362
1617796704.02436,224.4809,30.3434100151062
1617796704.03999,214.9688,30.359040021896362
1617796704.05561,203.1958,30.3746600151062
1617796704.07124,189.9572,30.390290021896362
1617796704.08686,175.9361,30.4059100151062
1617796704.10249,161.7491,30.421540021896362
1617796704.11812,147.9635,30.437170028686523
1617796704.13374,135.1029,30.452790021896362
1617796704.14937,123.6454,30.468420028686523
1617796704.16499,113.8905,30.484040021896362
1617796704.18062,105.8643,30.499670028686523
1617796704.19624,99.21454,30.515290021896362
1617796704.21187,93.20541,30.530920028686523
1617796704.2275,86.88952,30.546550035476685
1617796704.24312,79.37966,30.562170028686523
1617796704.25875,70.1519,30.577800035476685
1617796704.27437,59.31115,30.593420028686523
1617796704.29,47.53702,30.609050035476685
1617796704.30562,35.7947,30.624670028686523
1617796704.32125,24.83165,30.640300035476685
1617796704.33688,14.72267,30.655930042266846
1617796704.3525,4.756958,30.671550035476685
1617796704.36813,-6.394897,30.687180042266846
1617796704.38375,-20.06477,30.702800035476685
1617796704.39938,-36.99466,30.718430042266846
1617796704.415,-56.90454,30.734050035476685
1617796704.43063,-78.61493,30.749680042266846
1617796704.44626,-100.4719,30.765310049057007
1617796704.46188,-121.1243,30.780930042266846
1617796704.47751,-140.1009,30.796560049057007
1617796704.49313,-158.064,30.812180042266846
1617796704.50876,-176.7394,30.827810049057007
1617796704.52439,-198.5764,30.843440055847168
1617796704.54001,-226.2438,30.859060049057007
1617796704.55564,-261.8842,30.874690055847168
1617796704.57126,-306.1262,30.890310049057007
1617796704.58689,-357.0929,30.905940055847168
1617796704.60251,-409.9618,30.921560049057007
1617796704.61814,-457.6127,30.937190055847168
1617796704.63377,-492.4319,30.95282006263733
1617796704.64939,-508.7464,30.968440055847168
1617796704.66502,-504.7489,30.98407006263733
1617796704.68064,-483.0907,30.999690055847168
1617796704.69627,-449.555,31.01532006263733
1617796704.71189,-410.7422,31.030940055847168
1617796704.72752,-371.7083,31.04657006263733
1617796704.74315,-334.7929,31.06220006942749
1617796704.75877,-299.7587,31.07782006263733
1617796704.7744,-265.0264,31.09345006942749
1617796704.79002,-229.1371,31.10907006263733
1617796704.80565,-191.7097,31.12470006942749
1617796704.82127,-153.7533,31.14032006263733
1617796704.8369,-117.2964,31.15595006942749
1617796704.85253,-84.73163,31.17158007621765
1617796704.86815,-58.06293,31.18720006942749
1617796704.88378,-38.32581,31.20283007621765
1617796704.8994,-25.31763,31.21845006942749
1617796704.91503,-17.77417,31.23408007621765
1617796704.93065,-13.99005,31.24970006942749
1617796704.94628,-12.39297,31.26533007621765
1617796704.96191,-11.94595,31.280960083007812
1617796704.97753,-12.12549,31.29658007621765
1617796704.99316,-12.55341,31.312210083007812
1617796705.00878,-12.73242,31.32783007621765
1617796705.02441,-12.09061,31.343460083007812
1617796705.04003,-10.38995,31.35908007621765
1617796705.05566,-8.121063,31.374710083007812
1617796705.07129,-6.559662,31.390340089797974
1617796705.08691,-7.263,31.405960083007812
1617796705.10254,-11.24179,31.421590089797974
1617796705.11816,-18.18317,31.437210083007812
1617796705.13379,-26.31516,31.452840089797974
1617796705.14941,-32.87711,31.468460083007812
1617796705.16504,-35.09705,31.484090089797974
1617796705.18067,-31.29736,31.499720096588135
1617796705.19629,-21.49274,31.515340089797974
1617796705.21192,-7.353302,31.530970096588135
1617796705.22754,8.47348,31.546590089797974
1617796705.24317,23.33881,31.562220096588135
1617796705.25879,35.44492,31.577840089797974
1617796705.27442,44.18356,31.593470096588135
1617796705.29005,49.94131,31.609100103378296
1617796705.30567,53.55447,31.624720096588135
1617796705.3213,55.71344,31.640350103378296
1617796705.33692,56.68686,31.655970096588135
1617796705.35255,56.35425,31.671600103378296
1617796705.36817,54.53085,31.687220096588135
1617796705.3838,51.23636,31.702850103378296
1617796705.39943,46.87357,31.718480110168457
1617796705.41505,42.11823,31.734100103378296
1617796705.43068,37.69009,31.749730110168457
1617796705.4463,34.145,31.765350103378296
1617796705.46193,31.78149,31.780980110168457
1617796705.47755,30.62981,31.796600103378296
1617796705.49318,30.51698,31.812230110168457
1617796705.50881,31.16643,31.827860116958618
1617796705.52443,32.24539,31.843480110168457
1617796705.54006,33.45946,31.859110116958618
1617796705.55568,34.56483,31.874730110168457
1617796705.57131,35.42567,31.890360116958618
1617796705.58693,35.99744,31.905980110168457
1617796705.60256,36.26735,31.921610116958618
1617796705.61819,36.20183,31.93724012374878
1617796705.63381,35.70929,31.952860116958618
1617796705.64944,34.66791,31.96849012374878
1617796705.66506,33.02278,31.984110116958618
1617796705.68069,30.80542,31.99974012374878
1617796705.69631,28.15742,32.01536011695862
1617796705.71194,25.27984,32.03099012374878
1617796705.72757,22.33422,32.04662013053894
1617796705.74319,19.40188,32.06224012374878
1617796705.75882,16.49397,32.07787013053894
1617796705.77444,13.55605,32.09349012374878
1617796705.79007,10.54309,32.10912013053894
1617796705.80569,7.433975,32.12474012374878
1617796705.82132,4.256927,32.14037013053894
1617796705.83695,1.081772,32.1560001373291
1617796705.85257,-2.001781,32.17162013053894
1617796705.8682,-4.90707,32.1872501373291
1617796705.88382,-7.606586,32.20287013053894
1617796705.89945,-10.10048,32.2185001373291
1617796705.91507,-12.48071,32.23412013053894
1617796705.9307,-14.877,32.2497501373291
1617796705.94633,-17.50053,32.26538014411926
1617796705.96195,-20.61015,32.2810001373291
1617796705.97758,-24.46931,32.29663014411926
1617796705.9932,-29.21113,32.3122501373291
1617796706.00883,-34.69162,32.32788014411926
1617796706.02445,-40.37269,32.3435001373291
1617796706.04008,-45.29772,32.35913014411926
1617796706.05571,-48.27431,32.374760150909424
1617796706.07133,-48.21233,32.39038014411926
1617796706.08696,-44.48532,32.406010150909424
1617796706.10258,-37.13452,32.42163014411926
1617796706.11821,-26.86465,32.437260150909424
1617796706.13383,-14.82708,32.45288014411926
1617796706.14946,-2.32209,32.468510150909424
1617796706.16509,9.523506,32.484140157699585
1617796706.18071,19.93433,32.499760150909424
1617796706.19634,28.47469,32.515390157699585
1617796706.21196,35.03825,32.531010150909424
1617796706.22759,39.67926,32.546640157699585
1617796706.24321,42.52548,32.562260150909424
1617796706.25884,43.72118,32.577890157699585
1617796706.27447,43.40323,32.593520164489746
1617796706.29009,41.80064,32.609140157699585
1617796706.30572,39.20491,32.624770164489746
1617796706.32134,36.03449,32.640390157699585
1617796706.33697,32.74341,32.656020164489746
1617796706.35259,29.7739,32.671640157699585
1617796706.36822,27.46504,32.687270164489746
1617796706.38385,26.02428,32.70290017127991
1617796706.39947,25.56229,32.718520164489746
1617796706.4151,26.05482,32.73415017127991
1617796706.43072,27.41328,32.749770164489746
1617796706.44635,29.46301,32.76540017127991
1617796706.46197,31.97516,32.781020164489746
1617796706.4776,34.63321,32.79665017127991
1617796706.49323,37.11867,32.81228017807007
1617796706.50885,39.1183,32.82790017127991
1617796706.52448,40.39076,32.84353017807007
1617796706.5401,40.7435,32.85915017127991
1617796706.55573,40.09225,32.87478017807007
1617796706.57135,38.4095,32.89040017127991
1617796706.58698,35.7525,32.90603017807007
1617796706.60261,32.29865,32.92166018486023
1617796706.61823,28.31647,32.93728017807007
1617796706.63386,24.16092,32.95291018486023
1617796706.64948,20.13309,32.96853017807007
1617796706.66511,16.41299,32.98416018486023
1617796706.68074,12.99133,32.99979019165039
1617796706.69636,9.712021,33.01541018486023
1617796706.71199,6.351547,33.03104019165039
1617796706.72761,2.746323,33.04666018486023
1617796706.74324,-1.155807,33.06229019165039
1617796706.75886,-5.251053,33.07791018486023
1617796706.77449,-9.359802,33.09354019165039
1617796706.79012,-13.2905,33.10916996002197
1617796706.80574,-16.89551,33.12479019165039
1617796706.82137,-20.15494,33.14041996002197
1617796706.83699,-23.15466,33.15604019165039
1617796706.85262,-26.10287,33.17166996002197
1617796706.86824,-29.32318,33.18729019165039
1617796706.88387,-33.19083,33.20291996002197
1617796706.8995,-37.98163,33.218549966812134
1617796706.91512,-43.70059,33.23416996002197
1617796706.93075,-49.89807,33.249799966812134
1617796706.94637,-55.60849,33.26541996002197
1617796706.962,-59.55978,33.281049966812134
1617796706.97762,-60.49597,33.29666996002197
1617796706.99325,-57.58997,33.312299966812134
1617796707.00888,-50.694,33.327929973602295
1617796707.0245,-40.39325,33.343549966812134
1617796707.04013,-27.8215,33.359179973602295
1617796707.05575,-14.31146,33.374799966812134
1617796707.07138,-1.131287,33.390429973602295
1617796707.087,10.75391,33.406049966812134
1617796707.10263,20.74091,33.421679973602295
1617796707.11826,28.54578,33.437309980392456
1617796707.13388,34.13358,33.452929973602295
1617796707.14951,37.65784,33.468559980392456
1617796707.16513,39.35489,33.484179973602295
1617796707.18076,39.56299,33.499809980392456
1617796707.19638,38.65042,33.515429973602295
1617796707.21201,36.98883,33.531059980392456
1617796707.22764,34.97464,33.54668998718262
1617796707.24326,32.95114,33.562309980392456
1617796707.25889,31.2269,33.57793998718262
1617796707.27451,30.0079,33.593559980392456
1617796707.29014,29.40097,33.60918998718262
1617796707.30576,29.40277,33.624809980392456
1617796707.32139,29.97943,33.64043998718262
1617796707.33702,31.09668,33.65606999397278
1617796707.35264,32.70813,33.67168998718262
1617796707.36827,34.76126,33.68731999397278
1617796707.38389,37.08401,33.70293998718262
1617796707.39952,39.42755,33.71856999397278
1617796707.41514,41.43759,33.73418998718262
1617796707.43077,42.7908,33.74981999397278
1617796707.4464,43.25787,33.76545000076294
1617796707.46202,42.77676,33.78106999397278
1617796707.47765,41.46085,33.79670000076294
1617796707.49327,39.51498,33.81231999397278
1617796707.5089,37.14969,33.82795000076294
1617796707.52452,34.47992,33.84356999397278
1617796707.54015,31.5452,33.85920000076294
1617796707.55578,28.33313,33.8748300075531
1617796707.5714,24.85791,33.89045000076294
1617796707.58703,21.20676,33.9060800075531
1617796707.60265,17.53491,33.92170000076294
1617796707.61828,13.97281,33.9373300075531
1617796707.6339,10.56146,33.95295000076294
1617796707.64953,7.196625,33.9685800075531
1617796707.66516,3.696777,33.98421001434326
1617796707.68078,-0.07757568,33.9998300075531
1617796707.69641,-4.123047,34.01546001434326
1617796707.71203,-8.264801,34.0310800075531
1617796707.72766,-12.26013,34.04671001434326
1617796707.74328,-15.91595,34.0623300075531
1617796707.75891,-19.18701,34.07796001434326
1617796707.77454,-22.21381,34.09359002113342
1617796707.79016,-25.2341,34.10921001434326
1617796707.80579,-28.56747,34.12484002113342
1617796707.82141,-32.53302,34.14046001434326
1617796707.83704,-37.3891,34.15609002113342
1617796707.85266,-43.22165,34.17171001434326
1617796707.86829,-49.75317,34.18734002113342
1617796707.88392,-56.23395,34.202970027923584
1617796707.89954,-61.4877,34.21859002113342
1617796707.91517,-64.16183,34.234220027923584
1617796707.93079,-63.10284,34.24984002113342
1617796707.94642,-57.77786,34.265470027923584
1617796707.96204,-48.49365,34.28109002113342
1617796707.97767,-36.31415,34.296720027923584
1617796707.9933,-22.73599,34.312350034713745
1617796708.00892,-9.229919,34.327970027923584
1617796708.02455,3.081848,34.343600034713745
1617796708.04017,13.61084,34.359220027923584
1617796708.0558,22.18561,34.374850034713745
1617796708.07142,28.91278,34.390470027923584
1617796708.08705,33.9339,34.406100034713745
1617796708.10268,37.35223,34.421730041503906
1617796708.1183,39.25873,34.437350034713745
1617796708.13393,39.76245,34.452980041503906
1617796708.14955,39.0885,34.468600034713745
1617796708.16518,37.61938,34.484230041503906
1617796708.1808,35.81805,34.499850034713745
1617796708.19643,34.1167,34.515480041503906
1617796708.21206,32.83002,34.53111004829407
1617796708.22768,32.03735,34.546730041503906
1617796708.24331,31.69287,34.56236004829407
1617796708.25893,31.72308,34.577980041503906
1617796708.27456,32.12128,34.59361004829407
1617796708.29018,32.96625,34.609230041503906
1617796708.30581,34.33984,34.62486004829407
1617796708.32144,36.20978,34.64049005508423
1617796708.33706,38.34241,34.65611004829407
1617796708.35269,40.35272,34.67174005508423
1617796708.36831,41.8183,34.68736004829407
1617796708.38394,42.42273,34.70299005508423
1617796708.39956,42.06946,34.71861004829407
1617796708.41519,40.86609,34.73424005508423
1617796708.43082,39.04865,34.74987006187439
1617796708.44644,36.87268,34.76549005508423
1617796708.46207,34.52753,34.78112006187439
1617796708.47769,32.09003,34.79674005508423
1617796708.49332,29.53827,34.81237006187439
1617796708.50894,26.78009,34.82799005508423
1617796708.52457,23.72461,34.84362006187439
1617796708.5402,20.36176,34.85925006866455
1617796708.55582,16.78345,34.87487006187439
1617796708.57145,13.22937,34.89050006866455
1617796708.58707,9.945313,34.90612006187439
1617796708.6027,7.113098,34.92175006866455
1617796708.61832,4.697083,34.93737006187439
1617796708.63395,2.440613,34.95300006866455
1617796708.64958,-0.03692627,34.96863007545471
1617796708.6652,-3.051453,34.98425006866455
1617796708.68083,-6.705688,34.99988007545471
1617796708.69645,-10.85583,35.01550006866455
1617796708.71208,-15.12939,35.03113007545471
1617796708.7277,-19.16602,35.04675006866455
1617796708.74333,-22.74908,35.06238007545471
1617796708.75896,-25.92389,35.07801008224487
1617796708.77458,-28.9859,35.09363007545471
1617796708.79021,-32.37848,35.10926008224487
1617796708.80583,-36.50073,35.12488007545471
1617796708.82146,-41.55328,35.14051008224487
1617796708.83708,-47.36023,35.15613007545471
1617796708.85271,-53.24939,35.17176008224487
1617796708.86834,-58.12872,35.187390089035034
1617796708.88396,-60.72186,35.20301008224487
1617796708.89959,-59.89798,35.218640089035034
1617796708.91521,-55.09308,35.23426008224487
1617796708.93084,-46.50714,35.249890089035034
1617796708.94647,-35.07666,35.265520095825195
1617796708.96209,-22.19861,35.281140089035034
1617796708.97772,-9.323547,35.296770095825195
1617796708.99334,2.428223,35.312390089035034
1617796709.00897,12.41724,35.328020095825195
1617796709.02459,20.46271,35.343640089035034
1617796709.04022,26.6662,35.359270095825195
1617796709.05585,31.21155,35.374900102615356
1617796709.07147,34.24689,35.390520095825195
1617796709.0871,35.87549,35.406150102615356
1617796709.10272,36.19287,35.421770095825195
1617796709.11835,35.33936,35.437400102615356
1617796709.13397,33.5838,35.453020095825195
1617796709.1496,31.2796,35.468650102615356
1617796709.16523,28.81927,35.48428010940552
1617796709.18085,26.59137,35.499900102615356
1617796709.19648,24.86371,35.51553010940552
1617796709.2121,23.78406,35.531150102615356
1617796709.22773,23.37079,35.54678010940552
1617796709.24335,23.5722,35.562400102615356
1617796709.25898,24.32379,35.57803010940552
1617796709.27461,25.58307,35.59366011619568
1617796709.29023,27.2605,35.60928010940552
1617796709.30586,29.21393,35.62491011619568
1617796709.32148,31.23425,35.64053010940552
1617796709.33711,33.04199,35.65616011619568
1617796709.35273,34.37341,35.67178010940552
1617796709.36836,35.03723,35.68741011619568
1617796709.38399,34.94159,35.70304012298584
1617796709.39961,34.13196,35.71866011619568
1617796709.41524,32.73828,35.73429012298584
1617796709.43086,30.94849,35.74991011619568
1617796709.44649,28.99884,35.76554012298584
1617796709.46211,27.11456,35.78116011619568
1617796709.47774,25.46185,35.79679012298584
1617796709.49337,24.09094,35.812420129776
1617796709.50899,22.91833,35.82804012298584
1617796709.52462,21.75946,35.843670129776
1617796709.54024,20.37854,35.85929012298584
1617796709.55587,18.60419,35.874920129776
1617796709.57149,16.36841,35.89054012298584
1617796709.58712,13.73401,35.906170129776
1617796709.60275,10.89282,35.92180013656616
1617796709.61837,8.09021,35.937420129776
1617796709.634,5.61969,35.95305013656616
1617796709.64962,3.763855,35.968670129776
1617796709.66525,2.720215,35.98430013656616
1617796709.68087,2.56958,35.999920129776
1617796709.6965,3.215393,36.01555013656616
1617796709.71213,4.378235,36.03118014335632
1617796709.72775,5.718842,36.04680013656616
1617796709.74338,6.968384,36.06243014335632
1617796709.759,8.173981,36.07805013656616
1617796709.77463,9.762909,36.09368014335632
1617796709.79025,12.4968,36.10930013656616
1617796709.80588,17.25415,36.12493014335632
1617796709.82151,24.70883,36.140560150146484
1617796709.83713,35.1319,36.15618014335632
1617796709.85276,48.33966,36.171810150146484
1617796709.86838,63.8717,36.18743014335632
1617796709.88401,81.24734,36.203060150146484
1617796709.89963,100.2079,36.21868014335632
1617796709.91526,120.6916,36.234310150146484
1617796709.93089,142.6208,36.249940156936646
1617796709.94651,165.6112,36.265560150146484
1617796709.96214,188.7757,36.281190156936646
1617796709.97776,210.7565,36.296810150146484
1617796709.99339,229.9657,36.312440156936646
1617796710.00901,244.9138,36.328060150146484
1617796710.02464,254.4893,36.343690156936646
1617796710.04027,258.1712,36.35932016372681
1617796710.05589,256.0741,36.374940156936646
1617796710.07152,248.9618,36.39057016372681
1617796710.08714,238.1182,36.406190156936646
1617796710.10277,225.1243,36.42182016372681
1617796710.11839,211.5027,36.437440156936646
1617796710.13402,198.3902,36.45307016372681
1617796710.14965,186.3569,36.46870017051697
1617796710.16527,175.4173,36.48432016372681
1617796710.1809,165.288,36.49995017051697
1617796710.19652,155.753,36.51557016372681
1617796710.21215,146.818,36.53120017051697
1617796710.22777,138.7242,36.54682016372681
1617796710.2434,131.6121,36.56245017051697
1617796710.25903,125.25,36.57808017730713
1617796710.27465,118.9273,36.59370017051697
1617796710.29028,111.6531,36.60933017730713
1617796710.3059,102.5815,36.62495017051697
1617796710.32153,91.42815,36.64058017730713
1617796710.33715,78.71726,36.65620017051697
1617796710.35278,65.57662,36.67183017730713
1617796710.36841,53.30703,36.68746018409729
1617796710.38403,42.70348,36.70308017730713
1617796710.39966,33.60912,36.71871018409729
1617796710.41528,24.84279,36.73433017730713
1617796710.43091,14.63574,36.74996018409729
1617796710.44653,1.327133,36.76558017730713
1617796710.46216,-15.85178,36.78121018409729
1617796710.47779,-36.40903,36.79684019088745
1617796710.49341,-58.92163,36.81246018409729
1617796710.50904,-81.60947,36.82809019088745
1617796710.52466,-103.2264,36.84371018409729
1617796710.54029,-123.6606,36.85934019088745
1617796710.55591,-143.9942,36.87496018409729
1617796710.57154,-166.224,36.89059019088745
1617796710.58717,-192.8737,36.90621995925903
1617796710.60279,-226.5806,36.92184019088745
1617796710.61842,-269.4949,36.93746995925903
1617796710.63404,-322.3161,36.95309019088745
1617796710.64967,-383.0576,36.96871995925903
1617796710.66529,-446.3752,36.98434019088745
1617796710.68092,-504.0645,36.99996995925903
1617796710.69655,-547.1351,37.015599966049194
1617796710.71217,-568.7841,37.03121995925903
1617796710.7278,-566.8577,37.046849966049194
1617796710.74342,-544.5281,37.06246995925903
1617796710.75905,-508.6934,37.078099966049194
1617796710.77467,-467.0258,37.09371995925903
1617796710.7903,-425.046,37.109349966049194
1617796710.80593,-384.843,37.124979972839355
1617796710.82155,-345.5487,37.140599966049194
1617796710.83718,-305.1684,37.156229972839355
1617796710.8528,-262.4147,37.171849966049194
1617796710.86843,-217.6543,37.187479972839355
1617796710.88405,-172.7563,37.203099966049194
1617796710.89968,-130.2079,37.218729972839355
1617796710.91531,-92.19946,37.23435997962952
1617796710.93093,-60.07874,37.249979972839355
1617796710.94656,-34.32324,37.26560997962952
1617796710.96218,-14.69312,37.281229972839355
1617796710.97781,-0.5296631,37.29685997962952
1617796710.99343,8.84198,37.312479972839355
1617796711.00906,14.08051,37.32810997962952
1617796711.02469,15.96118,37.34373998641968
1617796711.04031,15.55774,37.35935997962952
1617796711.05594,14.39697,37.37498998641968
1617796711.07156,14.24579,37.39060997962952
1617796711.08719,16.54901,37.40623998641968
1617796711.10281,21.84528,37.42185997962952
1617796711.11844,29.4115,37.43748998641968
1617796711.13407,37.48834,37.45311999320984
1617796711.14969,44.05859,37.46873998641968
1617796711.16532,47.70508,37.48436999320984
1617796711.18094,48.23041,37.49998998641968
1617796711.19657,46.5672,37.51561999320984
1617796711.21219,44.28674,37.53123998641968
1617796711.22782,42.75623,37.54686999320984
1617796711.24345,42.54126,37.5625
1617796711.25907,43.25067,37.57811999320984
1617796711.2747,43.87979,37.59375
1617796711.29032,43.41428,37.60936999320984
1617796711.30595,41.30716,37.625
1617796711.32157,37.67719,37.64061999320984
1617796711.3372,33.13681,37.65625
1617796711.35283,28.41937,37.67188000679016
1617796711.36845,24.02954,37.6875
1617796711.38408,20.08612,37.70313000679016
1617796711.3997,16.38474,37.71875
1617796711.41533,12.59348,37.73438000679016
1617796711.43095,8.508545,37.75
1617796711.44658,4.132721,37.76563000679016
1617796711.46221,-0.33078,37.78126001358032
1617796711.47783,-4.618561,37.79688000679016
1617796711.49346,-8.554382,37.81251001358032
1617796711.50908,-12.22357,37.82813000679016
1617796711.52471,-15.97122,37.84376001358032
1617796711.54034,-20.30341,37.85939002037048
1617796711.55596,-25.62375,37.87501001358032
1617796711.57159,-31.96368,37.89064002037048
1617796711.58721,-38.76187,37.90626001358032
1617796711.60284,-44.88477,37.92189002037048
1617796711.61846,-48.91113,37.93751001358032
1617796711.63409,-49.51837,37.95314002037048
1617796711.64972,-45.99146,37.968770027160645
1617796711.66534,-38.43958,37.98439002037048
1617796711.68097,-27.81003,38.000020027160645
1617796711.69659,-15.54828,38.01564002037048
1617796711.71222,-3.151978,38.031270027160645
1617796711.72784,8.217377,38.04689002037048
1617796711.74347,17.93253,38.062520027160645
1617796711.7591,25.81415,38.078150033950806
1617796711.77472,31.91641,38.093770027160645
1617796711.79035,36.3353,38.109400033950806
1617796711.80597,39.0827,38.125020027160645
1617796711.8216,40.18433,38.140650033950806
1617796711.83722,39.78268,38.156270027160645
1617796711.85285,38.18582,38.171900033950806
1617796711.86848,35.84358,38.18753004074097
1617796711.8841,33.20949,38.203150033950806
1617796711.89973,30.61267,38.21878004074097
1617796711.91535,28.22734,38.234400033950806
1617796711.93098,26.14447,38.25003004074097
1617796711.9466,24.42812,38.265650033950806
1617796711.96223,23.17105,38.28128004074097
1617796711.97786,22.49101,38.29691004753113
1617796711.99348,22.45171,38.31253004074097
1617796712.00911,23.01111,38.32816004753113
1617796712.02473,24.01669,38.34378004074097
1617796712.04036,25.21576,38.35941004753113
1617796712.05598,26.35323,38.37503004074097
1617796712.07161,27.18372,38.39066004753113
1617796712.08724,27.53522,38.40629005432129
1617796712.10286,27.28017,38.42191004753113
1617796712.11849,26.38693,38.43754005432129
1617796712.13411,24.97366,38.45316004753113
1617796712.14974,23.22655,38.46879005432129
1617796712.16536,21.42172,38.48441004753113
1617796712.18099,19.73262,38.50004005432129
1617796712.19662,18.18952,38.51567006111145
1617796712.21224,16.60628,38.53129005432129
1617796712.22787,14.68624,38.54692006111145
1617796712.24349,12.11425,38.56254005432129
1617796712.25912,8.744675,38.57817006111145
1617796712.27474,4.668373,38.59379005432129
1617796712.29037,0.2038879,38.60942006111145
1617796712.306,-4.202179,38.62505006790161
1617796712.32162,-8.148125,38.64067006111145
1617796712.33725,-11.41218,38.65630006790161
1617796712.35287,-14.06375,38.67192006111145
1617796712.3685,-16.39969,38.68755006790161
1617796712.38412,-18.91043,38.70317006111145
1617796712.39975,-22.08708,38.71880006790161
1617796712.41538,-26.26014,38.73443007469177
1617796712.431,-31.39647,38.75005006790161
1617796712.44663,-36.97502,38.76568007469177
1617796712.46225,-42.00571,38.78130006790161
1617796712.47788,-45.23349,38.79693007469177
1617796712.4935,-45.49935,38.81255006790161
1617796712.50913,-42.12865,38.82818007469177
1617796712.52476,-35.15685,38.843810081481934
1617796712.54038,-25.32481,38.85943007469177
1617796712.55601,-13.81625,38.875060081481934
1617796712.57163,-1.958619,38.89068007469177
1617796712.58726,9.155214,38.906310081481934
1617796712.60288,18.7703,38.92193007469177
1617796712.61851,26.49081,38.937560081481934
1617796712.63414,32.20455,38.953190088272095
1617796712.64976,35.95821,38.968810081481934
1617796712.66539,37.88754,38.984440088272095
1617796712.68101,38.20637,39.000060081481934
1617796712.69664,37.19285,39.015690088272095
1617796712.71226,35.14965,39.031310081481934
1617796712.72789,32.42322,39.046940088272095
1617796712.74352,29.39081,39.062570095062256
1617796712.75914,26.41697,39.078190088272095
1617796712.77477,23.85722,39.093820095062256
1617796712.79039,21.93547,39.109440088272095
1617796712.80602,20.76147,39.125070095062256
1617796712.82164,20.29339,39.140690088272095
1617796712.83727,20.4567,39.156320095062256
1617796712.8529,21.20313,39.17195010185242
1617796712.86852,22.53494,39.187570095062256
1617796712.88415,24.44133,39.20320010185242
1617796712.89977,26.76727,39.218820095062256
1617796712.9154,29.17003,39.23445010185242
1617796712.93102,31.16128,39.250070095062256
1617796712.94665,32.23856,39.26570010185242
1617796712.96228,32.09003,39.28133010864258
1617796712.9779,30.69765,39.29695010185242
1617796712.99353,28.36104,39.31258010864258
1617796713.00915,25.524,39.32820010185242
1617796713.02478,22.60237,39.34383010864258
1617796713.0404,19.78653,39.35945010185242
1617796713.05603,17.05042,39.37508010864258
1617796713.07166,14.14819,39.39071011543274
1617796713.08728,10.81897,39.40633010864258
1617796713.10291,6.93956,39.42196011543274
1617796713.11853,2.579102,39.43758010864258
1617796713.13416,-2.017853,39.45321011543274
1617796713.14978,-6.573334,39.46883010864258
1617796713.16541,-10.88988,39.48446011543274
1617796713.18104,-14.90999,39.5000901222229
1617796713.19666,-18.69185,39.51571011543274
1617796713.21229,-22.39684,39.5313401222229
1617796713.22791,-26.23546,39.54696011543274
1617796713.24354,-30.44527,39.5625901222229
1617796713.25916,-35.25929,39.57821011543274
1617796713.27479,-40.78882,39.5938401222229
1617796713.29042,-46.86102,39.60947012901306
1617796713.30604,-52.85727,39.6250901222229
1617796713.32167,-57.74922,39.64072012901306
1617796713.33729,-60.28268,39.6563401222229
1617796713.35292,-59.37666,39.67197012901306
1617796713.36854,-54.51547,39.6875901222229
1617796713.38417,-45.98586,39.70322012901306
1617796713.3998,-34.77246,39.71885013580322
1617796713.41542,-22.27197,39.73447012901306
1617796713.43105,-9.875793,39.75010013580322
1617796713.44667,1.381592,39.76572012901306
1617796713.4623,10.95877,39.78135013580322
1617796713.47792,18.74274,39.79697012901306
1617796713.49355,24.85846,39.81260013580322
1617796713.50918,29.51981,39.828230142593384
1617796713.5248,32.86526,39.84385013580322
1617796713.54043,34.95654,39.859480142593384
1617796713.55605,35.84201,39.87510013580322
1617796713.57168,35.63553,39.890730142593384
1617796713.5873,34.56851,39.90635013580322
1617796713.60293,32.99466,39.921980142593384
1617796713.61856,31.32391,39.937610149383545
1617796713.63418,29.93329,39.953230142593384
1617796713.64981,29.08511,39.968860149383545
1617796713.66543,28.89127,39.984480142593384
1617796713.68106,29.3403,40.000110149383545
1617796713.69668,30.33905,40.015730142593384
1617796713.71231,31.79114,40.031360149383545
1617796713.72794,33.58582,40.046990156173706
1617796713.74356,35.57925,40.062610149383545
1617796713.75919,37.56995,40.078240156173706
1617796713.77481,39.28696,40.093860149383545
1617796713.79044,40.46671,40.109490156173706
1617796713.80607,40.9115,40.12512016296387
1617796713.82169,40.52823,40.140740156173706
1617796713.83732,39.36206,40.15637016296387
1617796713.85294,37.54105,40.171990156173706
1617796713.86857,35.21085,40.18762016296387
1617796713.88419,32.48053,40.203240156173706
1617796713.89982,29.42746,40.21887016296387
1617796713.91545,26.13058,40.23450016975403
1617796713.93107,22.68323,40.25012016296387
1617796713.9467,19.20123,40.26575016975403
1617796713.96232,15.78644,40.28137016296387
1617796713.97795,12.53857,40.29700016975403
1617796713.99357,9.445801,40.31262016296387
1617796714.0092,6.424194,40.32825016975403
1617796714.02483,3.289215,40.34388017654419
1617796714.04045,-0.1595459,40.35950016975403
1617796714.05608,-4.076569,40.37513017654419
1617796714.0717,-8.517822,40.39075016975403
1617796714.08733,-13.41547,40.40638017654419
1617796714.10295,-18.64487,40.42200016975403
1617796714.11858,-24.12552,40.43763017654419
1617796714.13421,-29.87897,40.45326018333435
1617796714.14983,-36.0271,40.46888017654419
1617796714.16546,-42.68314,40.48451018333435
1617796714.18108,-49.72186,40.50013017654419
1617796714.19671,-56.67566,40.51576018333435
1617796714.21233,-62.61978,40.53138017654419
1617796714.22796,-66.39569,40.54701018333435
1617796714.24359,-66.89337,40.56264019012451
1617796714.25921,-63.4567,40.57826018333435
1617796714.27484,-56.10681,40.59389019012451
1617796714.29046,-45.55798,40.60951018333435
1617796714.30609,-33.02356,40.62514019012451
1617796714.32171,-19.87933,40.64076018333435
1617796714.33734,-7.332703,40.65639019012451
1617796714.35297,3.796295,40.672019958496094
1617796714.36859,13.12253,40.68764019012451
1617796714.38422,20.59821,40.703269958496094
1617796714.39984,26.35663,40.71889019012451
1617796714.41547,30.5704,40.734519958496094
1617796714.43109,33.40216,40.75014019012451
1617796714.44672,35.00375,40.765769958496094
1617796714.46235,35.57935,40.781399965286255
1617796714.47797,35.37158,40.797019958496094
1617796714.4936,34.68781,40.812649965286255
1617796714.50922,33.88016,40.828269958496094
1617796714.52485,33.25531,40.843899965286255
1617796714.54047,33.08337,40.859519958496094
1617796714.5561,33.53107,40.875149965286255
1617796714.57173,34.62622,40.890779972076416
1617796714.58735,36.25793,40.906399965286255
1617796714.60298,38.20532,40.922029972076416
1617796714.6186,40.19312,40.937649965286255
1617796714.63423,41.96948,40.953279972076416
1617796714.64985,43.35828,40.968899965286255
1617796714.66548,44.26471,40.984529972076416
1617796714.68111,44.65308,41.00015997886658
1617796714.69673,44.51044,41.015779972076416
1617796714.71236,43.81647,41.03140997886658
1617796714.72798,42.53937,41.047029972076416
1617796714.74361,40.65881,41.06265997886658
1617796714.75923,38.18689,41.078279972076416
1617796714.77486,35.20294,41.09390997886658
1617796714.79049,31.8205,41.10953998565674
1617796714.80611,28.21875,41.12515997886658
1617796714.82174,24.5896,41.14078998565674
1617796714.83736,21.14221,41.15640997886658
1617796714.85299,17.99646,41.17203998565674
1617796714.86861,15.18243,41.18765997886658
1617796714.88424,12.56946,41.20328998565674
1617796714.89987,9.933472,41.2189199924469
1617796714.91549,7.074463,41.23453998565674
1617796714.93112,3.885376,41.2501699924469
1617796714.94674,0.4223022,41.26578998565674
1617796714.96237,-3.168762,41.2814199924469
1617796714.97799,-6.742371,41.29703998565674
1617796714.99362,-10.26361,41.3126699924469
1617796715.00925,-13.79474,41.32829999923706
1617796715.02487,-17.46399,41.3439199924469
1617796715.0405,-21.39813,41.35954999923706
1617796715.05612,-25.71271,41.3751699924469
1617796715.07175,-30.53064,41.39079999923706
1617796715.08737,-35.94171,41.4064199924469
1617796715.103,-41.90417,41.42204999923706
1617796715.11863,-48.06885,41.43768000602722
1617796715.13425,-53.67468,41.45329999923706
1617796715.14988,-57.59167,41.46893000602722
1617796715.1655,-58.61734,41.48454999923706
1617796715.18113,-55.86264,41.50018000602722
1617796715.19675,-49.12811,41.51579999923706
1617796715.21238,-39.03204,41.53143000602722
1617796715.22801,-26.78973,41.54706001281738
1617796715.24363,-13.85468,41.56268000602722
1617796715.25926,-1.515625,41.57831001281738
1617796715.27488,9.390564,41.59393000602722
1617796715.29051,18.44452,41.60956001281738
1617796715.30613,25.55072,41.62518000602722
1617796715.32176,30.73108,41.64081001281738
1617796715.33739,34.0661,41.656440019607544
1617796715.35301,35.68939,41.67206001281738
1617796715.36864,35.8277,41.687690019607544
1617796715.38426,34.82544,41.70331001281738
1617796715.39989,33.1012,41.718940019607544
1617796715.41551,31.07684,41.73456001281738
1617796715.43114,29.09491,41.750190019607544
1617796715.44677,27.43866,41.765820026397705
1617796715.46239,26.27814,41.781440019607544
1617796715.47802,25.71338,41.797070026397705
1617796715.49364,25.7597,41.812690019607544
1617796715.50927,26.37115,41.828320026397705
1617796715.52489,27.46863,41.843940019607544
1617796715.54052,28.92889,41.859570026397705
1617796715.55615,30.64301,41.875200033187866
1617796715.57177,32.45044,41.890820026397705
1617796715.5874,34.14575,41.906450033187866
1617796715.60302,35.42938,41.922070026397705
1617796715.61865,35.98969,41.937700033187866
1617796715.63427,35.57745,41.953320026397705
1617796715.6499,34.09357,41.968950033187866
1617796715.66553,31.63849,41.98458003997803
1617796715.68115,28.49298,42.000200033187866
1617796715.69678,25.02325,42.01583003997803
1617796715.7124,21.55072,42.031450033187866
1617796715.72803,18.27441,42.04708003997803
1617796715.74365,15.21857,42.062700033187866
1617796715.75928,12.22784,42.07833003997803
1617796715.77491,9.084961,42.09396004676819
1617796715.79053,5.588989,42.10958003997803
1617796715.80616,1.686035,42.12521004676819
1617796715.82178,-2.481934,42.14083003997803
1617796715.83741,-6.613586,42.15646004676819
1617796715.85303,-10.39246,42.17208003997803
1617796715.86866,-13.60718,42.18771004676819
1617796715.88429,-16.26288,42.20334005355835
1617796715.89991,-18.56763,42.21896004676819
1617796715.91554,-20.81732,42.23459005355835
1617796715.93116,-23.34479,42.25021004676819
1617796715.94679,-26.40314,42.26584005355835
1617796715.96241,-30.1416,42.28146004676819
1617796715.97804,-34.54639,42.29709005355835
1617796715.99367,-39.36249,42.31272006034851
1617796716.00929,-44.0033,42.32834005355835
1617796716.02492,-47.58597,42.34397006034851
1617796716.04054,-49.11398,42.35959005355835
1617796716.05617,-47.74988,42.37522006034851
1617796716.07179,-43.13898,42.39084005355835
1617796716.08742,-35.56342,42.40647006034851
1617796716.10305,-25.87854,42.42210006713867
1617796716.11867,-15.2406,42.43772006034851
1617796716.1343,-4.764038,42.45335006713867
1617796716.14992,4.74939,42.46897006034851
1617796716.16555,12.89691,42.48460006713867
1617796716.18117,19.55017,42.50022006034851
1617796716.1968,24.70618,42.51585006713867
1617796716.21243,28.34021,42.53148007392883
1617796716.22805,30.37836,42.54710006713867
1617796716.24368,30.81244,42.56273007392883
1617796716.2593,29.80255,42.57835006713867
1617796716.27493,27.73694,42.59398007392883
1617796716.29056,25.1825,42.609610080718994
1617796716.30618,22.67505,42.62523007392883
1617796716.32181,20.59479,42.640860080718994
1617796716.33743,19.08099,42.65648007392883
1617796716.35306,18.12915,42.672110080718994
1617796716.36868,17.72632,42.68773007392883
1617796716.38431,17.92456,42.703360080718994
1617796716.39994,18.8183,42.718990087509155
1617796716.41556,20.38879,42.734610080718994
1617796716.43119,22.44061,42.750240087509155
1617796716.44681,24.57025,42.765860080718994
1617796716.46244,26.31006,42.781490087509155
1617796716.47806,27.25861,42.797110080718994
1617796716.49369,27.19104,42.812740087509155
1617796716.50932,26.104,42.828370094299316
1617796716.52494,24.13324,42.843990087509155
1617796716.54057,21.52783,42.859620094299316
1617796716.55619,18.55719,42.875240087509155
1617796716.57182,15.48578,42.890870094299316
1617796716.58744,12.46698,42.906490087509155
1617796716.60307,9.539734,42.922120094299316
1617796716.6187,6.548523,42.93775010108948
1617796716.63432,3.277527,42.953370094299316
1617796716.64995,-0.477478,42.96900010108948
1617796716.66557,-4.745819,42.984620094299316
1617796716.6812,-9.33313,43.00025010108948
1617796716.69682,-13.93033,43.015870094299316
1617796716.71245,-18.23129,43.03150010108948
1617796716.72808,-22.07962,43.04713010787964
1617796716.7437,-25.52237,43.06275010108948
1617796716.75933,-28.80069,43.07838010787964
1617796716.77495,-32.22876,43.09400010108948
1617796716.79058,-36.18875,43.10963010787964
1617796716.8062,-41.02359,43.12525010108948
1617796716.82183,-46.87308,43.14088010787964
1617796716.83746,-53.46252,43.1565101146698
1617796716.85308,-59.91675,43.17213010787964
1617796716.86871,-64.81689,43.1877601146698
1617796716.88433,-66.58881,43.20338010787964
1617796716.89996,-64.06241,43.2190101146698
1617796716.91558,-56.93564,43.23463010787964
1617796716.93121,-45.92007,43.2502601146698
1617796716.94684,-32.40839,43.26589012145996
1617796716.96246,-17.91434,43.2815101146698
1617796716.97809,-3.543732,43.29714012145996
1617796716.99371,10.18594,43.3127601146698
1617796717.00934,23.16528,43.32839012145996
1617796717.02496,35.32043,43.3440101146698
1617796717.04059,46.34949,43.35964012145996
1617796717.05622,55.77161,43.37527012825012
1617796717.07184,63.18295,43.39089012145996
1617796717.08747,68.50635,43.40652012825012
1617796717.10309,72.17441,43.42214012145996
1617796717.11872,74.91678,43.43777012825012
1617796717.13434,77.54761,43.45339012145996
1617796717.14997,80.67807,43.46902012825012
1617796717.1656,84.65341,43.48465013504028
