,index,PPG_Raw,PPG_Clean,PPG_Rate,PPG_Peaks,EDA_Raw,EDA_Clean,EDA_Tonic,EDA_Phasic,SCR_Onsets,SCR_Peaks,SCR_Height,SCR_Amplitude,SCR_RiseTime,SCR_Recovery,SCR_RecoveryTime,Index,Label,Condition,id
0,0.0,-11.42259,28.59122598704279,75.05863956215794,0,0.6981720000000001,0.6982119408114393,0.7201860674631602,-0.021974146477401243,0,0,0,0,0,0,1,0,1,neutral,0
1,0.015873015873015872,-19.80399,0.0,75.05863956215794,0,0.6981497075522087,0.698095478635919,0.7203022348166878,-0.022206776083974134,0,0,0,0,0,0,1,1,1,neutral,0
2,0.031746031746031744,-25.69968,0.0,75.05863956215794,0,0.6980874323050758,0.6979747335252892,0.7204187049509164,-0.022443991406416716,0,0,0,0,0,0,0,2,1,neutral,0
3,0.047619047619047616,-28.31508,0.0,75.05863956215794,0,0.6979920774029618,0.6978492182331142,0.7205354771548242,-0.022686278980141,0,0,0,0,0,0,0,3,1,neutral,0
4,0.06349206349206349,-27.53513,0.0,75.05863956215794,0,0.6978705459902278,0.6977190725089055,0.7206525507043569,-0.022933498331579538,0,0,0,0,0,0,0,4,1,neutral,0
5,0.07936507936507936,-23.84598,0.0,75.05863956215794,0,0.6977297412112348,0.6975852619738637,0.7207699248622864,-0.023184683102302504,0,0,0,0,0,0,0,5,1,neutral,0
6,0.09523809523809523,-18.28026,0.0,75.05863956215794,0,0.6975765662103435,0.69744971268035,0.7208875988780684,-0.02343790648940282,0,0,0,0,0,0,0,6,1,neutral,0
7,0.1111111111111111,-12.13371,0.0,75.05863956215794,0,0.6974179241319147,0.6973153664627143,0.721005571987697,-0.02369022589452324,0,0,0,0,0,0,0,7,1,neutral,0
8,0.12698412698412698,-6.614044,0.0,75.05863956215794,0,0.6972607181203097,0.6971861503188271,0.7211238434135582,-0.02393771354217766,0,0,0,0,0,0,0,8,1,neutral,0
9,0.14285714285714285,-2.510498,1.4855537871058218,75.05863956215794,0,0.6971118513198892,0.6970668610711216,0.7212424123642847,-0.02417557181856407,0,0,0,0,0,0,0,9,1,neutral,0
10,0.15873015873015872,-0.2818451,2.594023066158094,75.05863956215794,0,0.6969782268750139,0.6969629737461092,0.7213612780346136,-0.024398324891906728,0,0,0,0,0,0,0,10,1,neutral,0
11,0.1746031746031746,-0.2436371,1.4569773159937256,75.05863956215794,0,0.696866747930045,0.6968803880246975,0.7214804396052501,-0.024600072262001303,0,0,0,0,0,0,0,11,1,neutral,0
12,0.19047619047619047,-2.802994,0.0,75.05863956215794,0,0.6967843176293432,0.6968251314800318,0.7215998962427393,-0.024774785522246535,0,0,0,0,0,0,0,12,1,neutral,0
13,0.20634920634920634,-8.535019,0.0,75.05863956215794,0,0.6967378391172695,0.6968030410003995,0.7217196470993517,-0.024916626936623186,0,0,0,0,0,0,0,13,1,neutral,0
14,0.2222222222222222,-17.84486,0.0,75.05863956215794,0,0.6967342155381848,0.6968194447579038,0.7218396913129822,-0.025020267470922074,0,0,0,0,0,0,0,14,1,neutral,0
15,0.23809523809523808,-30.76237,0.0,75.05863956215794,0,0.6967803500364499,0.6968788663725602,0.7219600280070705,-0.02508118262856523,0,0,0,0,0,0,0,15,1,neutral,0
16,0.25396825396825395,-46.75424,0.0,75.05863956215794,0,0.6968831457564258,0.6969847706508286,0.7220806562905414,-0.02509590671201637,0,0,0,0,0,0,0,16,1,neutral,0
17,0.2698412698412698,-64.61824,0.0,75.05863956215794,0,0.6970477427380597,0.6971393666441448,0.722201575257771,-0.02506222976421365,0,0,0,0,0,0,0,17,1,neutral,0
18,0.2857142857142857,-82.52153,0.0,75.05863956215794,0,0.6972708096678641,0.6973434790796843,0.722322783988578,-0.024979326137799258,0,0,0,0,0,0,0,18,1,neutral,0
19,0.30158730158730157,-98.84355,0.0,75.05863956215794,0,0.6975464740622866,0.6975964938892285,0.7224442815482445,-0.024847808966272027,0,0,0,0,0,0,0,19,1,neutral,0
20,0.31746031746031744,-112.8249,0.0,75.05863956215794,0,0.6978688629550316,0.6978963781301013,0.7225660669875633,-0.02466971024309934,0,0,0,0,0,0,0,20,1,neutral,0
21,0.3333333333333333,-124.8271,0.0,75.05863956215794,0,0.698232103379803,0.6982397695973854,0.7226881393429142,-0.024448391209576346,0,0,0,0,0,0,0,21,1,neutral,0
22,0.3492063492063492,-135.907,0.0,75.05863956215794,0,0.6986303223703055,0.698622127310112,0.7228104976363655,-0.024188391868738505,0,0,0,0,0,0,0,22,1,neutral,0
23,0.36507936507936506,-146.7908,0.0,75.05863956215794,0,0.6990576469602433,0.6990379310728991,0.7229331408758022,-0.02389523142385103,0,0,0,0,0,0,0,23,1,neutral,0
24,0.38095238095238093,-157.3536,0.0,75.05863956215794,0,0.699508204183321,0.6994809165303514,0.7230560680550748,-0.02357517322415829,0,0,0,0,0,0,0,24,1,neutral,0
25,0.3968253968253968,-166.7731,0.0,75.05863956215794,0,0.6999761210732427,0.6999443314541005,0.7231792781541678,-0.023234968478011174,0,0,0,0,0,0,0,25,1,neutral,0
26,0.4126984126984127,-173.5094,0.0,75.05863956215794,0,0.700455524663713,0.7004211992503453,0.7233027701393836,-0.022881592745511773,0,0,0,0,0,0,0,26,1,neutral,0
27,0.42857142857142855,-175.5455,0.0,75.05863956215794,0,0.7009405419884357,0.7009045766328412,0.7234265429635381,-0.022521988265718714,0,0,0,0,0,0,0,27,1,neutral,0
28,0.4444444444444444,-171.765,0.0,75.05863956215794,0,0.7014253000811157,0.701387793864636,0.7235505955661637,-0.022162823715114972,0,0,0,0,0,0,0,28,1,neutral,0
29,0.4603174603174603,-162.5165,0.0,75.05863956215794,0,0.7019039259754574,0.7018646677608215,0.7236749268737164,-0.021810281205062825,0,0,0,0,0,0,0,29,1,neutral,0
30,0.47619047619047616,-149.6674,0.0,75.05863956215794,0,0.7023705467051646,0.7023296796445706,0.7237995357997822,-0.02146987832597361,0,0,0,0,0,0,0,30,1,neutral,0
31,0.49206349206349204,-135.7591,0.0,75.05863956215794,0,0.7028192893039422,0.7027781125901927,0.7239244212452807,-0.021146330904455644,0,0,0,0,0,0,0,31,1,neutral,0
32,0.5079365079365079,-122.5801,0.0,75.05863956215794,0,0.7032442808054943,0.7032061445354951,0.7240495820986609,-0.02084345989114902,0,0,0,0,0,0,0,32,1,neutral,0
33,0.5238095238095237,-110.6949,0.0,75.05863956215794,0,0.7036405085740404,0.7036108961752962,0.724175017236088,-0.020564143467398724,0,0,0,0,0,0,0,33,1,neutral,0
34,0.5396825396825397,-100.1634,0.0,75.05863956215794,0,0.7040079370603263,0.7039904349059607,0.7243007255216188,-0.020310313100894636,0,0,0,0,0,0,0,34,1,neutral,0
35,0.5555555555555556,-89.96738,0.0,75.05863956215794,0,0.7043483163582253,0.7043437383682278,0.724426705807363,-0.020082990003005362,0,0,0,0,0,0,0,35,1,neutral,0
36,0.5714285714285714,-77.94494,0.0,75.05863956215794,0,0.7046633988665946,0.7046706231630034,0.7245529569336301,-0.01988235641313295,0,0,0,0,0,0,0,36,1,neutral,0
37,0.5873015873015872,-62.16279,0.0,75.05863956215794,0,0.704954936984291,0.7049716458997266,0.7246794777290616,-0.019707854550477702,0,0,0,0,0,0,0,37,1,neutral,0
38,0.6031746031746031,-41.70146,0.0,75.05863956215794,0,0.7052246831101715,0.7052479847258044,0.7248062670107477,-0.019558305084720853,0,0,0,0,0,0,0,38,1,neutral,0
39,0.6190476190476191,-17.47114,0.0,75.05863956215794,0,0.7054743896430932,0.7055013098114941,0.7249333235843288,-0.019432036651243635,0,0,0,0,0,0,0,39,1,neutral,0
40,0.6349206349206349,7.987555,0.0,75.05863956215794,0,0.7057058089819126,0.7057336509562314,0.7250606462440828,-0.019327018244886196,0,0,0,0,0,0,0,40,1,neutral,0
41,0.6507936507936507,31.91278,0.0,75.05863956215794,0,0.7059206935254871,0.705947269642203,0.7251882337729989,-0.019240987166449404,0,0,0,0,0,0,0,41,1,neutral,0
42,0.6666666666666666,51.86924,16.437381550789,75.05863956215794,0,0.7061207956726736,0.706144541633035,0.7253160849428396,-0.019171566424067824,0,0,0,0,0,0,0,42,1,neutral,0
43,0.6825396825396826,65.46655,28.39032000225358,75.05863956215794,0,0.7063078678223289,0.7063278547566062,0.7254441985141913,-0.0191163669504466,0,0,0,0,0,0,0,43,1,neutral,0
44,0.6984126984126984,72.56294,34.83278061290797,75.05863956215794,0,0.7064836623733102,0.7064995249688929,0.7255725732365047,-0.019073071539058427,0,0,0,0,0,0,0,44,1,neutral,0
45,0.7142857142857142,76.3882,38.44201113549405,75.05863956215794,0,0.706649931724474,0.7066617322944911,0.7257012078481283,-0.019039498903653876,0,0,0,0,0,0,0,45,1,neutral,0
46,0.7301587301587301,82.06869,43.72698791400836,75.05863956215794,0,0.7068084282746778,0.7068164768717897,0.7258301010763336,-0.01901364763311353,0,0,0,0,0,0,0,46,1,neutral,0
47,0.746031746031746,95.05541,55.963011834804405,75.05863956215794,0,0.7069609044227783,0.7069655541562869,0.7259592516373353,-0.018993720988151823,0,0,0,0,0,0,0,47,1,neutral,0
48,0.7619047619047619,118.9199,79.69595438998192,75.05863956215794,0,0.7071091125676323,0.7071105473838932,0.7260886582363072,-0.018978134438029974,0,0,0,0,0,0,0,48,1,neutral,0
49,0.7777777777777777,154.6416,117.13753100703127,75.05863956215794,0,0.7072547110502686,0.7072528346738407,0.7262183195673938,-0.018965508557658425,0,0,0,0,0,0,0,49,1,neutral,0
50,0.7936507936507936,201.544,166.8473573644892,75.05863956215794,0,0.7073986999457692,0.7073936076509506,0.7263482343137198,-0.018954650405338308,0,0,0,0,0,0,0,50,1,neutral,0
51,0.8095238095238095,257.1696,223.18571788940162,75.05863956215794,0,0.7075417981301996,0.7075338981780589,0.7264784011473978,-0.018944526790344682,0,0,0,0,0,0,0,51,1,neutral,0
52,0.8253968253968254,316.6403,277.02969178295706,75.05863956215794,0,0.707684723424159,0.7076746097013862,0.7266088187295353,-0.01893423292756184,0,0,0,0,0,0,0,52,1,neutral,0
53,0.8412698412698412,365.5301,317.94999550110407,75.05863956215794,0,0.7078281936482475,0.7078165498156069,0.7267394857102404,-0.01892295987242147,0,0,0,0,0,0,0,53,1,neutral,0
54,0.8571428571428571,389.3888,337.35968290454446,75.05863956215794,1,0.707972926623064,0.7079604609383756,0.7268704007286279,-0.018909963846381942,0,0,0,0,0,0,0,54,1,neutral,0
55,0.873015873015873,380.4275,331.412938014585,76.6026694073345,0,0.7081196401692083,0.7081070464245898,0.7270015624128264,-0.018894540122672082,0,0,0,0,0,0,0,55,1,neutral,0
56,0.8888888888888888,343.5903,302.27606802073916,78.19661963537062,0,0.7082690521072796,0.7082569900180347,0.727132969379986,-0.01887600357465464,0,0,0,0,0,0,0,56,1,neutral,0
57,0.9047619047619047,292.393,257.11706960787996,79.83998970831378,0,0.7084218802578777,0.7084109671951856,0.7272646202362871,-0.018853677332032623,0,0,0,0,0,0,0,57,1,neutral,0
58,0.9206349206349206,239.5399,205.35650874362153,81.53193872614898,0,0.7085788424416019,0.7085696476628288,0.7273965135769525,-0.01882689028323986,0,0,0,0,0,0,0,58,1,neutral,0
59,0.9365079365079365,191.6986,155.57803004667508,83.27123274838154,0,0.7087406564790515,0.7087336889875212,0.7275286479862589,-0.01879498344599445,0,0,0,0,0,0,0,59,1,neutral,0
60,0.9523809523809523,156.9018,113.4825212949962,85.05618751776446,0,0.7089080401908261,0.7089037220218535,0.7276610220375538,-0.018757324541050724,0,0,0,0,0,0,0,60,1,neutral,0
61,0.9682539682539681,130.0431,81.48689820901313,86.88460678285367,0,0.7090817113975252,0.7090803294134993,0.7277936342932735,-0.018713329483169405,0,0,0,0,0,0,0,61,1,neutral,0
62,0.9841269841269841,107.0089,59.55660354294001,88.75371662034834,0,0.7092623879197483,0.7092640190048807,0.7279264833049657,-0.018662488981474004,0,0,0,0,0,0,0,62,1,neutral,0
63,1.0,87.74612,46.255167072229526,90.66009641353374,0,0.7094507875780948,0.7094551943251641,0.7280595676133149,-0.01860439804748021,0,0,0,0,0,0,0,63,1,neutral,0
0,0.0,15.00723,6.876933371728902,66.45017646232186,0,0.7496843955930523,0.7496893310939181,0.7485826036152581,0.0011062434453595021,0,0,0,0,0,0,0,1441,3,neutral,2
1,0.015873015873015872,10.07004,0.7430063737036238,65.25150076264406,0,0.7495809397096248,0.7495894160886064,0.748554768362272,0.0010341518048990052,0,0,0,0,0,0,0,1442,3,neutral,2
2,0.031746031746031744,4.215118,0.0,64.08866466029808,0,0.74949859044434,0.7495104572221468,0.7485271680525165,0.0009827812892365608,0,0,0,0,0,0,0,1443,3,neutral,2
3,0.047619047619047616,-1.709351,0.0,62.960941678982145,0,0.749438751108814,0.7494533002081515,0.748499803816573,0.0009529764811985592,0,0,0,0,0,0,0,1444,3,neutral,2
4,0.06349206349206349,-6.857117,0.0,61.86757974807654,0,0.7494028250146634,0.7494185992801214,0.7484726767856,0.0009453904829236763,0,0,0,0,0,0,0,1445,3,neutral,2
5,0.07936507936507936,-10.58975,0.0,60.80780824396998,0,0.7493921640631974,0.7494068094071027,0.7484457880913162,0.0009604771315358056,0,0,0,0,0,0,0,1446,3,neutral,2
6,0.09523809523809523,-12.62482,0.0,59.78084416093681,0,0.7494070027739886,0.7494181868155935,0.7484191388659962,0.0009984915210552712,0,0,0,0,0,0,0,1447,3,neutral,2
7,0.1111111111111111,-13.04379,0.0,58.78589749706732,0,0.7494464932745244,0.74945279745212,0.7483927302424788,0.001059498464966498,0,0,0,0,0,0,0,1448,3,neutral,2
8,0.12698412698412698,-12.26266,0.0,57.82217593471507,0,0.7495097432821357,0.7495105321984836,0.7483665633541895,0.001143387711442281,0,0,0,0,0,0,0,1449,3,neutral,2
9,0.14285714285714285,-10.89175,0.0,56.888888888888886,0,0.7495958605141539,0.749591126896015,0.7483406393351764,0.0012498939675632528,0,0,0,0,0,0,0,1450,3,neutral,2
10,0.15873015873015872,-9.496185,0.0,55.985250991098376,0,0.7497039526879102,0.7496941846490502,0.748314959320158,0.0013786192027448914,0,0,0,0,0,0,0,1451,3,neutral,2
11,0.1746031746031746,-8.442413,0.0,55.11048507044356,0,0.749833127520736,0.7498191975407659,0.7482895244445855,0.0015290543645106128,0,0,0,0,0,0,0,1452,3,neutral,2
12,0.19047619047619047,-7.855988,0.0,54.263824688284764,0,0.7499824927299622,0.7499655648505894,0.7482643358447173,0.0017005975958287883,0,0,0,0,0,0,0,1453,3,neutral,2
13,0.20634920634920634,-7.733276,0.0,53.444516277674225,0,0.7501511560329203,0.7501326051196742,0.7482393946577057,0.001892566300499366,0,0,0,0,0,0,0,1454,3,neutral,2
14,0.2222222222222222,-8.057922,0.0,52.65182093390152,0,0.7503382251469412,0.7503195599468484,0.7482147020216969,0.0021042009390037477,0,0,0,0,0,0,0,1455,3,neutral,2
15,0.23809523809523808,-8.759094,0.0,51.885015898013116,0,0.7505428077893561,0.7505255881653631,0.7481902590759418,0.0023346592051418044,0,0,0,0,0,0,0,1456,3,neutral,2
16,0.25396825396825395,-9.748688,0.0,51.143395771011136,0,0.7507640116774965,0.750749749985838,0.748166066960919,0.002583000168854755,0,0,0,0,0,0,0,1457,3,neutral,2
17,0.2698412698412698,-10.99512,0.0,50.426273492615984,0,0.7510009445286936,0.7509909817153805,0.7481421268184685,0.002848158995210984,0,0,0,0,0,0,0,1458,3,neutral,2
18,0.2857142857142857,-12.61774,0.0,49.73298111497883,0,0.7512527140602783,0.7512480626915705,0.7481184397919347,0.0031289138782465468,0,0,0,0,0,0,0,1459,3,neutral,2
19,0.30158730158730157,-14.89365,0.0,49.06287039854035,0,0.7515184279895819,0.7515195770153907,0.7480950070263209,0.0034238477737423808,0,0,0,0,0,0,0,1460,3,neutral,2
20,0.31746031746031744,-18.1741,0.0,48.41531325433543,0,0.7517971940339359,0.7518038734460846,0.7480718296684515,0.003731308293918944,0,0,0,0,0,0,0,1461,3,neutral,2
21,0.3333333333333333,-22.75333,0.0,47.78970205442049,0,0.7520880815564841,0.7520990273624084,0.7480489088671431,0.004049369668518493,0,0,0,0,0,0,0,1462,3,neutral,2
22,0.3492063492063492,-28.68597,0.0,47.18544982973419,0,0.7523890373435237,0.7524028089494401,0.7480262457733822,0.004375800931435224,0,0,0,0,0,0,0,1463,3,neutral,2
23,0.36507936507936506,-35.69727,0.0,46.601990372572885,0,0.7526967331539376,0.7527126617193997,0.7480038415405089,0.004708044441351823,0,0,0,0,0,0,0,1464,3,neutral,2
24,0.38095238095238093,-42.82428,0.0,46.03877825895257,0,0.7530077717472343,0.7530256951346681,0.7479816973244066,0.005043208504569907,0,0,0,0,0,0,0,1465,3,neutral,2
25,0.3968253968253968,-48.74167,0.0,45.4952888044202,0,0.7533187558829223,0.753338694513811,0.747959814283693,0.005378077280840809,0,0,0,0,0,0,0,1466,3,neutral,2
26,0.4126984126984127,-52.24722,0.0,44.97101796535308,0,0.7536262883205098,0.7536481506176101,0.7479381935799145,0.0057091403692046535,0,0,0,0,0,0,0,1467,3,neutral,2
27,0.42857142857142855,-52.7034,0.0,44.465482196429036,0,0.7539269718195057,0.7539503103727162,0.7479168363777395,0.006032643531448742,0,0,0,0,0,0,0,1468,3,neutral,2
28,0.4444444444444444,-50.14804,0.0,43.978218273747345,0,0.7542174091394183,0.7542412491202863,0.7478957438451491,0.006344660940554294,0,0,0,0,0,0,0,1469,3,neutral,2
29,0.4603174603174603,-45.00449,0.0,43.5087830920175,0,0.7544942030397561,0.7545169635913891,0.7478749171536245,0.006641188155914467,0,0,0,0,0,0,0,1470,3,neutral,2
30,0.47619047619047616,-37.77151,0.0,43.056753443296486,0,0.7547539562800275,0.7547734835296688,0.7478543574783265,0.006918253745818937,0,0,0,0,0,0,0,1471,3,neutral,2
31,0.49206349206349204,-28.86786,0.0,42.62172578393384,0,0.7549932716197412,0.7550069985414495,0.7478340659982665,0.007172046137387069,0,0,0,0,0,0,0,1472,3,neutral,2
32,0.5079365079365079,-18.73868,0.0,42.20331599566722,0,0.7552087518184056,0.7552139954169238,0.7478140438964668,0.007399050937596937,0,0,0,0,0,0,0,1473,3,neutral,2
33,0.5238095238095237,-7.455261,0.0,41.80115914618945,0,0.7553969996355292,0.75539139992586,0.7477942923601063,0.007596192728845495,0,0,0,0,0,0,0,1474,3,neutral,2
34,0.5396825396825397,5.096832,0.0,41.41490925397224,0,0.7555546178306206,0.7555367160668026,0.7477748125806521,0.007760974318018899,0,0,0,0,0,0,0,1475,3,neutral,2
35,0.5555555555555556,18.62247,0.0,41.0442390616756,0,0.755678209163188,0.7556481550761438,0.7477556057539728,0.007891605745449674,0,0,0,0,0,0,0,1476,3,neutral,2
36,0.5714285714285714,32.09232,0.0,40.68883982208694,0,0.75576437639274,0.7557247463174274,0.7477366730804332,0.007987115174126036,0,0,0,0,0,0,0,1477,3,neutral,2
37,0.5873015873015872,44.0199,0.0,40.34842110021584,0,0.7558098075183394,0.7557664225789871,0.747718015764971,0.008047434187253994,0,0,0,0,0,0,0,1478,3,neutral,2
38,0.6031746031746031,53.08273,6.536087038795944,40.022710594912574,0,0.7558147035282744,0.7557740733560413,0.7476996350171512,0.00807345107029746,0,0,0,0,0,0,0,1479,3,neutral,2
39,0.6190476190476191,58.57779,11.76572863473446,39.7114539831787,0,0.7557839476761388,0.7557495613344304,0.7476815320512022,0.008067027294679332,0,0,0,0,0,0,0,1480,3,neutral,2
40,0.6349206349206349,60.47153,13.57978360064515,39.41441479019007,0,0.7557227483786202,0.755695699371742,0.7476637080860313,0.00803097449889225,0,0,0,0,0,0,0,1481,3,neutral,2
41,0.6507936507936507,59.09729,12.69621252563072,39.131374287956376,0,0.7556363140524059,0.7556161875502942,0.7476461643452212,0.007968991541483509,0,0,0,0,0,0,0,1482,3,neutral,2
42,0.6666666666666666,55.69617,10.430105206514504,38.86213142549261,0,0.7555298531141829,0.7555155121033186,0.7476289020570105,0.0078855634272588,0,0,0,0,0,0,0,1483,3,neutral,2
43,0.6825396825396826,52.4288,8.300122473774675,38.606502793376066,0,0.7554085739806388,0.7553988099957292,0.7476119224542591,0.007785825888085827,0,0,0,0,0,0,0,1484,3,neutral,2
44,0.6984126984126984,51.09042,7.546590479890646,38.36432262560694,0,0.7552776850684609,0.7552717045714371,0.7475952267744015,0.007675401030255459,0,0,0,0,0,0,0,1485,3,neutral,2
45,0.7142857142857142,52.24445,8.758168401314212,38.135442841780765,0,0.7551423947943365,0.7551401189406238,0.7475788162593898,0.007560210721811341,0,0,0,0,0,0,0,1486,3,neutral,2
46,0.7301587301587301,55.24994,11.77006833824021,37.91973313271768,0,0.755007911574953,0.7550100747026256,0.7475626921556321,0.00744627531549694,0,0,0,0,0,0,0,1487,3,neutral,2
47,0.746031746031746,58.95779,15.877607541545919,37.717081092878125,0,0.7548794438269976,0.7548874842269311,0.7475468557139269,0.007339505929818435,0,0,0,0,0,0,0,1488,3,neutral,2
48,0.7619047619047619,62.54965,20.275065007595657,37.527392403128886,0,0.7547621999671577,0.7547779450762119,0.7475313081893991,0.0072454988721393195,0,0,0,0,0,0,0,1489,3,neutral,2
49,0.7777777777777777,65.85916,24.553838579731096,37.35059106771125,0,0.7546613884121206,0.7546865452502605,0.7475160508414389,0.007169340882679099,0,0,0,0,0,0,0,1490,3,neutral,2
50,0.7936507936507936,69.17004,29.09604124243534,37.186619709606376,0,0.7545822175785737,0.7546176877206388,0.7475010849336493,0.007115433669214494,0,0,0,0,0,0,0,1491,3,neutral,2
51,0.8095238095238095,73.86545,35.25266731072223,37.03543992889975,0,0.7545298958832043,0.7545749421450809,0.7474864117338029,0.007087345621525852,1,0,0,0,0,0,0,1492,3,neutral,2
52,0.8253968253968254,82.94339,45.263189655846766,36.8970327292188,0,0.7545096317426996,0.7545609306187332,0.7474720325138117,0.007087697562666387,0,0,0,0,0,0,0,1493,3,neutral,2
53,0.8412698412698412,99.3208,61.92637091540706,36.77139901786667,0,0.7545265760797946,0.7545772527742008,0.7474579485497113,0.007118087849025682,0,0,0,0,0,0,0,1494,3,neutral,2
54,0.8571428571428571,124.5966,88.04540036483512,36.65856018590657,0,0.75458232701928,0.7546244534782846,0.7474441611216623,0.007179060067064364,0,0,0,0,0,0,0,1495,3,neutral,2
55,0.873015873015873,159.2502,125.65643932339741,36.558558775176834,0,0.7546729156980957,0.7547020338801782,0.7474306715139676,0.007270114081495015,0,0,0,0,0,0,0,1496,3,neutral,2
56,0.8888888888888888,203.3011,175.08942124940134,36.47145924004906,0,0.754793887272573,0.7548085038494243,0.7474174810151075,0.007389758473201735,0,0,0,0,0,0,0,1497,3,neutral,2
57,0.9047619047619047,257.26,234.08563049538506,36.39734881269474,0,0.7549407868990422,0.7549414711972581,0.7474045909177927,0.00753559976053194,0,0,0,0,0,0,0,1498,3,neutral,2
58,0.9206349206349206,322.2662,297.4351185186644,36.33633848171722,0,0.7551091597338341,0.7550977608122486,0.7473920025190324,0.007704461534868973,0,0,0,0,0,0,0,1499,3,neutral,2
59,0.9365079365079365,386.6778,357.61634321511127,36.28856409525619,0,0.7552945509332794,0.7552735552009409,0.7473797171202188,0.007892525001190157,0,0,0,0,0,0,0,1500,3,neutral,2
60,0.9523809523809523,437.2162,406.4864014054887,36.25418760110504,0,0.7554925056537085,0.755464547030344,0.7473677360272234,0.008095481520457715,0,0,0,0,0,0,0,1501,3,neutral,2
61,0.9682539682539681,464.4404,437.3850042621092,36.23339843802611,0,0.7556985690514522,0.7556660941314965,0.7473560605505053,0.008308687613077022,0,0,0,0,0,0,0,1502,3,neutral,2
62,0.9841269841269841,466.1919,446.65924824953066,36.22641509433962,1,0.7559082862828411,0.7558733679691808,0.7473446920052276,0.008527313428493758,0,0,0,0,0,0,0,1503,3,neutral,2
63,1.0,446.6378,433.9586559852181,36.23147554555394,0,0.756117202504206,0.7560814876922812,0.7473336317113798,0.00874647679542993,0,0,0,0,0,0,0,1504,3,neutral,2
0,0.0,-32.03545,0.0,82.72540893325734,0,0.9991960316560519,0.9992275870964015,1.0193875259871243,-0.02000192603086512,0,0,0,0,0,0,0,2618,5,neutral,4
1,0.015873015873015872,-35.0301,0.0,82.6771145154535,0,0.9995969475607484,0.9996349719140515,1.019609218494767,-0.01981541029682416,0,0,0,0,0,0,0,2619,5,neutral,4
2,0.031746031746031744,-38.63327,0.0,82.62764964684567,0,1.0000237934255238,1.0000650064673302,1.019830574210198,-0.01960590613943884,0,0,0,0,0,0,0,2620,5,neutral,4
3,0.047619047619047616,-42.62376,0.0,82.57704531325231,0,1.0004686633908413,1.0005118227134653,1.0200515940736314,-0.019379282548447493,0,0,0,0,0,0,0,2621,5,neutral,4
4,0.06349206349206349,-46.39804,0.0,82.52533246009082,0,1.0009236515971638,1.0009686623789598,1.02027227901381,-0.019142298732933282,0,0,0,0,0,0,0,2622,5,neutral,4
5,0.07936507936507936,-49.03385,0.0,82.47254198443744,0,1.001380852184954,1.001427936568392,1.0204926299481338,-0.018902544512656494,0,0,0,0,0,0,0,2623,5,neutral,4
6,0.09523809523809523,-49.55527,0.0,82.41870472732633,0,1.0018323592946763,1.0018813364899566,1.0207126477827972,-0.018668329592646977,0,0,0,0,0,0,0,2624,5,neutral,4
7,0.1111111111111111,-47.20606,0.0,82.36385146628837,0,1.0022702670667925,1.0023199959728804,1.020932333412923,-0.018448521045926276,0,0,0,0,0,0,0,2625,5,neutral,4
8,0.12698412698412698,-41.70535,0.0,82.30801290813017,0,1.0026866696417662,1.0027347037535008,1.0211516877226963,-0.01825233102756208,0,0,0,0,0,0,0,2626,5,neutral,4
9,0.14285714285714285,-33.37265,0.0,82.25121968195347,0,1.0030736611600606,1.0031161607045356,1.021370711585489,-0.018089059545523492,0,0,0,0,0,0,0,2627,5,neutral,4
10,0.15873015873015872,-22.99697,0.0,82.1935023324149,0,1.0034233357621387,1.0034552743191074,1.0215894058639705,-0.01796779997676724,0,0,0,0,0,0,0,2628,5,neutral,4
11,0.1746031746031746,-11.64455,0.0,82.13489131322567,0,1.0037277875884638,1.0037434799255782,1.021807771410199,-0.017897117852496855,0,0,0,0,0,0,0,2629,5,neutral,4
12,0.19047619047619047,-0.3511047,0.0,82.07541698089096,0,1.0039791107794986,1.0039730754524694,1.022025809065689,-0.017884716093308942,0,0,0,0,0,0,0,2630,5,neutral,4
13,0.20634920634920634,10.08353,6.838592615190494,82.01510958868828,0,1.0041693994757066,1.0041375543021125,1.0222435196614508,-0.017937102135581653,0,0,0,0,0,0,0,2631,5,neutral,4
14,0.2222222222222222,19.12236,15.375173470246546,81.95399928088392,0,1.0042907478175507,1.004231919296849,1.0224609040179935,-0.01805927398528085,0,0,0,0,0,0,0,2632,5,neutral,4
15,0.23809523809523808,26.45222,22.033191747619995,81.89211608718645,0,1.0043352499454943,1.0042529600220296,1.022677962945294,-0.018254442874928327,0,0,0,0,0,0,0,2633,5,neutral,4
16,0.25396825396825395,31.87041,26.56525451472284,81.82948991743615,0,1.004295,1.0041994764633695,1.022894697242724,-0.018523809626175145,0,0,0,0,0,0,0,2634,5,neutral,4
17,0.2698412698412698,35.19106,28.917773752292174,81.76615055652915,0,1.0041653884635717,1.0040724337783768,1.023111107698936,-0.018866409878258904,0,0,0,0,0,0,0,2635,5,neutral,4
18,0.2857142857142857,36.41019,29.22767479516097,81.70212765957447,1,1.0039549911868741,1.0038750363278184,1.0233271950917069,-0.019279040056382417,0,0,0,0,0,0,0,2636,5,neutral,4
19,0.30158730158730157,35.75758,27.816981102494683,81.62592782594578,0,1.0036756803626126,1.0036127134610433,1.023542960187739,-0.019756271586191924,0,0,0,0,0,0,0,2637,5,neutral,4
20,0.31746031746031744,33.70746,25.15835829716835,81.52668060752539,0,1.0033393281834926,1.0032930145177632,1.0237584037424219,-0.020290555891759397,0,0,0,0,0,0,0,2638,5,neutral,4
21,0.3333333333333333,30.92287,21.796617287995097,81.40537294101433,0,1.0029578068422191,1.0029254155032228,1.023973526499557,-0.020872417720135764,0,0,0,0,0,0,0,2639,5,neutral,4
22,0.3492063492063492,28.05081,18.23953472376591,81.26301821981006,0,1.0025429885314976,1.002521044417325,1.02418832919105,-0.021490729811919865,0,0,0,0,0,0,0,2640,5,neutral,4
23,0.36507936507936506,25.51899,14.856460890425172,81.10065122594693,0,1.002106745444033,1.0020923359746265,1.0244028125365752,-0.02213305818092718,0,0,0,0,0,0,0,2641,5,neutral,4
24,0.38095238095238093,23.48881,11.827210495714159,80.91932323115415,0,1.001660949772531,1.0016526293582961,1.0246169772432192,-0.022786064359876564,0,0,0,0,0,0,0,2642,5,neutral,4
25,0.3968253968253968,21.85674,9.16221975572474,80.72009729800794,0,1.0012174737096968,1.001215724774224,1.0248308240051125,-0.023435948845911995,0,0,0,0,0,0,0,2643,5,neutral,4
26,0.4126984126984127,20.38248,6.7795426075960865,80.50404380762168,0,1.0007881894482356,1.0007954160428807,1.0250443535030531,-0.024068918508367485,0,0,0,0,0,0,0,2644,5,neutral,4
27,0.42857142857142855,18.93988,4.595458583830986,80.27223623580946,0,1.0003849691808524,1.0004050174076802,1.025257566404133,-0.02467165978003247,0,0,0,0,0,0,0,2645,5,neutral,4
28,0.4444444444444444,17.5321,2.58030675526793,80.02574719524962,0,1.000019685100253,1.0000569032091082,1.0254704633613734,-0.025231798982657965,0,0,0,0,0,0,0,2646,5,neutral,4
29,0.4603174603174603,16.27443,0.752647158372225,79.7656447569332,0,0.9997042093991424,0.999762079045311,1.0256830450133787,-0.025738331166022314,0,0,0,0,0,0,0,2647,5,neutral,4
30,0.47619047619047616,15.26759,0.0,79.49298906016263,0,0.999450414270226,0.9995298023964154,1.0258953119840128,-0.026181999483289132,0,0,0,0,0,0,0,2648,5,neutral,4
31,0.49206349206349204,14.48576,0.0,79.208829216614,0,0.9992701719062087,0.9993672692564768,1.0261072648821083,-0.026555608558767856,0,0,0,0,0,0,0,2649,5,neutral,4
32,0.5079365079365079,13.7458,0.0,78.91420051052557,0,0.9991753544997961,0.9992793809137078,1.0263189043012095,-0.026854257707429174,0,0,0,0,0,0,0,2650,5,neutral,4
33,0.5238095238095237,12.71988,0.0,78.61012189394972,0,0.9991748283821693,0.9992686015403427,1.0265302308193576,-0.027075483344825468,0,0,0,0,0,0,0,2651,5,neutral,4
34,0.5396825396825397,11.02665,0.0,78.29759377322168,0,0.9992630173392187,0.9993349127575782,1.0267412449989168,-0.027219304421977394,0,0,0,0,0,0,0,2652,5,neutral,4
35,0.5555555555555556,8.29406,0.0,77.97759608035966,0,0.9994300127955367,0.9994758661247934,1.0269519473864452,-0.027288169936025234,0,0,0,0,0,0,0,2653,5,neutral,4
36,0.5714285714285714,4.466179,0.0,77.65108662102001,0,0.9996659053527023,0.9996867290887468,1.0271623385126099,-0.027286812980947896,0,0,0,0,0,0,0,2654,5,neutral,4
37,0.5873015873015872,-0.180542,0.0,77.31899968887704,0,0.9999607856122948,0.9999607149407559,1.0273724188921456,-0.027222020790342225,0,0,0,0,0,0,0,2655,5,neutral,4
38,0.6031746031746031,-5.150566,0.0,76.98224493486904,0,1.0003047441758934,1.0002892833009283,1.0275821890238537,-0.027102334253189694,0,0,0,0,0,0,0,2656,5,neutral,4
39,0.6190476190476191,-9.91193,0.0,76.64170647863355,0,1.0006878716450769,1.0006624948811114,1.0277916493906352,-0.026937693150942778,0,0,0,0,0,0,0,2657,5,neutral,4
40,0.6349206349206349,-14.16257,0.0,76.29824224862355,0,1.0011002586214248,1.001069402819745,1.0280008004595576,-0.026739044822739026,0,0,0,0,0,0,0,2658,5,neutral,4
41,0.6507936507936507,-17.93873,0.0,75.95268353683097,0,1.0015319957065163,1.0014984625870824,1.0282096426819467,-0.026517934260272255,0,0,0,0,0,0,0,2659,5,neutral,4
42,0.6666666666666666,-21.58318,0.0,75.6058347537208,0,1.00197317350193,1.0019379430811308,1.0284181764934985,-0.026286093011963056,0,0,0,0,0,0,0,2660,5,neutral,4
43,0.6825396825396826,-25.62102,0.0,75.25847336887156,0,1.0024138826092455,1.0023763228046751,1.0286264023144036,-0.02605504300606157,0,0,0,0,0,0,0,2661,5,neutral,4
44,0.6984126984126984,-30.65663,0.0,74.91135002290278,0,1.0028442136300417,1.0028026567014863,1.028834320549477,-0.025835729714569607,0,0,0,0,0,0,0,2662,5,neutral,4
45,0.7142857142857142,-36.73771,0.0,74.56518879652118,0,1.0032542571658982,1.0032069011786642,1.02904193158829,-0.02563819713102906,0,0,0,0,0,0,0,2663,5,neutral,4
46,0.7301587301587301,-43.39964,0.0,74.22068762291276,0,1.0036341038183934,1.0035801869813092,1.0292492358052927,-0.025471314895974262,0,0,0,0,0,0,0,2664,5,neutral,4
47,0.746031746031746,-49.8818,0.0,73.8785188302223,0,1.003973844189107,1.0039150319196,1.0294562335599273,-0.02534256556996699,0,0,0,0,0,0,0,2665,5,neutral,4
48,0.7619047619047619,-55.50681,0.0,73.53932980147763,0,1.0042635688796178,1.0042054880240578,1.0296629251967209,-0.02525789747842666,0,0,0,0,0,0,0,2666,5,neutral,4
49,0.7777777777777777,-59.9832,0.0,73.20374374001115,0,1.0044948989028648,1.0044472205616368,1.0298693110453585,-0.025221645695612825,0,0,0,0,0,0,0,2667,5,neutral,4
50,0.7936507936507936,-63.39928,0.0,72.8723605291891,0,1.0046683088340205,1.0046375194529136,1.0300753914207306,-0.02523652062748377,0,0,0,0,0,0,0,2668,5,neutral,4
51,0.8095238095238095,-66.06786,0.0,72.5457576760645,0,1.0047874496653195,1.0047752468369373,1.030281166622952,-0.0253036604468659,0,0,0,0,0,0,0,2669,5,neutral,4
52,0.8253968253968254,-68.26154,0.0,72.22449132940882,0,1.0048559764892488,1.0048607275574841,1.0304866369373535,-0.025422740607191963,0,0,0,0,0,0,0,2670,5,neutral,4
53,0.8412698412698412,-70.27628,0.0,71.90909736343704,0,1.004877544398296,1.0048955918585507,1.0306918026344414,-0.025592131146966766,0,0,0,0,0,0,0,2671,5,neutral,4
54,0.8571428571428571,-71.41438,0.0,71.60009251941368,0,1.0048558084849488,1.0048825813010156,1.030896663969829,-0.025809090773038574,0,0,0,0,0,0,0,2672,5,neutral,4
55,0.873015873015873,-70.39083,0.0,71.29797559820173,0,1.0047944238416942,1.0048253297141567,1.0311012211841382,-0.026069985908983438,0,0,0,0,0,0,0,2673,5,neutral,4
56,0.8888888888888888,-65.8411,0.0,71.00322869768904,0,1.0046970455610202,1.0047281309051839,1.0313054745028747,-0.026370522985447807,0,0,0,0,0,0,0,2674,5,neutral,4
57,0.9047619047619047,-57.11285,0.0,70.71631848988967,0,1.0045673287354138,1.0045957040212095,1.0315094241362766,-0.02670598307802719,0,0,0,0,0,0,0,2675,5,neutral,4
58,0.9206349206349206,-44.67838,0.0,70.43769753337001,0,1.0044089284573625,1.0044329661122262,1.0317130702791404,-0.02707144934411648,0,0,0,0,0,0,0,2676,5,neutral,4
59,0.9365079365079365,-30.05765,0.0,70.16780561748637,0,1.0042254998193538,1.0042448198166958,1.031916413110628,-0.027462019337126383,0,0,0,0,0,0,0,2677,5,neutral,4
60,0.9523809523809523,-15.30777,0.0,69.90707113574338,0,1.004020697913875,1.0040359623948556,1.032119452794055,-0.027872995972967482,0,0,0,0,0,0,0,2678,5,neutral,4
61,0.9682539682539681,-2.349983,0.0,69.65591248639006,0,1.003798177833414,1.003810720730011,1.0323221894766645,-0.028300052528530517,0,0,0,0,0,0,0,2679,5,neutral,4
62,0.9841269841269841,7.199577,0.0,69.4147394991637,0,1.0035615946704577,1.0035729155029445,1.0325246232893894,-0.02873936846704254,0,0,0,0,0,0,0,2680,5,neutral,4
63,1.0,13.75991,0.0,69.18395488787438,0,1.0033146035174938,1.003325756553702,1.032726754346605,-0.029187734076031476,0,0,0,0,0,0,0,2681,5,neutral,4
