,index,PPG_Raw,PPG_Clean,PPG_Rate,PPG_Peaks,EDA_Raw,EDA_Clean,EDA_Tonic,EDA_Phasic,SCR_Onsets,SCR_Peaks,SCR_Height,SCR_Amplitude,SCR_RiseTime,SCR_Recovery,SCR_RecoveryTime,Index,Label,Condition,id
0,0.0,-49.49011,0.0,65.30688063119482,0,1.1827798308626059,1.1827162553969153,1.2170183651693605,-0.0343020286585148,0,0,0,0,0,0,0,440,2,radost,1
1,0.015873015873015872,-25.07587,0.0,65.25679842302452,0,1.1826718707997101,1.1826027715013483,1.2169818635097,-0.03437901039320987,0,0,0,0,0,0,0,441,2,radost,1
2,0.031746031746031744,-0.9770508,0.0,65.21261615957066,0,1.1826422369708052,1.1825743386910117,1.2169453655194788,-0.03437094471059555,0,0,0,0,0,0,0,442,2,radost,1
3,0.047619047619047616,20.02588,8.386938711473801,65.17456856282479,0,1.182685554432137,1.1826240550602392,1.2169088722853865,-0.034284734603029936,0,0,0,0,0,0,0,443,2,radost,1
4,0.06349206349206349,36.53888,25.75407397069745,65.1428925428353,0,1.1827964482399511,1.1827447947846361,1.2168723848741796,-0.03412750696166487,0,0,0,0,0,0,0,444,2,radost,1
5,0.07936507936507936,48.57346,38.64911003018056,65.11782766454701,0,1.1829695434504934,1.182929461961865,1.2168359043327293,-0.03390635873571099,0,0,0,0,0,0,0,445,2,radost,1
6,0.09523809523809523,56.8763,47.25883561016141,65.09961663590349,0,1.183199465120009,1.1831711984197333,1.2167994316881101,-0.033628149124437345,0,0,0,0,0,0,0,446,2,radost,1
7,0.1111111111111111,62.21921,52.21676727927622,65.08850581855842,0,1.183480838304744,1.1834635432180272,1.2167629679477272,-0.033299340075464305,0,0,0,0,0,0,0,447,2,radost,1
8,0.12698412698412698,65.09789,54.275547668173644,65.08474576271186,1,1.1838082880609435,1.1838005445614455,1.2167265140994754,-0.03292588437198981,0,0,0,0,0,0,0,448,2,radost,1
9,0.14285714285714285,65.73068,54.1469291014229,65.36203249148564,0,1.1841764394448535,1.1841768272228657,1.2166900711119284,-0.03251315820971233,0,0,0,0,0,0,0,449,2,radost,1
10,0.15873015873015872,64.39519,52.50411166653325,66.17080146102477,0,1.1845799424179786,1.1845876203117367,1.2166536399345549,-0.03206593342865284,0,0,0,0,0,0,0,450,2,radost,1
11,0.1746031746031746,61.6947,50.04216078551757,67.49269792467332,0,1.1850145961042744,1.1850287513329705,1.2166172214979556,-0.031588383454502586,0,0,0,0,0,0,0,451,2,radost,1
12,0.19047619047619047,58.56297,47.47858626496913,69.32764606917901,0,1.1854778064790021,1.1854966130221496,1.2165808167141219,-0.031084116463672602,0,0,0,0,0,0,0,452,2,radost,1
13,0.20634920634920634,55.99861,45.44275679431268,71.69098214087721,0,1.1859670991976516,1.1859881094801898,1.2165444264767131,-0.030556229248908728,0,0,0,0,0,0,0,453,2,radost,1
14,0.2222222222222222,54.65382,44.298174683165165,74.61168073415283,0,1.1864799999157112,1.1865005877359303,1.2165080516613476,-0.030007375656992016,0,0,0,0,0,0,0,454,2,radost,1
15,0.23809523809523808,54.53033,44.00377902023546,78.13112283345893,0,1.1870140342886701,1.187031760120564,1.2164716931259085,-0.02943984421461466,0,0,0,0,0,0,0,455,2,radost,1
16,0.25396825396825395,54.99585,44.11407622247486,82.30190120228191,0,1.1875667279720175,1.187579621846935,1.2164353517108621,-0.028855640549401297,0,0,0,0,0,0,0,456,2,radost,1
17,0.2698412698412698,55.18106,43.951286178310056,87.18607268153835,0,1.1881356066212418,1.1881423670753466,1.216399028239586,-0.02825657132442812,0,0,0,0,0,0,0,457,2,radost,1
18,0.2857142857142857,54.27556,42.89662817760361,92.8520440001149,0,1.1887181958918325,1.1887183056521182,1.2163627235187082,-0.027644327500006588,0,0,0,0,0,0,0,458,2,radost,1
19,0.30158730158730157,51.93898,40.68768374843222,99.36889636499284,0,1.1893120214392776,1.189305781757165,1.2163264383384549,-0.027020565686449567,0,0,0,0,0,0,0,459,2,radost,1
20,0.31746031746031744,48.47368,37.60059164515196,106.79639990270006,0,1.1899146089190675,1.1899030949986225,1.2162901734730047,-0.02638698704980305,0,0,0,0,0,0,0,460,2,radost,1
21,0.3333333333333333,44.83479,34.43891599138036,115.16828861505577,0,1.1905234839866903,1.1905084241171078,1.216253929680851,-0.02574541360794541,0,0,0,0,0,0,0,461,2,radost,1
22,0.3492063492063492,42.31604,32.32301319725244,124.46578631452581,0,1.1911361722976355,1.1911197534385487,1.2162177077051686,-0.02509786177812642,0,0,0,0,0,0,0,462,2,radost,1
23,0.36507936507936506,42.07156,32.342533809211254,134.57852252988658,0,1.191750199507391,1.1917348025271217,1.2161815082741856,-0.02444661272440108,0,0,0,0,0,0,0,463,2,radost,1
24,0.38095238095238093,44.64925,35.173969557266595,145.25219437081088,0,1.192363091271447,1.1923509600814322,1.21614533210156,-0.023794278461824164,0,0,0,0,0,0,0,464,2,radost,1
25,0.3968253968253968,49.74887,40.76786740794449,156.0287994524419,0,1.1929723732452915,1.1929652238954889,1.216109179886756,-0.023143861895853317,0,0,0,0,0,0,0,465,2,radost,1
26,0.4126984126984127,56.53616,48.190766254553736,166.19810725552048,0,1.1935755573755071,1.1935741495558465,1.216073052315422,-0.022498808125585367,0,0,0,0,0,0,0,466,2,radost,1
27,0.42857142857142855,63.57553,55.68421081874675,174.79682868925374,0,1.194169205488733,1.1941738113440827,1.216036950059767,-0.02186304354165413,0,0,0,0,0,0,0,467,2,radost,1
28,0.4444444444444444,68.88828,60.977992774559446,180.70335723250628,0,1.1947483282644393,1.1947597794454212,1.2160008737789343,-0.02124099861798221,0,0,0,0,0,0,0,468,2,radost,1
29,0.4603174603174603,70.25023,61.846603772205086,182.85714285714286,1,1.1953077933387832,1.1953271179384843,1.2159648241193695,-0.020637609922395567,0,0,0,0,0,0,0,469,2,radost,1
30,0.47619047619047616,65.8924,56.812494121183775,182.6273838235476,0,1.1958424683479194,1.19587040809205,1.2159288017151795,-0.02005829682022655,0,0,0,0,0,0,0,470,2,radost,1
31,0.49206349206349204,55.24263,45.79778967107924,181.9589980057789,0,1.1963472209280044,1.1963838011727481,1.215892807188482,-0.019508908666965894,0,0,0,0,0,0,0,471,2,radost,1
32,0.5079365079365079,39.43857,30.462375268108975,180.88742300765205,0,1.1968169187151938,1.1968611042287634,1.2158568411497404,-0.018995639024895244,0,0,0,0,0,0,0,472,2,radost,1
33,0.5238095238095237,21.38466,13.999871875352236,179.452344968165,0,1.1972464293456435,1.1972959011199724,1.2158209041980796,-0.01852490463326579,0,0,0,0,0,0,0,473,2,radost,1
34,0.5396825396825397,5.157425,0.3208657661539609,177.69619073691484,0,1.1976306204555094,1.197681709394431,1.215784996921584,-0.018103188532109477,0,0,0,0,0,0,0,474,2,radost,1
35,0.5555555555555556,-4.687897,0.0,175.66270919933095,0,1.197964359680948,1.1980121714830017,1.2157491198975674,-0.017736848867880784,0,0,0,0,0,0,0,475,2,radost,1
36,0.5714285714285714,-5.352127,0.0,173.3957050370605,0,1.1982425146581142,1.1982812761729444,1.215713273692817,-0.017431897420110292,0,0,0,0,0,0,0,476,2,radost,1
37,0.5873015873015872,2.540894,0.028390216471636837,170.93796600373287,0,1.1984599530231645,1.198483603569812,1.2156774588638037,-0.017193754639719745,0,0,0,0,0,0,0,477,2,radost,1
38,0.6031746031746031,14.78461,10.428284299415186,168.33040368207404,0,1.1986115424122545,1.198614583977053,1.2156416759568578,-0.017026990769594474,0,0,0,0,0,0,0,478,2,radost,1
39,0.6190476190476191,25.31323,19.481081974669628,165.61140962636645,0,1.1986921504615404,1.1986707585866894,1.2156059255083063,-0.016935065154042715,0,0,0,0,0,0,0,479,2,radost,1
40,0.6349206349206349,28.66174,22.655728984401527,162.81641485066393,0,1.198696644807178,1.1986500278929766,1.2155702080445683,-0.016920077825231812,0,0,0,0,0,0,0,480,2,radost,1
41,0.6507936507936507,21.84073,17.14280756704624,159.97763107603353,0,1.198619893085323,1.1985518726266853,1.2155345240822084,-0.016982548568959123,0,0,0,0,0,0,0,481,2,radost,1
42,0.6666666666666666,5.100845,2.721862719088876,157.12394669126144,0,1.198456810390143,1.1983775320241665,1.2154988741279444,-0.0171212386555951,0,0,0,0,0,0,0,482,2,radost,1
43,0.6825396825396826,-18.55815,0.0,154.28094834368417,0,1.1982077365054065,1.1981301255425478,1.2154632586786116,-0.017333029124851466,0,0,0,0,0,0,0,483,2,radost,1
44,0.6984126984126984,-43.86688,0.0,151.47103963714682,0,1.1978833800594355,1.1978147066796077,1.2154276782210836,-0.01761286696582692,0,0,0,0,0,0,0,484,2,radost,1
45,0.7142857142857142,-65.71594,0.0,148.71363074779106,0,1.1974956180532923,1.197438241106378,1.2153921332321502,-0.01795378698428315,0,0,0,0,0,0,0,485,2,radost,1
46,0.7301587301587301,-80.94025,0.0,146.02537614709198,0,1.1970563274880397,1.1970095054477259,1.215356624178358,-0.018347013021903474,0,0,0,0,0,0,0,486,2,radost,1
47,0.746031746031746,-88.62805,0.0,143.4204414620785,0,1.1965773853647406,1.1965389072740746,1.2153211515158138,-0.018782137964375282,0,0,0,0,0,0,0,487,2,radost,1
48,0.7619047619047619,-88.97746,0.0,140.91078437853247,0,1.196070668684458,1.1960382308121162,1.2152857156899597,-0.01924737803045304,0,0,0,0,0,0,0,488,2,radost,1
49,0.7777777777777777,-82.39398,0.0,138.5064381222491,0,1.1955480544482544,1.1955203163338193,1.215250317135324,-0.01972989338270097,0,0,0,0,0,0,0,489,2,radost,1
50,0.7936507936507936,-69.66354,0.0,136.21578927420413,0,1.1950214196571922,1.1949986840946905,1.215214956275255,-0.020216164188964467,0,0,0,0,0,0,0,490,2,radost,1
51,0.8095238095238095,-52.46661,0.0,134.04584441720633,0,1.1945026413123345,1.194487116115951,1.2151796335216447,-0.020692408839918068,0,0,0,0,0,0,0,491,2,radost,1
52,0.8253968253968254,-33.6474,0.0,132.00248236812683,0,1.1940035964147442,1.1939992111171238,1.2151443492746499,-0.021145029016200377,0,0,0,0,0,0,0,492,2,radost,1
53,0.8412698412698412,-15.5326,0.0,130.09069055629237,0,1.1935361619654838,1.1935479295460916,1.21510910392242,-0.021561064658082114,0,0,0,0,0,0,0,493,2,radost,1
54,0.8571428571428571,0.2162323,3.5549657278018914,128.3147855239662,0,1.1931122149656161,1.1931451468896794,1.2150738978408382,-0.02192864065462557,0,0,0,0,0,0,0,494,2,radost,1
55,0.873015873015873,12.77283,16.78616878821617,126.67861861893078,0,1.1927436324162042,1.1928012341579934,1.2150387313932827,-0.022237386359108133,0,0,0,0,0,0,0,495,2,radost,1
56,0.8888888888888888,22.50266,29.495940040902838,125.1857687947918,0,1.1924422913183108,1.192524684422386,1.2150036049304167,-0.022478809050844904,0,0,0,0,0,0,0,496,2,radost,1
57,0.9047619047619047,31.41499,43.151473351119826,123.83972510276097,0,1.1922200686729978,1.1923218033137215,1.2149685187900119,-0.022646603436747945,0,0,0,0,0,0,0,497,2,radost,1
58,0.9206349206349206,42.24538,58.06708218542405,122.64406201673413,0,1.1920888122291446,1.1921964792430775,1.2149334732968102,-0.022736881430485852,0,0,0,0,0,0,0,498,2,radost,1
59,0.9365079365079365,56.55865,72.46972540567936,121.60261124540607,0,1.1920539806073076,1.1921500456904797,1.214898468762427,-0.02274830986365269,0,0,0,0,0,0,0,499,2,radost,1
60,0.9523809523809523,73.37964,82.60809722946065,120.71963421323224,0,1.1921066841573176,1.1921812433222607,1.2148635054852983,-0.02268214836835705,0,0,0,0,0,0,0,500,2,radost,1
61,0.9682539682539681,81.81319,84.18618697049202,120.0,1,1.1922360772742453,1.1922862843087432,1.2148285837506754,-0.022542185059532222,0,0,0,0,0,0,0,501,2,radost,1
62,0.9841269841269841,72.6477,74.56065915788079,119.36796753583289,0,1.1924313143531602,1.1924590156042771,1.214793703830661,-0.02233457325493619,0,0,0,0,0,0,0,502,2,radost,1
63,1.0,45.93565,54.46580701618351,118.74466495432473,0,1.192681549789132,1.1926911727638438,1.2147588659842898,-0.022067577658627036,0,0,0,0,0,0,0,503,2,radost,1
0,0.0,24.84824,13.457883745454987,70.81232003234636,0,1.086967610784537,1.0870517096764905,1.1328874232943278,-0.045832588720607324,0,0,0,0,0,0,0,2024,4,radost,3
1,0.015873015873015872,25.487,13.82598161677196,70.63056410270384,0,1.0868106570335403,1.0868856044013409,1.1329358924629702,-0.04604706559739642,0,0,0,0,0,0,0,2025,4,radost,3
2,0.031746031746031744,24.69794,12.983167772156815,70.44320516583504,0,1.0867620424415723,1.086821329561485,1.132984747780482,-0.04616009758601178,0,0,0,0,0,0,0,2026,4,radost,3
3,0.047619047619047616,22.33806,10.775460834809024,70.25083947144509,0,1.0868130947511485,1.0868543110603401,1.1330339890680514,-0.04617625860240677,1,0,0,0,0,0,0,2027,4,radost,3
4,0.06349206349206349,18.70235,7.435511962377579,70.05405405405405,0,1.0869551417047845,1.086978698717918,1.133083616120092,-0.04610139861916633,0,0,0,0,0,0,0,2028,4,radost,3
5,0.07936507936507936,14.40665,3.4944942361965996,69.85342604677815,0,1.0871795110449958,1.0871875055982236,1.1331336287042308,-0.04594250433809907,0,0,0,0,0,0,0,2029,4,radost,3
6,0.09523809523809523,10.22482,0.0,69.64952210001908,0,1.0874775305142983,1.0874727907907833,1.1331840265613513,-0.04570751640874911,0,0,0,0,0,0,0,2030,4,radost,3
7,0.1111111111111111,6.812393,0.0,69.44289790142531,0,1.0878405278552077,1.0878258755945256,1.1332348094056817,-0.045405113244606,0,0,0,0,0,0,0,2031,4,radost,3
8,0.12698412698412698,4.382202,0.0,69.23409779316313,0,1.0882598308102396,1.0882375815341396,1.1332859769249293,-0.045044473006880706,0,0,0,0,0,0,0,2032,4,radost,3
9,0.14285714285714285,2.670807,0.0,69.02365448228514,0,1.0887267671219094,1.0886984780060966,1.133337528780454,-0.04463502595865548,0,0,0,0,0,0,0,2033,4,radost,3
10,0.15873015873015872,1.019302,0.0,68.81208883980482,0,1.0892326645327328,1.0891991274778279,1.133389464607474,-0.04418620926591407,0,0,0,0,0,0,0,2034,4,radost,3
11,0.1746031746031746,-0.9009247,0.0,68.59990978397282,0,1.0897688507852257,1.0897303169095434,1.1334417840153022,-0.04370723557595765,0,0,0,0,0,0,0,2035,4,radost,3
12,0.19047619047619047,-3.330154,0.0,68.38761424319817,0,1.0903266536219034,1.0902832653100811,1.1334944865876015,-0.04320688546181302,0,0,0,0,0,0,0,2036,4,radost,3
13,0.20634920634920634,-6.448303,0.0,68.17568719406053,0,1.0908974007852816,1.0908497989832833,1.1335475718826624,-0.042693332176132456,0,0,0,0,0,0,0,2037,4,radost,3
14,0.2222222222222222,-10.23824,0.0,67.96460176991151,0,1.091472420017876,1.0914224880092234,1.1336010394336908,-0.04217400517025395,0,0,0,0,0,0,0,2038,4,radost,3
15,0.23809523809523808,-14.33943,0.0,67.75481943566076,0,1.0920430390622022,1.0919947397949048,1.1336548887491036,-0.04165549654379988,0,0,0,0,0,0,0,2039,4,radost,3
16,0.25396825396825395,-18.18895,0.0,67.54679022447843,0,1.092600897118482,1.092560848077751,1.133709119312828,-0.041143512041485475,0,0,0,0,0,0,0,2040,4,radost,3
17,0.2698412698412698,-21.32468,0.0,67.34095303231577,0,1.0931420059977388,1.093115998491919,1.133763730584601,-0.04064286548710465,0,0,0,0,0,0,0,2041,4,radost,3
18,0.2857142857142857,-23.66165,0.0,67.13773596634825,0,1.093665602215514,1.0936562345643952,1.1338187220002653,-0.04015751278773067,0,0,0,0,0,0,0,2042,4,radost,3
19,0.30158730158730157,-25.52371,0.0,66.93755674366993,0,1.094170997469248,1.094178390570869,1.1338740929720592,-0.03969061907813212,0,0,0,0,0,0,0,2043,4,radost,3
20,0.31746031746031744,-26.80804,0.0,66.74082313681869,0,1.0946575034563821,1.094679999783453,1.1339298428888969,-0.0392446504733335,0,0,0,0,0,0,0,2044,4,radost,3
21,0.3333333333333333,-27.88547,0.0,66.54793346297814,0,1.0951244318743572,1.0951591880406926,1.1339859711166382,-0.03882148049887524,0,0,0,0,0,0,0,2045,4,radost,3
22,0.3492063492063492,-29.77229,0.0,66.35927711398588,0,1.0955710944206138,1.0956145631104837,1.1340424769983486,-0.03842250072815494,0,0,0,0,0,0,0,2046,4,radost,3
23,0.36507936507936506,-33.4339,0.0,66.17523512457402,0,1.0959968027925933,1.0960451099590336,1.1340993598545426,-0.03804872551371167,0,0,0,0,0,0,0,2047,4,radost,3
24,0.38095238095238093,-38.74774,0.0,65.99618077657543,0,1.0964008686877362,1.0964501008487906,1.1341566189834165,-0.037700881889528116,0,0,0,0,0,0,0,2048,4,radost,3
25,0.3968253968253968,-44.12845,0.0,65.82248023714631,0,1.0967826038034834,1.0968290273069292,1.134214253661064,-0.03737947760276163,0,0,0,0,0,0,0,2049,4,radost,3
26,0.4126984126984127,-47.08746,0.0,65.65449322938039,0,1.0971413198372757,1.0971815586234261,1.1342722631416786,-0.03708484261587038,0,0,0,0,0,0,0,2050,4,radost,3
27,0.42857142857142855,-45.26819,0.0,65.49257373402266,0,1.0974763284865539,1.0975075288687246,1.1343306466577396,-0.03681714208913506,0,0,0,0,0,0,0,2051,4,radost,3
28,0.4444444444444444,-37.45215,0.0,65.33707072132933,0,1.0977869414487593,1.097806951686592,1.134389403420184,-0.03657636158797295,0,0,0,0,0,0,0,2052,4,radost,3
29,0.4603174603174603,-22.81686,0.0,65.18832891246684,0,1.098072470421332,1.0980800595307532,1.134448532618561,-0.036362267846460156,0,0,0,0,0,0,0,2053,4,radost,3
30,0.47619047619047616,-2.679398,0.0,65.04668957019497,0,1.0983322271017135,1.0983273617663258,1.1345080334211712,-0.03617435066603478,0,0,0,0,0,0,0,2054,4,radost,3
31,0.49206349206349204,19.72496,13.471413163141587,64.91249131894037,0,1.0985655231873446,1.0985497143089322,1.1345679049751924,-0.036011753276510766,0,0,0,0,0,0,0,2055,4,radost,3
32,0.5079365079365079,40.55212,34.237075805965226,64.78607099473614,0,1.098771806344337,1.0987483923412011,1.1346281464067887,-0.03587319961968547,0,0,0,0,0,0,0,2056,4,radost,3
33,0.5238095238095237,57.34271,52.17043921169893,64.66776452588279,0,1.098952938577763,1.098925157186105,1.1346887568212043,-0.035756927476096864,0,0,0,0,0,0,0,2057,4,radost,3
34,0.5396825396825397,69.64203,66.07579948661434,64.55790784557908,0,1.099112856162442,1.0990823086179622,1.1347497353028446,-0.03566063615410161,0,0,0,0,0,0,0,2058,4,radost,3
35,0.5555555555555556,78.30991,75.92016519840737,64.45683783817809,0,1.0992555628362362,1.0992227146752374,1.1348110809153449,-0.035581456677144185,0,0,0,0,0,0,0,2059,4,radost,3
36,0.5714285714285714,84.51633,82.59325160338216,64.36489332114904,0,1.099385062337009,1.0993498122790277,1.1348727927016267,-0.035515951165326985,0,0,0,0,0,0,0,2060,4,radost,3
37,0.5873015873015872,88.97815,87.47440656182566,64.28241606527196,0,1.0995053584026235,1.0994675735269852,1.1349348696839445,-0.03546014654153446,0,0,0,0,0,0,0,2061,4,radost,3
38,0.6031746031746031,93.61876,91.99420991402656,64.20975185606315,0,1.099620454770942,1.099580434325603,1.1349973108639255,-0.03540960589918568,0,0,0,0,0,0,0,2062,4,radost,3
39,0.6190476190476191,99.4272,97.29903283257984,64.1472515999304,0,1.099734355179828,1.0996931839891462,1.1350601152226025,-0.035359538903338705,0,0,0,0,0,0,0,2063,4,radost,3
40,0.6349206349206349,106.092,104.02172992544114,64.09527247909237,0,1.0998510633671437,1.0998108165464968,1.1351232817204449,-0.03530495048387475,0,0,0,0,0,0,0,2064,4,radost,3
41,0.6507936507936507,112.3868,112.08416676724309,64.05417915987273,0,1.0999745830707524,1.0999383467388277,1.135186809297389,-0.035240824837855886,0,0,0,0,0,0,0,2065,4,radost,3
42,0.6666666666666666,117.5159,120.46876172215035,64.02434505960291,0,1.1001089180285166,1.1000805960230038,1.1352506968728715,-0.035162339426156444,0,0,0,0,0,0,0,2066,4,radost,3
43,0.6825396825396826,121.2499,127.03539151783767,64.00615367804652,0,1.1002580719782995,1.1002419562413541,1.1353149433458674,-0.035065101303729744,0,0,0,0,0,0,0,2067,4,radost,3
44,0.6984126984126984,123.3947,128.65174639497673,64.0,1,1.1004260486579638,1.100426140852845,1.1353795475949366,-0.034945395888481015,0,0,0,0,0,0,0,2068,4,radost,3
45,0.7142857142857142,123.4308,121.93722443489223,64.00324135585171,0,1.1006168518053725,1.1006359355706212,1.1354445084782825,-0.03480043632378572,0,0,0,0,0,0,0,2069,4,radost,3
46,0.7301587301587301,109.8563,104.59693209430729,64.01288838783476,0,1.100834485158388,1.1008729617081485,1.1355098248338213,-0.0346286001324147,0,0,0,0,0,0,0,2070,4,radost,3
47,0.746031746031746,78.44319,76.75666942984128,64.02882832233712,0,1.101082952454874,1.1011374662839795,1.1355754954792672,-0.03442963911185554,0,0,0,0,0,0,0,2071,4,radost,3
48,0.7619047619047619,35.28663,41.41701132514205,64.05095191198693,0,1.1013659706657373,1.1014281527886138,1.135641519212231,-0.03420484856755021,0,0,0,0,0,0,0,2072,4,radost,3
49,0.7777777777777777,-7.66729,3.5676233795350276,64.07915321799956,0,1.1016806611219123,1.101742065376089,1.1357078948103367,-0.03395718312142058,0,0,0,0,0,0,0,2073,4,radost,3
50,0.7936507936507936,-42.34585,0.0,64.11332940091948,0,1.102017549514361,1.102074537145107,1.1357746210313502,-0.033691308430870134,0,0,0,0,0,0,0,2074,4,radost,3
51,0.8095238095238095,-67.20551,0.0,64.15338051914878,0,1.1023668747670887,1.1024192103148716,1.1358416966133213,-0.033413581013091,0,0,0,0,0,0,0,2075,4,radost,3
52,0.8253968253968254,-84.32405,0.0,64.19920933469419,0,1.1027188758041016,1.1027681327867858,1.1359091202747373,-0.03313195168351727,0,0,0,0,0,0,0,2076,4,radost,3
53,0.8412698412698412,-95.97623,0.0,64.25072112560157,0,1.1030637915494055,1.1031119321297045,1.1359768907146808,-0.03285579157073279,0,0,0,0,0,0,0,2077,4,radost,3
54,0.8571428571428571,-103.1334,0.0,64.30782350458134,0,1.1033918609270066,1.1034400646540594,1.1360450066129908,-0.032595643042505174,0,0,0,0,0,0,0,2078,4,radost,3
55,0.873015873015873,-105.4741,0.0,64.37042624336068,0,1.103693322860911,1.1037411340367942,1.1361134666304202,-0.03236290108100991,0,0,0,0,0,0,0,2079,4,radost,3
56,0.8888888888888888,-100.7048,0.0,64.43844110232801,0,1.1039584162751237,1.1040032709115617,1.1361822694087833,-0.032169433692780185,0,0,0,0,0,0,0,2080,4,radost,3
57,0.9047619047619047,-88.9875,0.0,64.51178166506287,0,1.1041773800936519,1.104214561897973,1.1362514135710873,-0.032027152879588794,0,0,0,0,0,0,0,2081,4,radost,3
58,0.9206349206349206,-72.03265,0.0,64.59036317737103,0,1.1043404532405006,1.1043635136888639,1.1363208977216412,-0.03194755055129147,0,0,0,0,0,0,0,2082,4,radost,3
59,0.9365079365079365,-53.82065,0.0,64.67410239046842,0,1.1044378746396766,1.10443953510019,1.1363907204461348,-0.03194121647601039,0,1,0,0,0,0,0,2083,4,radost,3
60,0.9523809523809523,-38.29431,0.0,64.76291740798082,0,1.1044598832151848,1.1044334175700081,1.1364608803116814,-0.03201735778119725,0,0,0,0,0,0,0,2084,4,radost,3
61,0.9682539682539681,-27.93203,0.0,64.8567275364475,0,1.1043967178910326,1.1043377927284441,1.1365313758668203,-0.032183341383664354,0,0,0,0,0,0,0,2085,4,radost,3
62,0.9841269841269841,-23.67336,0.0,64.95545313903744,0,1.1042386175912247,1.1041475446824878,1.1366022056414689,-0.03244428170474514,0,0,0,0,0,0,0,2086,4,radost,3
63,1.0,-24.71802,0.0,65.05901549220633,0,1.1039758212397672,1.1038601549221887,1.136673368146825,-0.03280269576399985,0,0,0,0,0,0,0,2087,4,radost,3
0,0.0,-10.24869,0.0,69.9112385729936,0,1.0486930608689986,1.0488437342146444,1.0803120272449014,-0.032854614768658946,0,0,0,0,0,0,0,3212,6,radost,5
1,0.015873015873015872,-21.3506,0.0,69.45152996274456,0,1.0486926005720856,1.0488166033703783,1.0802275732652455,-0.03280451978804877,0,0,0,0,0,0,0,3213,6,radost,5
2,0.031746031746031744,-32.55919,0.0,68.9892145745185,0,1.048848127549962,1.0489330091663032,1.0801433137152807,-0.032611099253925045,0,0,0,0,0,0,0,3214,6,radost,5
3,0.047619047619047616,-41.5425,0.0,68.5253098394772,0,1.0491450339801236,1.0491879513074465,1.0800592485831328,-0.03227935339024483,0,0,0,0,0,0,0,3215,6,radost,5
4,0.06349206349206349,-45.86528,0.0,68.06078601106427,0,1.0495687120400667,1.0495732635251789,1.0799753778388466,-0.03181744837572739,0,0,0,0,0,0,0,3216,6,radost,5
5,0.07936507936507936,-44.00891,0.0,67.59656658040547,0,1.0501045539072875,1.0500780121103417,1.0798917014345806,-0.031236317810917392,0,0,0,0,0,0,0,3217,6,radost,5
6,0.09523809523809523,-36.30098,0.0,67.13352895939694,0,1.0507379517592819,1.0506889764225686,1.0798082193048764,-0.030549182209128833,0,0,0,0,0,0,0,3218,6,radost,5
7,0.1111111111111111,-25.42542,0.0,66.6725053994426,0,1.0514542977735448,1.051391183957506,1.0797249313669959,-0.02977101392955732,0,0,0,0,0,0,0,3219,6,radost,5
8,0.12698412698412698,-15.77428,0.0,66.21428411542952,0,1.052238984127574,1.0521684718953501,1.0796418375213204,-0.02891797562913781,0,0,0,0,0,0,0,3220,6,radost,5
9,0.14285714285714285,-11.49132,0.0,65.75961058635387,0,1.0530774029988645,1.0530040481665222,1.0795589376518022,-0.0280068591973167,0,0,0,0,0,0,0,3221,6,radost,5
10,0.15873015873015872,-14.95601,0.0,65.3091890059733,0,1.0539549465649127,1.053881027538244,1.0794762316264597,-0.027054549669966267,0,0,0,0,0,0,0,3222,6,radost,5
11,0.1746031746031746,-25.64259,0.0,64.86368385891205,0,1.0548570070032146,1.0547829216229296,1.079393719297905,-0.02607753522151869,0,0,0,0,0,0,0,3223,6,radost,5
12,0.19047619047619047,-40.39543,0.0,64.42372159973975,0,1.055768976491266,1.0556940656695206,1.0793114005038966,-0.025091480374176252,0,0,0,0,0,0,0,3224,6,radost,5
13,0.20634920634920634,-55.00638,0.0,63.98989241464535,0,1.0566762472065634,1.0565999692553765,1.079229275067906,-0.02411087530658628,0,0,0,0,0,0,0,3225,6,radost,5
14,0.2222222222222222,-66.10579,0.0,63.56275204740499,0,1.0575642113266022,1.057487582389978,1.0791473427996912,-0.023148769750704384,0,0,0,0,0,0,0,3226,6,radost,5
15,0.23809523809523808,-72.44798,0.0,63.14282367336983,0,1.058418261028879,1.0583454730008865,1.0790656034958659,-0.02221659550640195,0,0,0,0,0,0,0,3227,6,radost,5
16,0.25396825396825395,-74.58607,0.0,62.73059980715859,0,1.0592238630393136,1.0591639162681186,1.0789840569404603,-0.021324077107644952,0,0,0,0,0,0,0,3228,6,radost,5
17,0.2698412698412698,-73.34467,0.0,62.32654423161608,0,1.0599716507937191,1.0599349007547856,1.078902702905462,-0.020479225692395336,0,0,0,0,0,0,0,3229,6,radost,5
18,0.2857142857142857,-67.94917,0.0,61.931093937380695,0,1.0606606927970554,1.0606520606083047,1.078821541151337,-0.01968840680191361,0,0,0,0,0,0,0,3230,6,radost,5
19,0.30158730158730157,-56.43414,0.0,61.544661064086505,0,1.0612908354174537,1.0613105470048991,1.078740571427523,-0.018956468936749217,0,0,0,0,0,0,0,3231,6,radost,5
20,0.31746031746031744,-36.95256,0.0,61.167634835804854,0,1.0618619250230434,1.0619068551043473,1.0786597934728912,-0.018286916602446503,0,0,0,0,0,0,0,3232,6,radost,5
21,0.3333333333333333,-9.615631,0.0,60.800383484805366,0,1.0623738079819547,1.0624386246956747,1.0785792070161748,-0.017682109664279834,0,0,0,0,0,0,0,3233,6,radost,5
22,0.3492063492063492,22.52928,0.8819740310162824,60.44325615909048,0,1.0628263306623182,1.062904433192942,1.0784988117763616,-0.017143470351851486,0,0,0,0,0,0,0,3234,6,radost,5
23,0.36507936507936506,54.06708,29.37916431548174,60.09658481043236,0,1.0632193394322635,1.0633035986194281,1.0784186074630482,-0.016671680275259986,0,0,0,0,0,0,0,3235,6,radost,5
24,0.38095238095238093,79.12723,52.316462697342786,59.760686060824376,0,1.0635526806599216,1.063636007821135,1.0783385937767582,-0.01626685221190771,0,0,0,0,0,0,0,3236,6,radost,5
25,0.3968253968253968,93.6002,66.98078827104558,59.4358630463555,0,1.0638262007134223,1.0639019816403443,1.0782587704092197,-0.015928664933218786,0,0,0,0,0,0,0,3237,6,radost,5
26,0.4126984126984127,96.82585,72.93259465911511,59.12240723853416,0,1.0640397459608952,1.064102184508013,1.0781791370436051,-0.015656453612477167,0,0,0,0,0,0,0,3238,6,radost,5
27,0.42857142857142855,92.49393,71.95563703056298,58.82060024403702,0,1.0641931627704713,1.0642375812729878,1.0780996933547322,-0.015449252995809772,0,0,0,0,0,0,0,3239,6,radost,5
28,0.4444444444444444,85.60962,67.13005778320526,58.53071558474475,0,1.0642862975102805,1.064309439474681,1.0780204390092267,-0.01530579512966979,0,0,0,0,0,0,0,3240,6,radost,5
29,0.4603174603174603,80.15984,61.52405350873803,58.253020460764745,0,1.064318996548453,1.0643193710592531,1.0779413736656474,-0.01522446764477273,0,0,0,0,0,0,0,3241,6,radost,5
30,0.47619047619047616,77.62198,57.160714320007685,57.987777499935554,0,1.0642911062531188,1.0642694040662415,1.0778624969745738,-0.015203242069552987,0,0,0,0,0,0,0,3242,6,radost,5
31,0.49206349206349204,77.30792,54.70510425682579,57.73524649807485,0,1.0642024729924084,1.0641620723346517,1.0777838085786595,-0.015239584124119306,0,0,0,0,0,0,0,3243,6,radost,5
32,0.5079365079365079,77.66962,53.884376544909685,57.49568615497947,0,1.064052965339824,1.064000509968853,1.0777053081126489,-0.015330359254373094,0,0,0,0,0,0,0,3244,6,radost,5
33,0.5238095238095237,77.58307,54.26427283397058,57.269355811925394,0,1.063844990054703,1.063788537229954,1.0776269952033612,-0.015471746740613088,0,0,0,0,0,0,0,3245,6,radost,5
34,0.5396825396825397,77.07457,55.86441166049712,57.05651719716125,0,1.0635858054282286,1.0635307256130908,1.0775488694696447,-0.01565917462019489,0,0,0,0,0,0,0,3246,6,radost,5
35,0.5555555555555556,77.27771,59.25135875113873,56.857436186649764,0,1.063283216427498,1.0632324319368818,1.077470930522299,-0.01588728559799469,0,0,0,0,0,0,0,3247,6,radost,5
36,0.5714285714285714,80.87946,65.09694086775066,56.67238458810578,0,1.0629450280196084,1.0628997940070617,1.0773931779639734,-0.01614994138266907,0,0,0,0,0,0,0,3248,6,radost,5
37,0.5873015873015872,89.0856,73.53058930249875,56.50164195721752,0,1.0625790451716564,1.062539683487364,1.0773156113890403,-0.01644026981564145,0,0,0,0,0,0,0,3249,6,radost,5
38,0.6031746031746031,100.7453,83.74699906547447,56.34549745583798,0,1.0621930728507387,1.0621596147258676,1.0772382303834487,-0.016750756044605485,0,0,0,0,0,0,0,3250,6,radost,5
39,0.6190476190476191,112.8474,94.16615371455315,56.20425176291115,0,1.0617949160239528,1.0617676112409837,1.0771610345245632,-0.017073376037370594,0,0,0,0,0,0,0,3251,6,radost,5
40,0.6349206349206349,122.2316,103.08462916771845,56.07821904997305,0,1.0613923796583955,1.0613720342520558,1.0770840233809895,-0.017399768051085562,0,0,0,0,0,0,0,3252,6,radost,5
41,0.6507936507936507,127.2633,109.44013022161013,55.967729034260465,0,1.0609932687211634,1.060981379988395,1.077007196512395,-0.01772143532301692,0,0,0,0,0,0,0,3253,6,radost,5
42,0.6666666666666666,128.3776,113.23707802028385,55.87312912379549,0,1.0606053881793538,1.060604054495866,1.0769305534693259,-0.01802997126377735,0,0,0,0,0,0,0,3254,6,radost,5
43,0.6825396825396826,127.5065,115.38613341623834,55.79478667031646,0,1.0602365430000635,1.0602481362473324,1.0768540937930275,-0.01831729684669369,0,0,0,0,0,0,0,3255,6,radost,5
44,0.6984126984126984,126.7514,117.06093813072648,55.73309134762865,0,1.0598945381503895,1.0599211379963949,1.0767778170152722,-0.018575898753895256,0,0,0,0,0,0,0,3256,6,radost,5
45,0.7142857142857142,128.6837,118.9632360989183,55.68845767488394,0,1.0595871785974285,1.059629779908726,1.076701722658199,-0.018799056244811554,0,0,0,0,0,0,0,3257,6,radost,5
46,0.7301587301587301,132.9263,120.94103070601349,55.661327706510015,0,1.0593222693082778,1.0593797859557026,1.0766258102341701,-0.018981044762392724,0,0,0,0,0,0,0,3258,6,radost,5
47,0.746031746031746,136.3851,122.16838657271023,55.65217391304348,1,1.059107615250034,1.0591757147522858,1.0765500792456475,-0.019117305095101997,0,0,0,0,0,0,0,3259,6,radost,5
48,0.7619047619047619,135.2737,121.692308028545,55.68864554045199,0,1.0589510047760318,1.0590208343874763,1.0764745291850928,-0.019204568546355754,0,0,0,0,0,0,0,3260,6,radost,5
49,0.7777777777777777,127.9163,118.86421983344081,55.79598407184614,0,1.0588565975375568,1.0589170483295685,1.0763991595348943,-0.019240931029191215,0,0,0,0,0,0,0,3261,6,radost,5
50,0.7936507936507936,116.0495,113.26398856207432,55.97144314125447,0,1.0588204040931315,1.0588648763133934,1.0763239697673215,-0.019225872178972977,0,0,0,0,0,0,0,3262,6,radost,5
51,0.8095238095238095,103.6805,104.1902017701412,56.212709658145194,0,1.058837324117808,1.0588634905091674,1.0762489593445081,-0.019160219184523933,0,0,0,0,0,0,0,3263,6,radost,5
52,0.8253968253968254,94.59009,90.27801188363135,56.517839902164816,0,1.058902257286636,1.0589108036327066,1.076174127718466,-0.019046058677919482,0,0,0,0,0,0,0,3264,6,radost,5
53,0.8412698412698412,78.9469,69.83565260930153,56.88520342057528,0,1.059010103274668,1.0590036024133833,1.076099474331127,-0.018886603266567773,0,0,0,0,0,0,0,3265,6,radost,5
54,0.8571428571428571,51.32964,41.92252252851873,57.3134328358209,0,1.0591557617569545,1.0591377173302843,1.0760249986144126,-0.01868602179711758,0,0,0,0,0,0,0,3266,6,radost,5
55,0.873015873015873,12.61725,7.4921550780628685,57.80137797867205,0,1.0593341324085466,1.0593082179406168,1.0759506999903308,-0.018449244027143895,0,0,0,0,0,0,0,3267,6,radost,5
56,0.8888888888888888,-30.26866,0.0,58.348062994218886,0,1.0595401149044958,1.0595096224785867,1.0758765778710941,-0.01818175102638335,0,0,0,0,0,0,0,3268,6,radost,5
57,0.9047619047619047,-69.80262,0.0,58.95264524214484,0,1.0597686089198528,1.059736110599899,1.0758026316592617,-0.017889362432371055,0,0,0,0,0,0,0,3269,6,radost,5
58,0.9206349206349206,-100.8981,0.0,59.61437494342355,0,1.0600145141296693,1.0599817290218025,1.0757288607478976,-0.017578030810549428,0,0,0,0,0,0,0,3270,6,radost,5
59,0.9365079365079365,-120.9824,0.0,60.33255462415831,0,1.0602727302089963,1.06024058117378,1.075655264520743,-0.01725365200374523,0,0,0,0,0,0,0,3271,6,radost,5
60,0.9523809523809523,-129.8565,0.0,61.10649748312417,0,1.0605381568328844,1.060506993652492,1.0755818423523986,-0.016921898677405706,0,0,0,0,0,0,0,3272,6,radost,5
61,0.9682539682539681,-129.6158,0.0,61.935483870967744,0,1.0608056936763854,1.0607756541204039,1.075508593608519,-0.016588082421157096,0,0,0,0,0,0,0,3273,6,radost,5
62,0.9841269841269841,-123.8402,0.0,62.81871512376592,0,1.0610702404145502,1.0610417171946138,1.0754355176460058,-0.016257047860168756,0,0,0,0,0,0,0,3274,6,radost,5
63,1.0,-114.4512,0.0,63.75526404956677,0,1.0613266967224302,1.0613008767726198,1.0753626138132062,-0.015933100329578564,0,0,0,0,0,0,0,3275,6,radost,5
