,index,PPG_Raw,PPG_Clean,PPG_Rate,PPG_Peaks,EDA_Raw,EDA_Clean,EDA_Tonic,EDA_Phasic,SCR_Onsets,SCR_Peaks,SCR_Height,SCR_Amplitude,SCR_RiseTime,SCR_Recovery,SCR_RecoveryTime,Index,Label,Condition,id
0,0.0,63.40576,15.979367214838598,62.52326595542621,0,0.10664228657148828,0.10665578240750222,0.10709522083642757,-0.00043947042598990635,0,0,0,0,0,0,0,440,2,nuda,1
1,0.015873015873015872,58.99667,9.635588050778365,62.4707676664972,0,0.10689916850168975,0.10691067797222031,0.10709471668121705,-0.00018407032128929724,0,0,0,0,0,0,0,441,2,nuda,1
2,0.031746031746031744,54.7981,3.396790714524543,62.41612820619342,0,0.10715145460660842,0.107159850523432,0.10709421033280268,6.560896655350166e-05,0,0,0,0,0,0,0,442,2,nuda,1
3,0.047619047619047616,51.0697,0.0,62.35949810734651,0,0.10739812425088688,0.10740270518753581,0.10709370175327212,0.0003089726018639902,0,0,0,0,0,0,0,443,2,nuda,1
4,0.06349206349206349,47.78708,0.0,62.30102727106298,0,0.1076381567991676,0.10763868544712886,0.10709319090474928,0.0005454641051299689,0,0,0,0,0,0,0,444,2,nuda,1
5,0.07936507936507936,44.70685,0.0,62.240864878554525,0,0.10787053161609311,0.10786723113135231,0.10709267774953553,0.0007745233432059221,0,0,0,0,0,0,0,445,2,nuda,1
6,0.09523809523809523,41.49533,0.0,62.179159310440504,0,0.10809422806630596,0.10808774091115018,0.10709216225024677,0.0009955490244346092,0,0,0,0,0,0,0,446,2,nuda,1
7,0.1111111111111111,37.91119,0.0,62.1160580734656,0,0.10830822551444869,0.10829953902368616,0.10709164436994627,0.0012078654229311261,0,0,0,0,0,0,0,447,2,nuda,1
8,0.12698412698412698,33.93097,0.0,62.05170773456054,0,0.10851150332516378,0.1085018459059591,0.1070911240722728,0.0014106930120702324,0,0,0,0,0,0,0,448,2,nuda,1
9,0.14285714285714285,29.75638,0.0,61.98625386216029,0,0.1087030408630938,0.10869375257882184,0.10709060132156367,0.0016031228483821616,0,0,0,0,0,0,0,449,2,nuda,1
10,0.15873015873015872,25.73911,0.0,61.919840974682096,0,0.10888181748570543,0.10887419895496524,0.1070900760829723,0.001784094879419083,0,0,0,0,0,0,0,450,2,nuda,1
11,0.1746031746031746,22.21353,0.0,61.85261249605523,0,0.10904673084198674,0.10904195669485527,0.10708954832257955,0.0019523807995808517,0,0,0,0,0,0,0,451,2,nuda,1
12,0.19047619047619047,19.35571,0.0,61.78471071818539,0,0.10919639422074562,0.10919561773680923,0.10708901800749848,0.0021065725800864937,0,0,0,0,0,0,0,452,2,nuda,1
13,0.20634920634920634,17.08029,0.0,61.71627677022923,0,0.10932935909012259,0.1093335901083337,0.10708848510597165,0.0022450782802147964,0,0,0,0,0,0,0,453,2,nuda,1
14,0.2222222222222222,15.11157,0.0,61.64745059454833,0,0.10944417691825811,0.10945410301148274,0.10708794958746015,0.0023661271325735927,0,0,0,0,0,0,0,454,2,nuda,1
15,0.23809523809523808,13.06873,0.0,61.57837092920713,0,0.10953939917329272,0.10955522339454753,0.10708741142272354,0.0024677861147093,0,0,0,0,0,0,0,455,2,nuda,1
16,0.25396825396825395,10.63651,0.0,61.509175296876236,0,0.1096135773233669,0.10963488621212593,0.10708687058388953,0.002547990209106893,0,0,0,0,0,0,0,456,2,nuda,1
17,0.2698412698412698,7.676086,0.0,61.44,0,0.10966526283662112,0.10969094028404894,0.10708632704451242,0.002604588262057887,0,0,0,0,0,0,0,457,2,nuda,1
18,0.2857142857142857,4.259186,0.0,61.37098012208682,0,0.1096930071811959,0.10972121105871897,0.10708578077961904,0.002635405746952732,0,0,0,0,0,0,0,458,2,nuda,1
19,0.30158730158730157,0.6056519,0.0,61.302249534980476,0,0.10969536182523172,0.10972358066351465,0.10708523176574103,0.00263832481465325,0,1,0,0,0,0,0,459,2,nuda,1
20,0.31746031746031744,-2.969574,0.0,61.23394091197262,0,0.10967087823686912,0.10969608441364129,0.1070846799809321,0.0026113808023259517,0,0,0,0,0,0,0,460,2,nuda,1
21,0.3333333333333333,-6.146729,0.0,61.16618574661865,0,0.10961810788424856,0.10963702151914974,0.10708412540476915,0.0025528729404597026,0,0,0,0,0,0,0,461,2,nuda,1
22,0.3492063492063492,-8.643982,0.0,61.09911437712324,0,0.10953560223551051,0.10954507618458516,0.1070835680183361,0.002461485452530663,0,0,0,0,0,0,0,462,2,nuda,1
23,0.36507936507936506,-10.29742,0.0,61.032856016165596,0,0.10942191275879551,0.10941944377806537,0.10708300780418958,0.0023364137241149324,0,0,0,0,0,0,0,463,2,nuda,1
24,0.38095238095238093,-11.04398,0.0,60.96753878604074,0,0.10927559092224405,0.10925995542214371,0.10708244474630566,0.002177488893804748,0,0,0,0,0,0,0,464,2,nuda,1
25,0.3968253968253968,-10.99277,0.0,60.903289758998824,0,0.10909518819399662,0.10906719340119243,0.10708187883000712,0.0019852932606644856,0,0,0,0,0,0,0,465,2,nuda,1
26,0.4126984126984127,-10.44598,0.0,60.840235002672024,0,0.10887925604219373,0.1088425893474696,0.10708131004187145,0.0017612584703897078,0,0,0,0,0,0,0,466,2,nuda,1
27,0.42857142857142855,-9.798279,0.0,60.77849963048655,0,0.10862762928313889,0.10858849737308018,0.10708073836961957,0.001507738647379445,0,0,0,0,0,0,0,467,2,nuda,1
28,0.4444444444444444,-9.362,0.0,60.718207856965954,0,0.10834564717914336,0.10830823519074337,0.1070801638019865,0.0012280515156328266,0,0,0,0,0,0,0,468,2,nuda,1
29,0.4603174603174603,-9.035828,0.0,60.659483057841676,0,0.10804012447568072,0.10800608774117575,0.10707958632857514,0.0009264820262785306,0,0,0,0,0,0,0,469,2,nuda,1
30,0.47619047619047616,-8.223175,0.0,60.60244783489703,0,0.1077178759355464,0.10768726974929325,0.10707900593969512,0.0006082449139379314,0,0,0,0,0,0,0,470,2,nuda,1
31,0.49206349206349204,-5.905029,0.0,60.54722408548175,0,0.10738571632153592,0.10735784574691769,0.10707842262618913,0.00027940471960514107,0,0,0,0,0,0,0,471,2,nuda,1
32,0.5079365079365079,-1.072388,0.0,60.49393307664618,0,0.10705046039644477,0.10702460823005128,0.10707783637925002,-5.324605189544036e-05,0,0,0,0,0,0,0,472,2,nuda,1
33,0.5238095238095237,6.843781,0.0,60.44269552385637,0,0.1067189229230684,0.10669491663933436,0.10707724719023175,-0.0003823479512623782,0,0,0,0,0,0,0,473,2,nuda,1
34,0.5396825396825397,17.68445,0.0,60.39363167426472,0,0.10639791866420235,0.10637650171439682,0.10707665505045844,-0.0007001702301748907,0,0,0,0,0,1,0,474,2,nuda,1
35,0.5555555555555556,30.75836,0.0,60.34686139452438,0,0.10609426238264208,0.10607724147569302,0.10707605995103553,-0.0009988348592689176,0,0,0,0,0,0,0,475,2,nuda,1
36,0.5714285714285714,45.33752,0.0,60.30250426315041,0,0.10581476884118309,0.10580491664086128,0.10707546188266748,-0.001270561111595537,0,0,0,0,0,0,0,476,2,nuda,1
37,0.5873015873015872,61.14688,0.0,60.26067966744569,0,0.10556625280262086,0.1055669546753769,0.10707486083548663,-0.0015079215117967284,0,0,0,0,0,0,0,477,2,nuda,1
38,0.6031746031746031,78.60254,0.0,60.22150690502579,0,0.1053555290297509,0.10537017285627955,0.1070742567988976,-0.0017040987722222996,0,0,0,0,0,0,0,478,2,nuda,1
39,0.6190476190476191,98.58339,21.675506124881466,60.1851052899935,0,0.10518941228536864,0.10522053159072312,0.10707364976144142,-0.0018531324742443367,0,0,0,0,0,0,0,479,2,nuda,1
40,0.6349206349206349,121.8302,46.782819666364,60.151594263831576,0,0.10507471733226964,0.10512290963285317,0.10707303971068337,-0.0019501438512674104,0,0,0,0,0,0,0,480,2,nuda,1
41,0.6507936507936507,148.417,75.00321846192755,60.12109351110024,0,0.10501825893324936,0.10508091261629772,0.10707242663312784,-0.0019915272561527903,1,0,0,0,0,0,0,481,2,nuda,1
42,0.6666666666666666,177.5583,105.81831689651915,60.09372308004573,0,0.10502685185110325,0.10509672531298708,0.10707181051416305,-0.001975097902343242,0,0,0,0,0,0,0,482,2,nuda,1
43,0.6825396825396826,207.7598,138.0544944601526,60.06960350824596,0,0.10510555682013221,0.10517101615381719,0.10707119133803768,-0.0019001873431763981,0,0,0,0,0,0,0,483,2,nuda,1
44,0.6984126984126984,237.1944,169.97330377771942,60.048855953440935,0,0.10525014705600161,0.10530289983611274,0.10707056908787055,-0.0017676808644312416,0,0,0,0,0,0,0,484,2,nuda,1
45,0.7142857142857142,263.9689,199.47831627766095,60.03160232971764,0,0.10545333335813406,0.10548996049593734,0.10706994374569392,-0.0015799943120612934,0,0,0,0,0,0,0,485,2,nuda,1
46,0.7301587301587301,286.2044,224.39112790051584,60.01796544924296,0,0.10570782463350921,0.1057283342972283,0.10706931529252972,-0.0013409915031359501,0,0,0,0,0,0,0,486,2,nuda,1
47,0.746031746031746,302.0823,242.76461922443062,60.00806916976255,0,0.10600632978910673,0.1060128468166673,0.10706868370849731,-0.0010558468410778055,0,0,0,0,0,0,0,487,2,nuda,1
48,0.7619047619047619,310.0283,253.20157189559512,60.00203854811027,0,0.10634155773190633,0.10633719766431803,0.10706804897295087,-0.0007308606951620908,0,0,0,0,0,0,0,488,2,nuda,1
49,0.7777777777777777,309.0961,255.1206401666215,60.0,1,0.10670621736888762,0.106694182610228,0.10706741106464304,-0.0003732372740787956,0,0,0,0,0,0,0,489,2,nuda,1
50,0.7936507936507936,299.3693,248.88403801254736,60.08618318511048,0,0.10709301760703026,0.10707594215412751,0.10706676996191163,9.163943579741489e-06,0,0,0,0,0,0,0,490,2,nuda,1
51,0.8095238095238095,282.1059,235.71188555085902,60.33881659710287,0,0.10749466735331395,0.10747422491756414,0.1070661256428849,0.00040809160124805326,0,0,0,0,0,0,0,491,2,nuda,1
52,0.8253968253968254,259.4733,217.37585558040965,60.75085746068041,0,0.10790387551471836,0.10788065432197065,0.1070654780857012,0.0008151691422357012,0,0,0,0,0,0,0,492,2,nuda,1
53,0.8412698412698412,233.8412,195.76470756037241,61.31736526946108,0,0.10831335099822312,0.10828698758909504,0.10706482726873823,0.0012221538099281809,0,0,0,0,0,0,0,493,2,nuda,1
54,0.8571428571428571,207.0829,172.4878565608378,62.035149717603254,0,0.10871580271080793,0.10868535702730164,0.10706417317084697,0.0016211779338540628,0,0,0,0,0,0,0,494,2,nuda,1
55,0.873015873015873,180.1741,148.6763500242576,62.90248272331712,0,0.10910393955945243,0.10906848475572711,0.1070635157715857,0.002004963653606917,0,0,0,0,0,0,0,495,2,nuda,1
56,0.8888888888888888,153.3414,125.0445549018193,63.918853018628695,0,0.10947047045113628,0.10942986342521147,0.10706285505144955,0.0023670036395467995,0,0,0,0,0,0,0,496,2,nuda,1
57,0.9047619047619047,126.5903,102.13884988294316,65.08474576271186,0,0.10980810429283915,0.10976389712021688,0.10706219099209154,0.002701701994498116,0,0,0,0,0,0,0,497,2,nuda,1
58,0.9206349206349206,100.3392,80.60106820706274,66.40143199702793,0,0.11010954999154071,0.11006599849137223,0.10706152357653105,0.0030044713860855774,0,0,0,0,0,0,0,498,2,nuda,1
59,0.9365079365079365,75.67441,61.27565996277012,67.87075393537697,0,0.11036842301589478,0.11033264028432149,0.10706085278934689,0.0032717845753895826,0,0,0,0,0,0,0,499,2,nuda,1
60,0.9523809523809523,54.14191,45.09296289161549,69.49489236859779,0,0.1105842927117712,0.11056136175560012,0.10706017861685202,0.00350118083264784,0,0,0,0,0,0,0,500,2,nuda,1
61,0.9682539682539681,37.06638,32.80473346943259,71.27610208816705,0,0.1107591306113964,0.11075073287218043,0.10705950104724805,0.0036912301366462774,0,0,0,0,0,0,0,501,2,nuda,1
62,0.9841269841269841,24.95418,24.742148263184585,73.2164004021897,0,0.11089491491174847,0.11090028146109895,0.10705882007075804,0.0038414603242135823,0,0,0,0,0,0,0,502,2,nuda,1
63,1.0,17.28055,20.74963715886881,75.31719276739197,0,0.11099362380980554,0.11101039035116077,0.10705813567973664,0.003952254231815414,0,0,0,0,0,0,0,503,2,nuda,1
0,0.0,25.94626,3.9348336014888576,52.65073995278277,0,0.10791298859424409,0.10788211890580837,0.10814048019254642,-0.0002612824728383346,0,0,0,0,0,0,0,1540,4,nuda,3
1,0.015873015873015872,36.29002,12.361949868924313,52.640845234855696,0,0.10827920016684593,0.1082499616225221,0.10814465654245008,0.00010235298014539215,0,0,0,0,0,0,0,1541,4,nuda,3
2,0.031746031746031744,44.69229,18.392509117835594,52.632052172068974,0,0.108634997972469,0.10860857442735011,0.10814883161643296,0.0004567596531942174,0,0,0,0,0,0,0,1542,4,nuda,3
3,0.047619047619047616,52.29744,23.37910279776255,52.62437715124671,0,0.10897428411007651,0.10895372632336543,0.10815300531597677,0.0007977066476474808,0,0,0,0,0,0,0,1543,4,nuda,3
4,0.06349206349206349,59.71991,28.185633459729974,52.617836680160245,0,0.10929303054162656,0.1092819450403372,0.10815717754282628,0.001121721791279329,0,0,0,0,0,0,0,1544,4,nuda,3
5,0.07936507936507936,67.08327,33.08100233390008,52.6124473947071,0,0.10959069585416045,0.10959048943308818,0.1081613481991863,0.0014260640364592292,0,0,0,0,0,0,0,1545,4,nuda,3
6,0.09523809523809523,74.15694,37.821622212056795,52.60822606623571,0,0.10986707362825084,0.10987729458607418,0.108165517187909,0.001708668564544177,0,0,0,0,0,0,0,1546,4,nuda,3
7,0.1111111111111111,80.46162,41.84699392938409,52.60518960902032,0,0.11012195744447044,0.11014089643671805,0.10816968441267004,0.0019680714090364376,0,0,0,0,0,0,0,1547,4,nuda,3
8,0.12698412698412698,85.44786,44.51338802119408,52.60335508789158,0,0.11035514088339182,0.11038034331148416,0.10817384977813221,0.0022033209914944824,0,0,0,0,0,0,0,1548,4,nuda,3
9,0.14285714285714285,88.63548,45.31008667240018,52.602739726027394,1,0.11056641752558771,0.11059510179645922,0.1081780131900958,0.0024138839919634236,0,0,0,0,0,0,0,1549,4,nuda,3
10,0.15873015873015872,89.77969,44.02197506514269,52.61371882337385,0,0.11075558095163082,0.11078496384200687,0.10818217455563507,0.002599552453493214,0,0,0,0,0,0,0,1550,4,nuda,3
11,0.1746031746031746,88.96054,40.81417048085575,52.64636861111135,0,0.11092242474209371,0.11094996100244423,0.10818633378322044,0.0027603580216929674,0,0,0,0,0,0,0,1551,4,nuda,3
12,0.19047619047619047,86.66432,36.22272832967891,52.70029634322598,0,0.11106674247754914,0.11109029035890149,0.10819049078282633,0.0028964978674827554,0,0,0,0,0,0,0,1552,4,nuda,3
13,0.20634920634920634,83.68427,31.048307630427853,52.77515797036119,0,0.11118832773856975,0.11120625511380967,0.10819464546602456,0.0030082752814879505,0,0,0,0,0,0,0,1553,4,nuda,3
14,0.2222222222222222,80.94864,26.170802206032615,52.87065510940655,0,0.11128697410572823,0.11129822123119762,0.10819879774606354,0.0030960563142571145,0,0,0,0,0,0,0,1554,4,nuda,3
15,0.23809523809523808,79.26028,22.32770484562275,52.98653232047566,0,0.1113624751595972,0.1113665899706468,0.10820294753793332,0.003160242310151739,0,0,0,0,0,0,0,1555,4,nuda,3
16,0.25396825396825395,79.08281,19.916637198227804,53.1225746578057,0,0.11141462448074935,0.1114117848461516,0.10820709475841657,0.0032012568661555028,0,0,0,0,0,0,0,1556,4,nuda,3
17,0.2698412698412698,80.35632,18.88264006049826,53.27860546498333,0,0.11144321564975736,0.11143425052808405,0.1082112393261261,0.0032195447338015442,0,1,0,0,0,0,0,1557,4,nuda,3
18,0.2857142857142857,82.5482,18.729635968102603,53.454484388226646,0,0.11144804224719393,0.1114344605581224,0.1082153811615288,0.0032155795340772743,0,0,0,0,0,0,0,1558,4,nuda,3
19,0.30158730158730157,84.7854,18.658509563916127,53.65010558430792,0,0.11142890121096262,0.11141293048889801,0.10821952018695645,0.0031898768970602563,0,0,0,0,0,0,0,1559,4,nuda,3
20,0.31746031746031744,86.11304,17.794367579493237,53.86539610215136,0,0.11138607587900398,0.11137023318022511,0.10822365632660347,0.0031430097581502613,0,0,0,0,0,0,0,1560,4,nuda,3
21,0.3333333333333333,85.82344,15.437046975650718,54.10031441923774,0,0.11132084076736203,0.11130701343191553,0.10822778950651231,0.003075622990898739,0,0,0,0,0,0,0,1561,4,nuda,3
22,0.3492063492063492,83.54939,11.261303710026537,54.35484911573924,0,0.11123459104448326,0.11122399982404495,0.10823191965454637,0.0029884452473021143,0,0,0,0,0,0,0,1562,4,nuda,3
23,0.36507936507936506,79.42519,5.4077866472941905,54.62901767082959,0,0.11112872187881423,0.1111220124592339,0.10823604670035115,0.0028822967001216424,0,0,0,0,0,0,0,1563,4,nuda,3
24,0.38095238095238093,74.04002,0.0,54.92286536690054,0,0.11100462843880149,0.11100196614195734,0.10824017057530388,0.0027580922222434304,0,0,0,0,0,0,0,1564,4,nuda,3
25,0.3968253968253968,68.2198,0.0,55.23646428848893,0,0.11086370589289153,0.11086486928492711,0.10824429121245216,0.0026168402931221906,0,0,0,0,0,0,0,1565,4,nuda,3
26,0.4126984126984127,62.84169,0.0,55.56991240360427,0,0.110707349409531,0.11071181942732028,0.10824840854644215,0.00245963851708144,0,0,0,0,0,0,0,1566,4,nuda,3
27,0.42857142857142855,58.59242,0.0,55.923332715860326,0,0.11053695415716637,0.11054399664023368,0.10825252251343691,0.002287667028849703,0,0,0,0,0,0,0,1567,4,nuda,3
28,0.4444444444444444,55.71698,0.0,56.296872476371874,0,0.11035391530424418,0.11036265626579507,0.10825663305102551,0.00210218123276269,0,0,0,0,0,0,0,1568,4,nuda,3
29,0.4603174603174603,53.95837,0.0,56.69070244479176,0,0.11015962801921098,0.11016912239584169,0.10826074009812355,0.001904505281541239,0,0,0,0,0,0,0,1569,4,nuda,3
30,0.47619047619047616,52.68857,0.0,57.10501618914146,0,0.10995548747051336,0.10996478327019717,0.10826484359486584,0.0016960274746755618,0,0,0,0,0,0,0,1570,4,nuda,3
31,0.49206349206349204,51.13934,0.0,57.5400294142405,0,0.10974288882659779,0.10975108940286263,0.10826894348249208,0.0014781983847307553,0,0,0,0,0,0,0,1571,4,nuda,3
32,0.5079365079365079,48.74428,0.0,57.995979308569986,0,0.10952322725591081,0.10952955477516357,0.10827303970322628,0.0012525320506142634,0,0,0,0,0,0,0,1572,4,nuda,3
33,0.5238095238095237,45.38654,0.0,58.47312389931752,0,0.10929789792689903,0.10930176092086746,0.10827713220015071,0.0010206100628194913,0,0,0,0,0,0,0,1573,4,nuda,3
34,0.5396825396825397,41.44029,0.0,58.97174140514888,0,0.109068296008009,0.10906936322282709,0.10828122091707539,0.0007840878601997907,0,0,0,0,0,0,0,1574,4,nuda,3
35,0.5555555555555556,37.60826,0.0,59.49212957593475,0,0.10883581712658516,0.10883409829375029,0.10828530579840387,0.0005447021108723047,0,0,0,0,0,0,0,1575,4,nuda,3
36,0.5714285714285714,34.6264,0.0,60.03460500823174,0,0.10860202231123972,0.10859779096785925,0.1082893867889965,0.00030427770401409923,0,0,0,0,0,0,0,1576,4,nuda,3
37,0.5873015873015872,32.93925,0.0,60.59950242477291,0,0.10836888254164366,0.10836235921701064,0.10829346383403196,6.473266612077862e-05,0,0,0,0,0,0,0,1577,4,nuda,3
38,0.6031746031746031,32.57766,0.0,61.18717390556408,0,0.10813843121829111,0.10812981524212799,0.10829753687886827,-0.00017192074742214576,0,0,0,0,0,1,0,1578,4,nuda,3
39,0.6190476190476191,33.24964,0.0,61.79798805740556,0,0.10791270174167633,0.10790226108281363,0.10830160586890428,-0.00040358044258877017,0,0,0,0,0,0,0,1579,4,nuda,3
40,0.6349206349206349,34.52699,0.0,62.43232910776307,0,0.10769372751229345,0.10768187732880613,0.10830567074944292,-0.0006280657751185681,0,0,0,0,0,0,0,1580,4,nuda,3
41,0.6507936507936507,36.08057,0.0,63.09059590789264,0,0.10748354193063676,0.10747090389471806,0.10830973146555732,-0.0008431367756448053,0,0,0,0,0,0,0,1581,4,nuda,3
42,0.6666666666666666,37.76038,0.0,63.77320082898157,0,0.10728417839720045,0.10727161231871632,0.10831378796196119,-0.00104652185088448,0,0,0,0,0,0,0,1582,4,nuda,3
43,0.6825396825396826,39.63447,0.0,64.48056853379616,0,0.10709767031247866,0.10708626964611843,0.10831784018288457,-0.001235953899917836,0,0,0,0,0,0,0,1583,4,nuda,3
44,0.6984126984126984,41.90979,0.0,65.21313460492831,0,0.1069260510769657,0.10691709463200275,0.10832188807195652,-0.0014092141114607046,0,0,0,0,0,0,0,1584,4,nuda,3
45,0.7142857142857142,44.99516,0.0,65.97134400920419,0,0.10677135409115578,0.10676620770385366,0.10832593157209566,-0.0015641820011099681,0,0,0,0,0,0,0,1585,4,nuda,3
46,0.7301587301587301,49.47928,0.0,66.75564937615968,0,0.10663561275554301,0.1066355768148263,0.10832997062541032,-0.0016988895579788698,0,0,0,0,0,0,0,1586,4,nuda,3
47,0.746031746031746,56.18578,0.0,67.56650906670515,0,0.10652086047062163,0.10652696192784004,0.10833400517310908,-0.0018115767605141003,0,0,0,0,0,0,0,1587,4,nuda,3
48,0.7619047619047619,66.19701,0.0,68.4043850061958,0,0.10642913063688592,0.10644186132964663,0.10833803515542316,-0.0019007452623500051,0,0,0,0,0,0,0,1588,4,nuda,3
49,0.7777777777777777,80.60009,3.3322023958844467,69.26974025410843,0,0.10636245665483003,0.10638146320948469,0.1083420605115414,-0.00196520681358901,0,0,0,0,0,0,0,1589,4,nuda,3
50,0.7936507936507936,100.2016,25.341988278137517,70.163036280408,0,0.10632287192494817,0.10634660588333208,0.10834608117955884,-0.0020041230364979197,0,0,0,0,0,0,0,1590,4,nuda,3
51,0.8095238095238095,125.1049,52.64525242350793,71.08472991648983,0,0.1063124092903643,0.10633774965606015,0.10835009709643963,-0.0020170335633164253,1,0,0,0,0,0,0,1591,4,nuda,3
52,0.8253968253968254,154.377,84.21773695248332,72.03526994632811,0,0.10633219963847254,0.10635496257866715,0.10835410819799454,-0.002003870279001196,0,0,0,0,0,0,0,1592,4,nuda,3
53,0.8412698412698412,186.0231,118.10152374166108,73.01509330118054,0,0.10638063845756227,0.10639792131540299,0.10835811441887348,-0.0019649564540937677,0,0,0,0,0,0,0,1593,4,nuda,3
54,0.8571428571428571,217.2374,151.64199592131513,74.02462081893569,0,0.10645560463206316,0.10646592708479907,0.10836211569257312,-0.0019009908036980879,0,0,0,0,0,0,0,1594,4,nuda,3
55,0.873015873015873,244.9387,181.9235367569258,75.06425252699425,0,0.10655497704640482,0.10655793532892488,0.10836611195145929,-0.00181301781824649,0,0,0,0,0,0,0,1595,4,nuda,3
56,0.8888888888888888,266.3484,206.29406642420514,76.13436240551536,0,0.10667663458501696,0.10667259656542273,0.10837010312680381,-0.001702386911501696,0,0,0,0,0,0,0,1596,4,nuda,3
57,0.9047619047619047,279.5696,222.83918466670173,77.23529258601513,0,0.10681845613232926,0.10680830493423249,0.10837408914883527,-0.001570703873882777,0,0,0,0,0,0,0,1597,4,nuda,3
58,0.9206349206349206,283.8382,230.68605692716122,78.36734693877551,1,0.10697832057277144,0.10696325036242534,0.10837806994680274,-0.0014197787076951321,0,0,0,0,0,0,0,1598,4,nuda,3
59,0.9365079365079365,279.5063,230.07351607167595,79.66762826126828,0,0.10715410679077304,0.10713547007672387,0.10838204544905179,-0.001251574114686429,0,0,0,0,0,0,0,1599,4,nuda,3
60,0.9523809523809523,267.8282,222.19279410643094,81.27341803091726,0,0.10734369367076384,0.10732289538720459,0.10838601558311155,-0.0010681587124310805,0,0,0,0,0,0,0,1600,4,nuda,3
61,0.9682539682539681,250.5988,208.85827700576894,83.1880062429351,0,0.10754496009717344,0.10752339020662961,0.10838998027579176,-0.0008716685150956173,0,0,0,0,0,0,0,1601,4,nuda,3
62,0.9841269841269841,229.7743,192.0973922583175,85.41780490622227,0,0.10775578495443158,0.10773477859544643,0.10839393945328869,-0.0006642793885448359,0,0,0,0,0,0,0,1602,4,nuda,3
63,1.0,207.1754,173.75500090330252,87.97166510109346,0,0.10797404712696784,0.10795485965810392,0.10839789304129864,-0.0004481921541392007,0,0,0,0,0,0,0,1603,4,nuda,3
0,0.0,-44.31006,0.0,55.82617703672316,0,0.10862505555086964,0.10859181510692212,0.10891118358948433,0.00012275875180922365,0,0,0,0,0,0,0,2750,6,nuda,5
1,0.015873015873015872,-52.34091,0.0,55.81524279323217,0,0.108462556675424,0.10843572074504293,0.10891137437918984,-3.190386488586194e-05,0,0,0,0,0,0,0,2751,6,nuda,5
2,0.031746031746031744,-59.54755,0.0,55.80463185626799,0,0.10827936331224135,0.10825878725857614,0.10891156612276355,-0.0002074059868939804,0,0,0,0,0,0,0,2752,6,nuda,5
3,0.047619047619047616,-64.60431,0.0,55.7943474664731,0,0.10808054476651247,0.10806518869735093,0.10891175884693564,-0.00039957362636961597,0,0,0,0,0,0,0,2753,6,nuda,5
4,0.06349206349206349,-66.78372,0.0,55.78439287068675,0,0.10787117034342798,0.1078597618188952,0.10891195257805249,-0.0006035700876433083,0,0,0,0,0,1,0,2754,6,nuda,5
5,0.07936507936507936,-66.26114,0.0,55.774771322340094,0,0.10765630934817885,0.10764786364739037,0.10891214734196553,-0.0008140384081566654,0,0,0,0,0,0,0,2755,6,nuda,5
6,0.09523809523809523,-64.0441,0.0,55.76548608185538,0,0.1074410310859558,0.10743520462568913,0.10891234316391339,-0.0010252682063277541,0,0,0,0,0,0,0,2756,6,nuda,5
7,0.1111111111111111,-61.73485,0.0,55.75654041704997,0,0.10723040486194954,0.10722766375092031,0.10891254006840045,-0.0012313805458256126,0,0,0,0,0,0,0,2757,6,nuda,5
8,0.12698412698412698,-61.0748,0.0,55.747937603544464,0,0.10702949998135083,0.10703109282001838,0.10891273807907495,-0.0014265236899198672,0,0,0,0,0,0,0,2758,6,nuda,5
9,0.14285714285714285,-63.39688,0.0,55.73968092517547,0,0.10684338574935046,0.10685111743519388,0.10891293721861003,-0.0016050720958922778,0,0,0,0,0,0,0,2759,6,nuda,5
10,0.15873015873015872,-68.96927,0.0,55.73177367441313,0,0.10667713147113916,0.10669294274165156,0.10891313750859118,-0.0017618206772069406,0,0,0,0,0,0,0,2760,6,nuda,5
11,0.1746031746031746,-76.44859,0.0,55.72421915278306,0,0.1065358064519077,0.10656117196449838,0.10891333896941303,-0.0018921662665001716,0,0,0,0,0,0,0,2761,6,nuda,5
12,0.19047619047619047,-82.66646,0.0,55.717020671293156,0,0.10642447999684682,0.10645964561730455,0.10891354162018882,-0.0019922684069296763,0,0,0,0,0,0,0,2762,6,nuda,5
13,0.20634920634920634,-83.10242,0.0,55.71018155086525,0,0.10634822141114735,0.1063913086878215,0.10891374547867484,-0.002059182166382155,0,0,0,0,0,0,0,2763,6,nuda,5
14,0.2222222222222222,-73.01607,0.0,55.70370512277155,0,0.10631210000000002,0.10635811208611842,0.10891395056121221,-0.0020909566892793547,1,0,0,0,0,0,0,2764,6,nuda,5
15,0.23809523809523808,-49.11458,0.0,55.69759472907611,0,0.10631960653934563,0.10636095312315443,0.10891415688268768,-0.0020866947179677443,0,0,0,0,0,0,0,2765,6,nuda,5
16,0.25396825396825395,-11.02977,0.0,55.69185372308126,0,0.10636791768812534,0.10639965780659685,0.10891436445651448,-0.0020465702968819476,0,0,0,0,0,0,0,2766,6,nuda,5
17,0.2698412698412698,38.13972,0.0,55.68648546977926,0,0.10645263157603028,0.10647300543447041,0.10891457329463378,-0.001971804178898027,0,0,0,0,0,0,0,2767,6,nuda,5
18,0.2857142857142857,92.51999,13.900175193748334,55.68149334630912,0,0.10656934633275168,0.10657879357305546,0.10891478340753676,-0.0018645988474581439,0,0,0,0,0,0,0,2768,6,nuda,5
19,0.30158730158730157,145.2527,66.05666766031104,55.67688074241861,0,0.10671366008798076,0.1067139393001811,0.10891499480430636,-0.001728037273320258,0,0,0,0,0,0,0,2769,6,nuda,5
20,0.31746031746031744,190.4967,112.05368015590344,55.672651060931834,0,0.1068811709714086,0.10687461081202304,0.10891520749267775,-0.0015659513078216426,0,0,0,0,0,0,0,2770,6,nuda,5
21,0.3333333333333333,224.96,148.3914497821634,55.668807718222155,0,0.10706747711272638,0.10705638226186102,0.10891542147911548,-0.0013827668441996474,0,0,0,0,0,0,0,2771,6,nuda,5
22,0.3492063492063492,248.1974,173.9647633221759,55.665354144690696,0,0.10726817664162536,0.10725440404357175,0.10891563676890549,-0.0011833335341915048,0,0,0,0,0,0,0,2772,6,nuda,5
23,0.36507936507936506,262.003,189.8656851488799,55.66229378525055,0,0.10747886768779663,0.10746358058944917,0.10891585336625903,-0.0009727469903190803,0,0,0,0,0,0,0,2773,6,nuda,5
24,0.38095238095238093,269.2227,198.615793628524,55.65963009981672,0,0.10769514838093144,0.10767874801681615,0.10891607127442603,-0.0007561711393914827,0,0,0,0,0,0,0,2774,6,nuda,5
25,0.3968253968253968,272.6775,203.16894340531343,55.657366563801965,0,0.10791261685072095,0.10789484451777899,0.10891629049581497,-0.0005386678328713865,0,0,0,0,0,0,0,2775,6,nuda,5
26,0.4126984126984127,274.4817,206.02201661658492,55.65550666861857,0,0.10812687122685637,0.10810706714470811,0.1089165110321162,-0.0003250400615185618,0,0,0,0,0,0,0,2776,6,nuda,5
27,0.42857142857142855,275.7938,208.65197711651885,55.65405392218619,0,0.10833350963902894,0.10831100953505893,0.10891673288442595,-0.00011969423069393059,0,0,0,0,0,0,0,2777,6,nuda,5
28,0.4444444444444444,276.8187,211.34542423298245,55.65301184944605,0,0.10852813021692966,0.10850277611307728,0.10891695605336807,7.347404122313506e-05,0,0,0,0,0,0,0,2778,6,nuda,5
29,0.4603174603174603,276.932,213.36922210838446,55.65238399288123,0,0.10870633109024978,0.10867906940317952,0.10891718053921122,0.0002511672360967518,0,0,0,0,0,0,0,2779,6,nuda,5
30,0.47619047619047616,274.9033,213.3708100584731,55.65217391304348,1,0.10886371038868052,0.10883724830667703,0.1089174063419791,0.00041074421264791566,0,0,0,0,0,0,0,2780,6,nuda,5
31,0.49206349206349204,269.2602,209.88064405147168,55.71813069461868,0,0.10899664820262245,0.1089753565400234,0.10891763346155194,0.0005502486445992182,0,0,0,0,0,0,0,2781,6,nuda,5
32,0.5079365079365079,258.8053,201.79393965139613,55.91177730105456,0,0.10910538295101563,0.10909212188587439,0.10891786189775758,0.0006684082716427463,0,0,0,0,0,0,0,2782,6,nuda,5
33,0.5238095238095237,243.063,188.72445433202523,56.22795271032461,0,0.10919134099773532,0.10918692839038806,0.10891809165045126,0.0007646070966595391,0,0,0,0,0,0,0,2783,6,nuda,5
34,0.5396825396825397,222.5276,171.1535084913695,56.662859085898404,0,0.10925594903654652,0.10925976501941319,0.108918322719583,0.0008388340418396664,0,0,0,0,0,0,0,2784,6,nuda,5
35,0.5555555555555556,198.5511,150.34699916172454,57.213848225533205,0,0.10930063376121409,0.10931115540810796,0.10891855510525258,0.0008916126982450251,0,0,0,0,0,0,0,2785,6,nuda,5
36,0.5714285714285714,173.0511,128.07401337936213,57.87924457461181,0,0.10932682186550302,0.10934207407593727,0.10891878880775181,0.0009239175407634018,0,0,0,0,0,0,0,2786,6,nuda,5
37,0.5873015873015872,147.9565,106.2135844650125,58.65819381644874,0,0.10933594004317825,0.10935385476928677,0.10891902382759451,0.0009370822706915762,0,1,0,0,0,0,0,2787,6,nuda,5
38,0.6031746031746031,124.8462,86.36181480153722,59.550528066043796,0,0.1093294149880047,0.10934809644621175,0.10891926016553469,0.0009327058004650752,0,0,0,0,0,0,0,2788,6,nuda,5
39,0.6190476190476191,104.7092,69.54253810189958,60.556639989230455,0,0.10930867339374734,0.10932657189689965,0.10891949782257376,0.0009125608741125987,0,0,0,0,0,0,0,2789,6,nuda,5
40,0.6349206349206349,87.86414,56.088281914373304,61.67735893233435,0,0.10927514195417112,0.10929114319628679,0.1089197367999576,0.0008785095198747658,0,0,0,0,0,0,0,2790,6,nuda,5
41,0.6507936507936507,74.0264,45.70942590291165,62.91382250766456,0,0.10923024736304096,0.10924368722006081,0.10891997709916432,0.0008324285662177249,0,0,0,0,0,0,0,2791,6,nuda,5
42,0.6666666666666666,62.51837,37.72134369123785,64.26733713300692,0,0.1091754163141218,0.10918603342518352,0.10892021872188419,0.000776147422375173,0,0,0,0,0,0,0,2792,6,nuda,5
43,0.6825396825396826,52.5285,31.360226177161547,65.73922084808545,0,0.10911207550117859,0.10911991508849664,0.10892046166999252,0.0007113993169803961,0,0,0,0,0,0,0,2793,6,nuda,5
44,0.6984126984126984,43.44714,26.09395411542467,67.33062140552673,0,0.10904165161797627,0.10904693427763372,0.10892070594551644,0.0006397862690103256,0,0,0,0,0,0,0,2794,6,nuda,5
45,0.7142857142857142,35.08563,21.830964732018284,69.04230224878125,0,0.10896557135827979,0.10896854003975363,0.10892095155059692,0.0005627572765562165,0,0,0,0,0,0,0,2795,6,nuda,5
46,0.7301587301587301,27.79431,18.95330402589494,70.87438866319728,0,0.1088852614158541,0.10888601865668472,0.10892119848744662,0.0004815985720088449,0,0,0,0,0,0,0,2796,6,nuda,5
47,0.746031746031746,22.3309,18.150480693853385,72.82606628215942,0,0.10880205507060092,0.10880049433476607,0.10892144675830465,0.00039743431194424935,0,0,0,0,0,0,0,2797,6,nuda,5
48,0.7619047619047619,19.5285,20.098248886558203,74.89522447414355,0,0.10871671503151185,0.10871293836931638,0.10892169636538877,0.00031123574163926425,0,0,0,0,0,0,0,2798,6,nuda,5
49,0.7777777777777777,19.88589,25.089586210816375,77.07803823658708,0,0.1086297886336023,0.10862418463978944,0.10892194731084597,0.0002238366902757596,0,0,0,0,0,0,0,2799,6,nuda,5
50,0.7936507936507936,23.18701,32.75754430283322,79.3684844832781,0,0.10854182281354227,0.10853494924581363,0.1089221995967016,0.00013595320702973175,0,0,0,0,0,0,0,2800,6,nuda,5
51,0.8095238095238095,28.37015,42.01174632010631,81.75779253960143,0,0.10845336450800167,0.10844585217976073,0.10892245322480809,4.820523369081502e-05,0,0,0,0,0,0,0,2801,6,nuda,5
52,0.8253968253968254,33.64761,51.240674019208534,84.23383484458643,0,0.10836496065365045,0.10835743913669937,0.10892270819679299,-3.8861585333473266e-05,0,0,0,0,0,0,0,2802,6,nuda,5
53,0.8412698412698412,37.06345,58.73242015268417,86.78047291773512,0,0.10827715818715852,0.1082702018675145,0.10892296451400736,-0.00012475554984751446,0,0,0,0,0,0,0,2803,6,nuda,5
54,0.8571428571428571,37.09668,63.17662634771035,89.37688610798513,0,0.10819050404519585,0.10818459585727033,0.1089232221774744,-0.00020902122545413463,0,0,0,0,0,0,0,2804,6,nuda,5
55,0.873015873015873,33.16846,64.0696911537504,91.99692673046029,0,0.10810554516443235,0.10810105452514072,0.10892348118783876,-0.0002912252435746373,0,0,0,0,0,0,0,2805,6,nuda,5
56,0.8888888888888888,25.86041,61.874266829342005,94.60856453454528,0,0.10802282848153796,0.10801999955994664,0.1089237415453169,-0.0003709459658623968,0,0,0,0,0,0,0,2806,6,nuda,5
57,0.9047619047619047,16.6864,57.87221470324674,97.17350463822878,0,0.10794290093318265,0.10794184739430868,0.10892400324964842,-0.00044776701000279824,0,0,0,0,0,0,0,2807,6,nuda,5
58,0.9206349206349206,7.587036,53.76090858890913,99.64708324683413,0,0.10786630945603633,0.10786701215307423,0.10892426630004907,-0.0005212743012398947,0,0,0,0,0,0,0,2808,6,nuda,5
59,0.9365079365079365,0.2420654,51.13044309622173,101.97855997403461,0,0.107793600986769,0.10779590566663401,0.10892453069516532,-0.0005910560590154448,0,0,0,0,0,1,0,2809,6,nuda,5
60,0.9523809523809523,-4.339539,50.99099532969667,104.11192791083708,0,0.1077253224620505,0.10772893530274386,0.10892479643303085,-0.0006567049651044753,0,0,0,0,0,0,0,2810,6,nuda,5
61,0.9682539682539681,-6.15271,53.48931889677279,105.98734512129253,0,0.10766202081855082,0.10766650043489773,0.10892506351102528,-0.0007178216952019216,0,0,0,0,0,0,0,2811,6,nuda,5
62,0.9841269841269841,-6.04248,57.88118209194757,107.54324689941139,0,0.1076042429929399,0.10760898833249227,0.1089253319258352,-0.0007740190287200652,0,0,0,0,0,0,0,2812,6,nuda,5
63,1.0,-5.49115,62.745014604587155,108.71912311529417,0,0.10755249823579255,0.10755677013752783,0.10892560167341792,-0.0008249258720521442,0,0,0,0,0,0,0,2813,6,nuda,5
