,index,PPG_Raw,PPG_Clean,PPG_Rate,PPG_Peaks,EDA_Raw,EDA_Clean,EDA_Tonic,EDA_Phasic,SCR_Onsets,SCR_Peaks,SCR_Height,SCR_Amplitude,SCR_RiseTime,SCR_Recovery,SCR_RecoveryTime,Index,Label,Condition,id
0,0.0,-38.79492,0.0,80.34461538461538,0,0.4306904,0.43070327434254235,0.4260681939059187,0.004633558472581083,0,0,0,0,0,0,1,0,1,neutral,0
1,0.015873015873015872,-41.21323,0.0,80.34461538461538,0,0.4306363836710236,0.43042572161310955,0.4260536065306693,0.004370587928287295,0,0,0,0,0,0,0,1,1,neutral,0
2,0.031746031746031744,-43.28838,0.0,80.34461538461538,0,0.4304820893072336,0.4301412279597163,0.42603910730167965,0.004100588314544059,0,0,0,0,0,0,0,2,1,neutral,0
3,0.047619047619047616,-43.66467,0.0,80.34461538461538,0,0.43023914884333936,0.429841690495395,0.426024697171636,0.003815455791828408,0,0,0,0,0,0,0,3,1,neutral,0
4,0.06349206349206349,-41.2065,0.0,80.34461538461538,0,0.42991919421405017,0.4295202933002778,0.4260103770956018,0.0035083734853408087,0,0,0,0,0,0,0,4,1,neutral,0
5,0.07936507936507936,-35.43468,0.0,80.34461538461538,0,0.4295338573540753,0.42917216167155703,0.4259961480308505,0.003174465735132693,0,0,0,0,0,0,0,5,1,neutral,0
6,0.09523809523809523,-26.76466,0.0,80.34461538461538,0,0.4290947701981241,0.4287948360352982,0.4259820109366858,0.0028112720080994778,0,0,0,0,0,0,0,6,1,neutral,0
7,0.1111111111111111,-16.2704,0.0,80.34461538461538,0,0.4286135646809056,0.4283885319037814,0.425967966774247,0.002419006855516415,0,0,0,0,0,0,0,7,1,neutral,0
8,0.12698412698412698,-5.36731,0.0,80.34461538461538,0,0.4281018727371294,0.4279561738267156,0.425954016506298,0.002000593864463657,0,0,0,0,0,0,0,8,1,neutral,0
9,0.14285714285714285,4.649689,0.0,80.34461538461538,0,0.4275713263015044,0.4275032114565192,0.42594016109700084,0.0015614817233341356,0,0,0,0,0,0,0,9,1,neutral,0
10,0.15873015873015872,12.85219,0.0,80.34461538461538,0,0.4270335573087402,0.42703724299778095,0.42592640151167405,0.0011092676715350773,0,0,0,0,0,0,0,10,1,neutral,0
11,0.1746031746031746,18.77405,3.337837791930454,80.34461538461538,0,0.4265001976935459,0.4265674844927879,0.42591273871653984,0.0006531667852694018,0,0,0,0,0,0,0,11,1,neutral,0
12,0.19047619047619047,22.33429,5.751787682197779,80.34461538461538,0,0.4259828793906308,0.42610413219539994,0.42589917367846436,0.00020337435166979233,0,0,0,0,0,0,0,12,1,neutral,0
13,0.20634920634920634,23.69481,5.921194479550337,80.34461538461538,0,0.4254932343347042,0.42565766968406527,0.42588570736469566,-0.000229627017923781,0,0,0,0,0,0,0,13,1,neutral,0
14,0.2222222222222222,23.17517,4.115915570466038,80.34461538461538,0,0.4250428944604753,0.42523817161378563,0.42587234074260577,-0.0006357636357407857,0,0,0,0,0,0,0,14,1,neutral,0
15,0.23809523809523808,21.16647,0.7788633487698053,80.34461538461538,0,0.4246434917026534,0.4248546525407988,0.42585907477944196,-0.0010060219126490693,0,0,0,0,0,0,0,15,1,neutral,0
16,0.25396825396825395,18.18304,0.0,80.34461538461538,0,0.42430665799594774,0.42451450263369056,0.42584591044209374,-0.0013330126468097349,0,0,0,0,0,0,0,16,1,neutral,0
17,0.2698412698412698,14.74831,0.0,80.34461538461538,0,0.42404127562009425,0.4242230429805795,0.42583284869688,-0.0016114157162793723,0,0,0,0,0,0,0,17,1,neutral,0
18,0.2857142857142857,11.35588,0.0,80.34461538461538,0,0.4238425912194464,0.4239832224065327,0.4258198905093605,-0.001838283261406201,0,0,0,0,0,0,0,18,1,neutral,0
19,0.30158730158730157,8.396133,0.0,80.34461538461538,0,0.42370163246388537,0.4237954661576694,0.42580703684417526,-0.0020131910005654896,0,0,0,0,0,0,0,19,1,neutral,0
20,0.31746031746031744,6.088013,0.0,80.34461538461538,0,0.4236094257717426,0.42365767551131134,0.42579428866491287,-0.0021382386198776967,0,0,0,0,0,0,0,20,1,neutral,0
21,0.3333333333333333,4.513718,0.0,80.34461538461538,0,0.4235569975613496,0.42356536731561845,0.42578164693400833,-0.002217910233470741,0,0,0,0,0,0,0,21,1,neutral,0
22,0.3492063492063492,3.677216,0.0,80.34461538461538,0,0.42353537425103793,0.4235119344040133,0.42576911261266925,-0.0022588139689813267,0,0,0,0,0,0,0,22,1,neutral,0
23,0.36507936507936506,3.552917,0.0,80.34461538461538,0,0.4235355822591389,0.4234890021782745,0.4257566866608278,-0.0022693253844137187,0,0,0,0,0,0,0,23,1,neutral,0
24,0.38095238095238093,4.128754,0.0,80.34461538461538,0,0.42354864800398395,0.4234868534639393,0.42574437003711413,-0.0022591626127107974,0,0,0,0,0,0,0,24,1,neutral,0
25,0.3968253968253968,5.346771,0.0,80.34461538461538,0,0.4235655979039046,0.4234948927946262,0.425732163698848,-0.0022389220774224217,0,0,0,0,0,0,0,25,1,neutral,0
26,0.4126984126984127,7.066742,0.0,80.34461538461538,0,0.4235774583772322,0.42350212219830724,0.425720068602041,-0.0022196027064363497,0,0,0,0,0,0,0,26,1,neutral,0
27,0.42857142857142855,8.904099,0.0,80.34461538461538,0,0.4235752558422985,0.42349760289786004,0.4257080857014057,-0.0022121442314344715,0,0,0,0,0,0,0,27,1,neutral,0
28,0.4444444444444444,10.2979,0.0,80.34461538461538,0,0.4235500167174346,0.4234708806772502,0.42569621595036355,-0.002227001821718556,0,0,0,0,0,0,0,28,1,neutral,0
29,0.4603174603174603,10.65134,0.0,80.34461538461538,0,0.4234927674209721,0.42341235664959004,0.42568446030104584,-0.0022737753161527884,0,0,0,0,0,0,0,29,1,neutral,0
30,0.47619047619047616,9.528641,0.0,80.34461538461538,0,0.42339453437124247,0.423313589534549,0.4256728197042829,-0.0023609069457419998,0,0,0,0,0,0,0,30,1,neutral,0
31,0.49206349206349204,6.877518,0.0,80.34461538461538,0,0.42324634398657723,0.4231675201434008,0.42566129510957396,-0.002495456848554919,0,0,0,0,0,0,0,31,1,neutral,0
32,0.5079365079365079,3.100891,0.0,80.34461538461538,0,0.4230392226853076,0.42296861348055975,0.425649887465035,-0.002682960968135256,0,0,0,0,0,0,0,32,1,neutral,0
33,0.5238095238095237,-1.159729,0.0,80.34461538461538,0,0.4227655475071286,0.422712918620857,0.42563859771731866,-0.0029273711761456387,0,0,0,0,0,0,0,33,1,neutral,0
34,0.5396825396825397,-5.206085,0.0,80.34461538461538,0,0.4224260305763517,0.42239805119161605,0.4256274268115042,-0.0032310727901820905,0,0,0,0,0,0,0,34,1,neutral,0
35,0.5555555555555556,-8.576218,0.0,80.34461538461538,0,0.42202456047864284,0.422023107664004,0.4256163756909552,-0.0035949702822802784,0,0,0,0,0,0,0,35,1,neutral,0
36,0.5714285714285714,-11.24249,0.0,80.34461538461538,0,0.42156503205254486,0.42158852442376604,0.4256054452971427,-0.004018628208004423,0,0,0,0,0,0,0,36,1,neutral,0
37,0.5873015873015872,-13.53821,0.0,80.34461538461538,0,0.42105134013660045,0.4210958973922006,0.42559463656943436,-0.004500451585260684,0,0,0,0,0,0,0,37,1,neutral,0
38,0.6031746031746031,-16.05782,0.0,80.34461538461538,0,0.42048737956935217,0.420547779515581,0.4255839504448486,-0.005037888404630583,0,0,0,0,0,0,0,38,1,neutral,0
39,0.6190476190476191,-19.37657,0.0,80.34461538461538,0,0.4198770451893429,0.4199474735980562,0.42557338785777576,-0.005627636796190567,0,0,0,0,0,0,0,39,1,neutral,0
40,0.6349206349206349,-23.8075,0.0,80.34461538461538,0,0.4192242318351152,0.4192988367546592,0.4255629497396669,-0.006265840576193057,0,0,0,0,0,0,0,40,1,neutral,0
41,0.6507936507936507,-29.30975,0.0,80.34461538461538,0,0.4185328343452119,0.4186061103836978,0.42555263701869267,-0.006948259274334047,0,0,0,0,0,0,0,41,1,neutral,0
42,0.6666666666666666,-35.48039,0.0,80.34461538461538,0,0.41780674755817554,0.41787378626963345,0.42554245061937385,-0.007670402030505242,0,0,0,0,0,0,0,42,1,neutral,0
43,0.6825396825396826,-41.67928,0.0,80.34461538461538,0,0.4170498663125488,0.41710651554363737,0.4255323914621866,-0.008427618633842553,0,0,0,0,0,0,0,43,1,neutral,0
44,0.6984126984126984,-47.16168,0.0,80.34461538461538,0,0.4162660854468746,0.41630906307666876,0.42552246046314407,-0.009215145129230438,0,0,0,0,0,0,0,44,1,neutral,0
45,0.7142857142857142,-51.23015,0.0,80.34461538461538,0,0.41545929979969537,0.4154863057735317,0.4255126585333588,-0.010028105522806407,0,0,0,0,0,0,0,45,1,neutral,0
46,0.7301587301587301,-53.26442,0.0,80.34461538461538,0,0.41463340420955397,0.41464326945992147,0.42550298657858643,-0.010861474894459065,0,0,0,0,0,0,0,46,1,neutral,0
47,0.746031746031746,-52.87515,0.0,80.34461538461538,0,0.413792293514993,0.4137851958493304,0.4254934454987554,-0.011710012430451779,0,0,0,0,0,0,0,47,1,neutral,0
48,0.7619047619047619,-49.94395,0.0,80.34461538461538,0,0.4129398625545553,0.4129176286322222,0.42548403618748437,-0.012568175333765625,0,0,0,0,0,0,0,48,1,neutral,0
49,0.7777777777777777,-44.76031,0.0,80.34461538461538,0,0.4120803547841192,0.41204650617460503,0.4254747595315916,-0.013430026125035749,0,0,0,0,0,0,0,49,1,neutral,0
50,0.7936507936507936,-38.04898,0.0,80.34461538461538,0,0.4112207117115357,0.4111782477052576,0.4254656164105979,-0.014289146454828289,0,0,0,0,0,0,0,50,1,neutral,0
51,0.8095238095238095,-30.82721,0.0,80.34461538461538,0,0.41036913337681125,0.4103198201919162,0.42545660769622845,-0.015138570226955327,0,0,0,0,0,0,0,51,1,neutral,0
52,0.8253968253968254,-24.03383,0.0,80.34461538461538,0,0.4095338268918284,0.4094787742676716,0.42544773425191584,-0.015970747671580625,0,0,0,0,0,0,0,52,1,neutral,0
53,0.8412698412698412,-18.1412,0.0,80.34461538461538,0,0.4087229993684704,0.4086632394361781,0.42543899693230913,-0.01677755013952001,0,0,0,0,0,0,0,53,1,neutral,0
54,0.8571428571428571,-12.8551,0.0,80.34461538461538,0,0.4079448579186202,0.40788187121779146,0.42543039658279314,-0.017550322955622477,0,0,0,0,0,0,0,54,1,neutral,0
55,0.873015873015873,-7.245087,0.0,80.34461538461538,0,0.40720760965416064,0.4071437457788329,0.4254219340390224,-0.01827999078904027,0,0,0,0,0,0,0,55,1,neutral,0
56,0.8888888888888888,-0.3283386,0.0,80.34461538461538,0,0.4065194616869747,0.40645820081622214,0.42541361012647516,-0.018957216768149637,0,0,0,0,0,0,0,56,1,neutral,0
57,0.9047619047619047,8.295303,0.0,80.34461538461538,0,0.40588862112894525,0.40583462495771244,0.42540542566003237,-0.019572613079895256,0,0,0,0,0,0,0,57,1,neutral,0
58,0.9206349206349206,18.14998,0.0,80.34461538461538,0,0.4053232950919554,0.40528220157100264,0.4253973814435872,-0.02011699716028743,0,0,0,0,0,0,0,58,1,neutral,0
59,0.9365079365079365,28.19093,0.0,80.34461538461538,0,0.40483169068788805,0.4048096164975566,0.4253894782696905,-0.020581683960227887,0,0,0,0,0,0,0,59,1,neutral,0
60,0.9523809523809523,37.51627,0.0,80.34461538461538,0,0.4044220150286261,0.40442474262814065,0.42538171691923726,-0.0209588013696589,0,0,0,0,0,0,0,60,1,neutral,0
61,0.9682539682539681,46.16702,0.0,80.34461538461538,0,0.4041024752260525,0.4041343171502717,0.42537409816119903,-0.02124161296984785,0,0,0,0,0,0,0,61,1,neutral,0
62,0.9841269841269841,55.24379,0.0,80.34461538461538,0,0.4038812783920503,0.4039436294149957,0.42536662275240683,-0.021424830166391275,0,0,0,0,0,0,0,62,1,neutral,0
63,1.0,66.39619,1.4364329164104446,80.34461538461538,0,0.4037666316385024,0.4038562383735727,0.42535929143738865,-0.02150489475236752,0,0,0,0,0,0,0,63,1,neutral,0
0,0.0,24.05591,23.4678308646813,93.64558416868171,0,0.4784105373135001,0.47811109287777304,0.4235429263951211,0.05462170228530916,0,0,0,0,0,0,0,1111,3,neutral,2
1,0.015873015873015872,27.30401,26.110760599068932,93.65528479494245,0,0.4767900883726893,0.47655261940359606,0.42353855709230886,0.05306761633013239,0,0,0,0,0,0,0,1112,3,neutral,2
2,0.031746031746031744,28.22635,26.27945744399251,93.65853658536585,1,0.474880590611358,0.474705611626946,0.4235341352875106,0.051225047406451014,0,0,0,0,0,0,0,1113,3,neutral,2
3,0.047619047619047616,27.54406,24.561619976564558,93.61730423590139,0,0.4727277635089706,0.47260705562662764,0.42352966033317135,0.04913098223207594,0,0,0,0,0,0,0,1114,3,neutral,2
4,0.06349206349206349,25.91699,21.61576363967065,93.4952607500765,0,0.4703773265449917,0.4702995505242326,0.4235251316113739,0.046828020537936166,0,0,0,0,0,0,0,1115,3,neutral,2
5,0.07936507936507936,23.77487,18.006330187785792,93.29518194401255,0,0.46787499919888725,0.467830147805423,0.4235205485326351,0.04436321439056569,0,0,0,0,0,0,0,1116,3,neutral,2
6,0.09523809523809523,21.34425,14.13528664222914,93.02020168307828,0,0.46526650095012184,0.46524899666227576,0.42351591053458276,0.041786713535771645,0,0,0,0,0,0,0,1117,3,neutral,2
7,0.1111111111111111,18.78057,10.257233783112985,92.67376488977786,0,0.4625975512781597,0.4626078507582584,0.4235112170805387,0.03915027216502633,0,0,0,0,0,0,0,1118,3,neutral,2
8,0.12698412698412698,16.25704,6.53231051163102,92.25957898347603,0,0.4599138696624674,0.45995849701594715,0.423506467658038,0.03650567770466663,0,0,0,0,0,0,0,1119,3,neutral,2
9,0.14285714285714285,13.97844,3.070641954807344,91.78156481764145,0,0.4572611755825089,0.4573511700179475,0.42350166177731324,0.03390316521832989,0,0,0,0,0,0,0,1120,3,neutral,2
10,0.15873015873015872,12.11589,0.0,91.24380810226796,0,0.45468518851774875,0.4548330166337813,0.42349679896977327,0.031389882035362394,0,0,0,0,0,0,0,1121,3,neutral,2
11,0.1746031746031746,10.78025,0.0,90.6505121965963,0,0.45223162794765326,0.4524466745106928,0.42349187878650607,0.029008466243122668,0,0,0,0,0,0,0,1122,3,neutral,2
12,0.19047619047619047,9.907776,0.0,90.00595303708344,0,0.44994621335168666,0.4502290247949216,0.4234869007968316,0.02679579940970123,0,0,0,0,0,0,0,1123,3,neutral,2
13,0.20634920634920634,9.35276,0.0,89.31443683461043,0,0.44787466420931366,0.4482101734022833,0.42348186458693005,0.024781987855873305,0,0,0,0,0,0,0,1124,3,neutral,2
14,0.2222222222222222,8.900574,0.0,88.58026103963425,0,0.4460627000000001,0.44641270585148957,0.4234767697585657,0.022989617489694875,0,0,0,0,0,0,0,1125,3,neutral,2
15,0.23809523809523808,8.404199,0.0,87.80767894011707,0,0.44454414123731734,0.44485124788489416,0.4234716159279244,0.02143331442841139,0,0,0,0,0,0,0,1126,3,neutral,2
16,0.25396825396825395,7.797747,0.0,87.0008681294364,0,0.4433052125712648,0.44353234815790127,0.4234664027245771,0.020119627688902637,0,0,0,0,0,1,0,1127,3,neutral,2
17,0.2698412698412698,7.101298,0.0,86.16390296389656,0,0.4423202396859485,0.442454681283284,0.4234611297905779,0.019047232232902674,0,0,0,0,0,0,0,1128,3,neutral,2
18,0.2857142857142857,6.278893,0.0,85.30073102467678,0,0.4415635482654753,0.44160955129024065,0.42345579677970113,0.01820743242681929,0,0,0,0,0,0,0,1129,3,neutral,2
19,0.30158730158730157,5.258245,0.0,84.41515350880256,0,0.44100946399395097,0.44098165919780635,0.42345040335681633,0.01758492961577097,0,0,0,0,0,0,0,1130,3,neutral,2
20,0.31746031746031744,3.863585,0.0,83.51080939884099,0,0.44063231255548185,0.44055008565592185,0.423444949197396,0.01715880476514758,0,0,0,0,0,0,0,1131,3,neutral,2
21,0.3333333333333333,1.840751,0.0,82.59116320153494,0,0.4404064196341742,0.44028943142946386,0.42343943398714845,0.01690365894500813,0,0,0,0,0,0,0,1132,3,neutral,2
22,0.3492063492063492,-0.9348812,0.0,81.65949600090887,0,0.44030611091413435,0.4401710549878926,0.42343385742176276,0.01679085091998303,0,0,0,0,0,0,0,1133,3,neutral,2
23,0.36507936507936506,-4.426552,0.0,80.71889954042231,0,0.44030571207946845,0.44016434706883273,0.4234282192067525,0.016789771713011603,0,0,0,0,0,0,0,1134,3,neutral,2
24,0.38095238095238093,-8.441532,0.0,79.77227303010115,0,0.4403795488142828,0.44023798591122043,0.4234225190573815,0.016869099838563245,0,0,0,0,0,0,0,1135,3,neutral,2
25,0.3968253968253968,-12.67844,0.0,78.82232236663174,0,0.4405019468026836,0.4403611229165213,0.42341675669865403,0.016997986963865182,0,0,0,0,0,0,0,1136,3,neutral,2
26,0.4126984126984127,-16.91298,0.0,77.87156145545721,0,0.44064723172877707,0.4405044559116922,0.42341093186535195,0.017147131171827062,0,0,0,0,0,0,0,1137,3,neutral,2
27,0.42857142857142855,-21.13596,0.0,76.92231533228117,0,0.44078972927666965,0.4406411552936997,0.42340504430210113,0.017289703105493107,0,0,0,0,0,0,0,1138,3,neutral,2
28,0.4444444444444444,-25.55238,0.0,75.97672479544832,0,0.44090376513046736,0.4407476167399019,0.4233990937634504,0.01740209867834521,0,0,0,0,0,0,0,1139,3,neutral,2
29,0.4603174603174603,-30.49259,0.0,75.03675227895204,0,0.44096366497427664,0.4408040227257066,0.42339308001394726,0.017464500591884827,0,0,0,0,0,0,0,1140,3,neutral,2
30,0.47619047619047616,-36.20868,0.0,74.104188716997,0,0.4409437544922035,0.4407947038176119,0.42338700282819763,0.01746123962861452,0,0,0,0,0,0,0,1141,3,neutral,2
31,0.49206349206349204,-42.51457,0.0,73.18066117397764,0,0.44082296457710113,0.44070829964862834,0.4233808619908975,0.01738095562742806,0,0,0,0,0,0,0,1142,3,neutral,2
32,0.5079365079365079,-48.75385,0.0,72.26764103746464,0,0.4406030635133994,0.4405377285341442,0.4233746572968276,0.017216567099481064,0,0,0,0,0,0,0,1143,3,neutral,2
33,0.5238095238095237,-53.81366,0.0,71.36645259554032,0,0.4402928856568461,0.44027998346613595,0.423368388550805,0.01696506722245014,0,0,0,0,0,0,0,1144,3,neutral,2
34,0.5396825396825397,-56.39093,0.0,70.47828184297903,0,0.4399012674593242,0.4399357800519989,0.4233620555675865,0.016627171779459653,0,0,0,0,0,0,0,1145,3,neutral,2
35,0.5555555555555556,-55.44386,0.0,69.60418538286741,0,0.43943704537271644,0.43950908803848177,0.4233556581717229,0.016206850683162344,0,0,0,0,0,0,0,1146,3,neutral,2
36,0.5714285714285714,-50.60923,0.0,68.74509931097133,0,0.43890905584890555,0.43900658173759305,0.423349196197364,0.015710778401840708,0,0,0,0,0,0,0,1147,3,neutral,2
37,0.5873015873015872,-42.41525,0.0,67.90184798926545,0,0.4383261353397747,0.438437045675445,0.4233426694880167,0.015147739608493178,0,0,0,0,0,0,0,1148,3,neutral,2
38,0.6031746031746031,-32.15645,0.0,67.0751526324241,0,0.4376971202972065,0.43781077024643034,0.4233360778962592,0.01452802483529601,0,0,0,0,0,0,0,1149,3,neutral,2
39,0.6190476190476191,-21.54256,0.0,66.26563964667986,0,0.4370308471730837,0.43713896850742323,0.4233294212834172,0.013862847268128687,0,0,0,0,0,0,0,1150,3,neutral,2
40,0.6349206349206349,-12.05083,0.0,65.47384867430232,0,0.43633615241928947,0.4364332400863861,0.4233226995192073,0.01316380665553688,0,0,0,0,0,0,0,1151,3,neutral,2
41,0.6507936507936507,-4.643721,0.0,64.7002403090902,0,0.43562187248770645,0.4357051021420509,0.42331591248135414,0.012442420268796675,0,0,0,0,0,0,0,1152,3,neutral,2
42,0.6666666666666666,0.3804111,0.0,63.945203458793834,0,0.4348968438302175,0.43496560097860426,0.4233090600551879,0.011709734517002517,0,0,0,0,0,0,0,1153,3,neutral,2
43,0.6825396825396826,3.097374,0.0,63.20906233940491,0,0.4341699028987055,0.43422501176302036,0.423302142133229,0.010976024664815504,0,0,0,0,0,0,0,1154,3,neutral,2
44,0.6984126984126984,3.641039,0.0,62.49208309389023,0,0.43344988614505325,0.4334926281463575,0.42329515861476513,0.010250584454182317,0,0,0,0,0,0,0,1155,3,neutral,2
45,0.7142857142857142,2.006357,0.0,61.79448003433813,0,0.4327456300211435,0.43277663864974814,0.4232881094054285,0.009541602490748726,0,0,0,0,0,0,0,1156,3,neutral,2
46,0.7301587301587301,-1.819424,0.0,61.116421511762795,0,0.43206597097885935,0.432084082522106,0.4232809944167765,0.008856118101985389,0,0,0,0,0,0,0,1157,3,neutral,2
47,0.746031746031746,-7.566261,0.0,60.458035422104,0,0.4314189689704067,0.431420874417071,0.42327381356588273,0.008200046014542505,0,0,0,0,0,0,0,1158,3,neutral,2
48,0.7619047619047619,-14.4087,0.0,59.81941436039198,0,0.43080789193841057,0.4307918846561164,0.42326656677494023,0.007578256617753217,0,0,0,0,0,0,0,1159,3,neutral,2
49,0.7777777777777777,-20.90296,0.0,59.20062043773806,0,0.4302341816132935,0.4302010600522462,0.42325925397088243,0.006994696787710338,0,0,0,0,0,0,0,1160,3,neutral,2
50,0.7936507936507936,-25.20733,0.0,58.60168977786713,0,0.42969927613057174,0.42965156931783083,0.4232518750850228,0.006452535295462263,0,0,0,0,0,0,0,1161,3,neutral,2
51,0.8095238095238095,-25.47134,0.0,58.022636711433016,0,0.42920461362576123,0.4291459570452517,0.42324443005271745,0.005954316787995118,0,0,0,0,0,0,0,1162,3,neutral,2
52,0.8253968253968254,-20.29747,0.0,57.46345768743543,0,0.4287516322343788,0.42868629117284046,0.4232369188130508,0.005502109254486081,0,0,0,0,0,0,0,1163,3,neutral,2
53,0.8412698412698412,-9.054382,0.0,56.924134921774744,0,0.4283417700919404,0.4282742906980408,0.4232293413085473,0.005097631739753814,0,0,0,0,0,0,0,1164,3,neutral,2
54,0.8571428571428571,7.96571,0.0,56.40463980340626,0,0.4279764653339622,0.4279114230551679,0.42322169748490907,0.004742351722280335,0,0,0,0,0,0,0,1165,3,neutral,2
55,0.873015873015873,29.68977,0.0,55.90493607875388,0,0.4276571560959606,0.42759896384704243,0.4232139872907817,0.004437544846078747,0,0,0,0,0,0,0,1166,3,neutral,2
56,0.8888888888888888,54.46411,0.0,55.42498283507116,0,0.427385280513452,0.4273380152737852,0.42320621067754816,0.004184313349694555,0,0,0,0,0,0,0,1167,3,neutral,2
57,0.9047619047619047,80.51225,16.197671432078316,54.96473730334265,0,0.4271622767219526,0.42712948338129264,0.4231983675991524,0.003983563314857302,0,0,0,0,0,0,0,1168,3,neutral,2
58,0.9206349206349206,106.3632,42.7956259942454,54.52415750114681,0,0.4269895828569785,0.426974017894245,0.4231904580119527,0.003835944499635692,0,0,0,0,0,0,0,1169,3,neutral,2
59,0.9365079365079365,131.2157,68.92713970862812,54.10320473568806,0,0.42686863705404626,0.42687192165042115,0.42318248187460505,0.003741759772868656,0,0,0,0,0,0,0,1170,3,neutral,2
60,0.9523809523809523,154.9293,94.34536462466667,53.70184598698727,0,0.4268008774486719,0.42682303928256715,0.4231744391479778,0.003700853796119786,0,0,0,0,0,0,0,1171,3,neutral,2
61,0.9682539682539681,177.7889,119.03160072029894,53.320056191023696,0,0.426787742176372,0.4268266366044117,0.4231663297950969,0.0037124924097474117,0,0,0,0,0,0,0,1172,3,neutral,2
62,0.9841269841269841,199.9395,142.82824041293202,52.95782044247772,0,0.42683066937266245,0.426881283004513,0.42315815378112176,0.0037752450267751294,0,0,0,0,0,0,0,1173,3,neutral,2
63,1.0,220.9993,165.15088637067652,52.61513613665598,0,0.42693040024455226,0.4269847489657066,0.423149911073352,0.0038868821523337905,0,0,0,0,0,0,0,1174,3,neutral,2
0,0.0,10.55084,18.211042515689783,89.30054631422027,0,0.4703172616669501,0.46949246199091366,0.4302623140496415,0.03934437712008644,0,0,0,0,0,0,0,2266,5,neutral,4
1,0.015873015873015872,9.827896,16.89983608919904,88.55418430772002,0,0.4710995129468697,0.4703558437107254,0.4304042117398656,0.04008006484349148,0,0,0,0,0,0,0,2267,5,neutral,4
2,0.031746031746031744,8.998657,15.372362428781448,87.76629055022354,0,0.4710566329606425,0.4704887375210605,0.43054645881190645,0.04008501111529777,0,1,0,0,0,0,0,2268,5,neutral,4
3,0.047619047619047616,7.962402,13.497272642600452,86.94086871000458,0,0.47026406000685994,0.46990752738712843,0.4306890540322286,0.03937560145612751,0,0,0,0,0,0,0,2269,5,neutral,4
4,0.06349206349206349,6.578186,11.179541218107948,86.08185598239903,0,0.46879724278672347,0.46864625095548235,0.4308319961902808,0.037985875044879824,0,0,0,0,0,0,0,2270,5,neutral,4
5,0.07936507936507936,4.728683,8.384738072750613,85.19309778142974,0,0.4667316300014354,0.4667548158020325,0.4309752840980851,0.03596574096714582,0,0,0,0,0,0,0,2271,5,neutral,4
6,0.09523809523809523,2.379181,5.158033705855141,84.27832589534114,0,0.4641426703521995,0.46429668805149243,0.4311189165894367,0.03337866683544759,0,0,0,0,0,0,0,2272,5,neutral,4
7,0.1111111111111111,-0.3357086,1.6205351404731696,83.34114006549177,0,0.4611058125402154,0.4613461837408313,0.43126289251874017,0.030298970153845074,0,0,0,0,0,0,0,2273,5,neutral,4
8,0.12698412698412698,-3.161179,0.0,82.38499288252275,0,0.4576965052666863,0.45798550393851867,0.4314072107595208,0.026808853438661386,0,0,0,0,0,0,0,2274,5,neutral,4
9,0.14285714285714285,-5.840149,0.0,81.41317784041937,0,0.4539901972328163,0.4543016555979176,0.43155187020265134,0.0229953250736403,0,0,0,0,0,0,0,2275,5,neutral,4
10,0.15873015873015872,-8.275177,0.0,80.42882034774539,0,0.4500623371398042,0.4503833933728948,0.4316968697543423,0.01894714112755755,0,0,0,0,0,0,0,2276,5,neutral,4
11,0.1746031746031746,-10.59293,0.0,79.4348714652812,0,0.4459883736888538,0.44631830535507533,0.4318422083339447,0.014751891093664263,0,0,0,0,0,0,0,2277,5,neutral,4
12,0.19047619047619047,-13.00687,0.0,78.43410411955942,0,0.4418437555811691,0.4421901498802387,0.4319878848716163,0.010493334698407797,0,0,0,0,0,0,0,2278,5,neutral,4
13,0.20634920634920634,-15.71634,0.0,77.42911153119093,0,0.4377039315179487,0.43807653265836155,0.4321338983059011,0.006249079033886457,0,0,0,0,0,0,0,2279,5,neutral,4
14,0.2222222222222222,-18.80331,0.0,76.42230759412811,0,0.43364435020039643,0.4340469943439967,0.4322802475812704,0.0020886661306780234,0,0,0,0,0,1,0,2280,5,neutral,4
15,0.23809523809523808,-22.24446,0.0,75.41592894580474,0,0.4297404603297164,0.43016155854662314,0.4324269316456699,-0.0019278790293656145,0,0,0,0,0,0,0,2281,5,neutral,4
16,0.25396825396825395,-25.97787,0.0,74.41203847714164,0,0.4260677106071072,0.4264697690890607,0.4325739494481124,-0.005751011252305864,0,0,0,0,0,0,0,2282,5,neutral,4
17,0.2698412698412698,-29.94806,0.0,73.41253004450321,0,0.4226920291670087,0.4230102229427381,0.43272129993635106,-0.009342132194531647,0,0,0,0,0,0,0,2283,5,neutral,4
18,0.2857142857142857,-33.95578,0.0,72.41913416173223,0,0.4196205899054488,0.41981058199541976,0.432868982054662,-0.012673578592824105,0,0,0,0,0,0,0,2284,5,neutral,4
19,0.30158730158730157,-37.58907,0.0,71.43342446840398,0,0.41683817575587667,0.4168880237053143,0.43301699474175803,-0.0157281716081709,0,0,0,0,0,0,0,2285,5,neutral,4
20,0.31746031746031744,-40.05779,0.0,70.45682478958783,0,0.4143295255750472,0.41425006964922406,0.43316533692884995,-0.01849838827568779,0,0,0,0,0,0,0,2286,5,neutral,4
21,0.3333333333333333,-40.39461,0.0,69.49061662198392,0,0.4120793782197153,0.4118957142381739,0.43331400753786614,-0.020985232787218387,0,0,0,0,0,0,0,2287,5,neutral,4
22,0.3492063492063492,-37.76749,0.0,68.5359469007461,0,0.41007247254663226,0.409816765328164,0.43346300547983474,-0.023196895878972563,0,0,0,0,0,0,0,2288,5,neutral,4
23,0.36507936507936506,-31.80193,0.0,67.59383592016327,0,0.40829354741255314,0.4079993049976112,0.43361232965342783,-0.025147294052639105,0,0,0,0,0,0,0,2289,5,neutral,4
24,0.38095238095238093,-22.87253,0.0,66.66518529931541,0,0.40672734167423197,0.4064251821863642,0.43376197894366403,-0.026854576935082104,0,0,0,0,0,0,0,2290,5,neutral,4
25,0.3968253968253968,-12.11874,0.0,65.75078590060866,0,0.40535859418842124,0.4050734581111305,0.4339119522207612,-0.028339681861776773,0,0,0,0,0,0,0,2291,5,neutral,4
26,0.4126984126984127,-1.130951,0.0,64.85132562457021,0,0.4041720438118757,0.40392173880140697,0.43406224833912965,-0.029625001339881416,0,0,0,0,0,0,0,2292,5,neutral,4
27,0.42857142857142855,8.495926,0.0,63.96739701836238,0,0.4031524294013481,0.40294734498283485,0.43421286613649385,-0.03073321316401371,0,0,0,0,0,0,0,2293,5,neutral,4
28,0.4444444444444444,15.57832,0.0,63.09950464812365,0,0.4022844898135925,0.40212828620372687,0.43436380443312983,-0.03168630628897076,0,0,0,0,0,0,0,2294,5,neutral,4
29,0.4603174603174603,19.63034,0.0,62.248072196476485,0,0.40155296390536305,0.4014440221496201,0.4345150620312056,-0.03250481951452645,0,0,0,0,0,0,0,2295,5,neutral,4
30,0.47619047619047616,20.86819,0.0,61.4134492564033,0,0.4009425905334125,0.40087600847295224,0.4346666377142121,-0.0332072956551958,0,0,0,0,0,0,0,2296,5,neutral,4
31,0.49206349206349204,20.01456,0.0,60.59591780125286,0,0.4004381085544952,0.4004080365202779,0.4348185302464727,-0.033809941812538234,0,0,0,0,0,0,0,2297,5,neutral,4
32,0.5079365079365079,18.10883,0.0,59.795698317987046,0,0.4000242568253647,0.4000263857659813,0.43497073837272066,-0.03432647694103208,0,0,0,0,0,0,0,2298,5,neutral,4
33,0.5238095238095237,16.06454,0.0,59.01295559700912,0,0.3996867415992748,0.3997198145414001,0.4351232608177353,-0.034768141118597315,0,0,0,0,0,0,0,2299,5,neutral,4
34,0.5396825396825397,14.46922,0.0,58.24780417713234,0,0.3994187560951815,0.3994794189438815,0.4352760962860288,-0.03514383663723549,0,0,0,0,0,0,0,2300,5,neutral,4
35,0.5555555555555556,13.42218,0.0,57.50031344855423,0,0.3992169858988211,0.3992983918559091,0.4354292434615772,-0.03546036898364461,0,0,0,0,0,0,0,2301,5,neutral,4
36,0.5714285714285714,12.50693,0.0,56.77051242019987,0,0.3990781362200505,0.3991717140352812,0.43558270100758956,-0.0357227557488204,0,0,0,0,0,0,0,2302,5,neutral,4
37,0.5873015873015872,11.12015,0.0,56.058394160583944,0,0.39899891226872697,0.39909580748565776,0.43573646756631307,-0.035934573257324,0,0,0,0,0,0,0,2303,5,neutral,4
38,0.6031746031746031,8.806458,0.0,55.36391992350772,0,0.39897601925470777,0.3990681780591879,0.43589054175886893,-0.03609831396450132,0,0,0,0,0,0,0,2304,5,neutral,4
39,0.6190476190476191,5.602844,0.0,54.6870229715401,0,0.39900616238785014,0.39908706984071557,0.4360449221851184,-0.03621573207215346,0,0,0,0,0,0,0,2305,5,neutral,4
40,0.6349206349206349,2.070221,0.0,54.0276121114068,0,0.39908604687801136,0.39915114875451885,0.436199607423557,-0.03628815992170194,0,0,0,0,0,0,0,2306,5,neutral,4
41,0.6507936507936507,-0.8427734,0.0,53.38557495620272,0,0.39921237793504855,0.3992592274865849,0.4363545960312352,-0.036316783071844945,0,0,0,0,0,0,0,2307,5,neutral,4
42,0.6666666666666666,-2.347809,0.0,52.76078092980918,0,0.39938186076881904,0.39941003866642366,0.4365098865437056,-0.036302867116701595,0,0,0,0,0,0,0,2308,5,neutral,4
43,0.6825396825396826,-2.267868,0.0,52.153084029099496,0,0.39959120058917996,0.39960205866710363,0.43666547747499507,-0.0362479338857589,0,0,0,0,0,0,0,2309,5,neutral,4
44,0.6984126984126984,-1.193024,0.0,51.56232535949972,0,0.3998371026059886,0.3998333806239709,0.4368213673176019,-0.036153888425160416,0,0,0,0,0,0,0,2310,5,neutral,4
45,0.7142857142857142,-0.2975769,0.0,50.988335459281686,0,0.4001162720291022,0.4001016324918912,0.4369775545425164,-0.03602310094049561,0,0,0,0,0,0,0,2311,5,neutral,4
46,0.7301587301587301,-0.7990875,0.0,50.430936427638734,0,0.40042541406837795,0.40040393419727716,0.43713403759926384,-0.035858449644826235,0,0,0,0,0,0,0,2312,5,neutral,4
47,0.746031746031746,-3.369324,0.0,49.889943871162835,0,0.4007612339336731,0.40073688713550093,0.43729081491596894,-0.035663331261349476,0,0,0,0,0,0,0,2313,5,neutral,4
48,0.7619047619047619,-7.850845,0.0,49.36516868283333,0,0.401120436834845,0.40109658927917036,0.43744788489943937,-0.03544164591521545,0,0,0,0,0,0,0,2314,5,neutral,4
49,0.7777777777777777,-13.33916,0.0,48.85641866706426,0,0.4014996312036966,0.4014786698081271,0.43760524593526706,-0.03519776250364203,0,0,0,0,0,0,0,2315,5,neutral,4
50,0.7936507936507936,-18.62236,0.0,48.36350002375905,0,0.40189447472442813,0.40187833823331826,0.4377628963879444,-0.03493646957217026,0,0,0,0,0,0,0,2316,5,neutral,4
51,0.8095238095238095,-22.76407,0.0,47.88621870370492,0,0.4023000854468109,0.40229044425181454,0.43792083460099335,-0.034662915459786725,0,0,0,0,0,0,0,2317,5,neutral,4
52,0.8253968253968254,-25.51762,0.0,47.42438164701661,0,0.40271157522681994,0.4027095458500769,0.4380790588971046,-0.03438254019580659,0,0,0,0,0,0,0,2318,5,neutral,4
53,0.8412698412698412,-27.38872,0.0,46.977797915722704,0,0.40312405592043066,0.4031299843105913,0.4382375675782835,-0.03410100049339665,0,0,0,0,0,0,0,2319,5,neutral,4
54,0.8571428571428571,-29.5116,0.0,46.546279730984594,0,0.4035326393836189,0.40354596564977335,0.438396358926,-0.03382408831183155,0,0,0,0,0,0,0,2320,5,neutral,4
55,0.873015873015873,-33.19467,0.0,46.12964342485761,0,0.4039324374723598,0.4039516485313056,0.4385554312013386,-0.03355764294331824,0,0,0,0,0,0,0,2321,5,neutral,4
56,0.8888888888888888,-39.56581,0.0,45.72771031594888,0,0.4043185620426287,0.40434123880310885,0.43871478264514663,-0.03330745647618399,0,0,0,0,0,0,0,2322,5,neutral,4
57,0.9047619047619047,-49.23592,0.0,45.340307517804156,0,0.40468612495040135,0.40470909048503345,0.43887441147817524,-0.03307917280733777,0,0,0,0,0,0,0,2323,5,neutral,4
58,0.9206349206349206,-62.03493,0.0,44.96726868836747,0,0.4050302380516531,0.405049812324381,0.43903431590121167,-0.03287818108689266,0,0,0,0,0,0,0,2324,5,neutral,4
59,0.9365079365079365,-76.56631,0.0,44.60843472840715,0,0.4053460132023592,0.40535837802535224,0.4391944940951986,-0.03270950548884835,0,0,0,0,0,0,0,2325,5,neutral,4
60,0.9523809523809523,-89.95154,0.0,44.26365443639075,0,0.4056285622584953,0.4056302370826172,0.4393549442213377,-0.03257769437763677,0,0,0,0,0,0,0,2326,5,neutral,4
61,0.9682539682539681,-97.85641,0.0,43.9327851269217,0,0.4058729970760367,0.4058614219836969,0.4395156644211743,-0.03248671310583664,0,0,0,0,0,0,0,2327,5,neutral,4
62,0.9841269841269841,-95.20271,0.0,43.615693219523145,0,0.4060744295109589,0.40604864658865436,0.4396766528166609,-0.03243984563455803,0,0,0,0,0,0,0,2328,5,neutral,4
63,1.0,-77.68077,0.0,43.31225480427076,0,0.4062279714192374,0.4061893899493768,0.4398379075101975,-0.032439610714211975,0,0,0,0,0,0,0,2329,5,neutral,4
