timestamp,value,norm_ts
1618159948.76127,16.93114,4.812390089035034
1618159948.77689,13.56749,4.828010082244873
1618159948.79252,10.95601,4.843640089035034
1618159948.80815,9.371552,4.859270095825195
1618159948.82377,8.791618,4.874890089035034
1618159948.8394,8.910133,4.890520095825195
1618159948.85502,9.287743,4.906140089035034
1618159948.87065,9.475063,4.921770095825195
1618159948.88627,9.172382,4.937390089035034
1618159948.9019,8.243813,4.953020095825195
1618159948.91753,6.745377,4.9686501026153564
1618159948.93315,4.802135,4.984270095825195
1618159948.94878,2.577915,4.9999001026153564
1618159948.9644,0.2123184,5.015520095825195
1618159948.98003,-2.245762,5.0311501026153564
1618159948.99565,-4.819683,5.046770095825195
1618159949.01128,-7.666893,5.0624001026153564
1618159949.02691,-10.92919,5.078030109405518
1618159949.04253,-14.76778,5.0936501026153564
1618159949.05816,-19.26057,5.109280109405518
1618159949.07378,-24.39258,5.1249001026153564
1618159949.08941,-29.96043,5.140530109405518
1618159949.10503,-35.50334,5.1561501026153564
1618159949.12066,-40.34184,5.171780109405518
1618159949.13629,-43.63581,5.187410116195679
1618159949.15191,-44.5758,5.203030109405518
1618159949.16754,-42.56181,5.218660116195679
1618159949.18316,-37.46292,5.234280109405518
1618159949.19879,-29.73619,5.249910116195679
1618159949.21441,-20.35336,5.265530109405518
1618159949.23004,-10.58955,5.281160116195679
1618159949.24567,-1.706305,5.29679012298584
1618159949.26129,5.354939,5.312410116195679
1618159949.27692,10.14076,5.32804012298584
1618159949.29254,12.65889,5.343660116195679
1618159949.30817,13.25688,5.35929012298584
1618159949.32379,12.40265,5.374910116195679
1618159949.33942,10.52814,5.39054012298584
1618159949.35505,7.983095,5.406170129776001
1618159949.37067,5.072426,5.42179012298584
1618159949.3863,2.103979,5.437420129776001
1618159949.40192,-0.5326691,5.45304012298584
1618159949.41755,-2.437327,5.468670129776001
1618159949.43317,-3.321876,5.48429012298584
1618159949.4488,-3.157314,5.499920129776001
1618159949.46443,-2.189741,5.515550136566162
1618159949.48005,-0.8775778,5.531170129776001
1618159949.49568,0.3038244,5.546800136566162
1618159949.5113,0.9799356,5.562420129776001
1618159949.52693,1.021981,5.578050136566162
1618159949.54255,0.4997244,5.593670129776001
1618159949.55818,-0.3700428,5.609300136566162
1618159949.57381,-1.39975,5.624930143356323
1618159949.58943,-2.534743,5.640550136566162
1618159949.60506,-3.843978,5.656180143356323
1618159949.62068,-5.489901,5.671800136566162
1618159949.63631,-7.626283,5.687430143356323
1618159949.65193,-10.32379,5.703050136566162
1618159949.66756,-13.53481,5.718680143356323
1618159949.68319,-17.12718,5.734310150146484
1618159949.69881,-20.9011,5.749930143356323
1618159949.71444,-24.59112,5.765560150146484
1618159949.73006,-27.83866,5.781180143356323
1618159949.74569,-30.10894,5.796810150146484
1618159949.76132,-30.74204,5.8124401569366455
1618159949.77694,-29.10506,5.828060150146484
1618159949.79257,-24.81279,5.8436901569366455
1618159949.80819,-17.95106,5.859310150146484
1618159949.82382,-9.151305,5.8749401569366455
1618159949.83944,0.5605879,5.890560150146484
1618159949.85507,10.00331,5.9061901569366455
1618159949.8707,18.18465,5.9218199253082275
1618159949.88632,24.48879,5.9374401569366455
1618159949.90195,28.71715,5.9530699253082275
1618159949.91757,31.01552,5.9686901569366455
1618159949.9332,31.75098,5.9843199253082275
1618159949.94882,31.27318,5.9999401569366455
1618159949.96445,29.86119,6.0155699253082275
1618159949.98008,27.70828,6.031199932098389
1618159949.9957,24.97002,6.0468199253082275
1618159950.01133,21.82065,6.062449932098389
1618159950.02695,18.60483,6.0780699253082275
1618159950.04258,15.72267,6.093699932098389
1618159950.0582,13.59237,6.1093199253082275
1618159950.07383,12.51038,6.124949932098389
1618159950.08946,12.44496,6.14057993888855
1618159950.10508,13.06715,6.156199932098389
1618159950.12071,13.84185,6.17182993888855
1618159950.13633,14.25564,6.187449932098389
1618159950.15196,13.98625,6.20307993888855
1618159950.16758,13.02199,6.218699932098389
1618159950.18321,11.55369,6.23432993888855
1618159950.19884,9.80957,6.249959945678711
1618159950.21446,7.980141,6.26557993888855
1618159950.23009,6.057468,6.281209945678711
1618159950.24571,3.953695,6.29682993888855
1618159950.26134,1.533355,6.312459945678711
1618159950.27696,-1.32842,6.32807993888855
1618159950.29259,-4.722589,6.343709945678711
1618159950.30822,-8.741285,6.359339952468872
1618159950.32384,-13.40438,6.374959945678711
1618159950.33947,-18.54304,6.390589952468872
1618159950.35509,-23.67496,6.406209945678711
1618159950.37072,-27.97218,6.421839952468872
1618159950.38634,-30.32809,6.437459945678711
1618159950.40197,-29.71325,6.453089952468872
1618159950.4176,-25.58812,6.468719959259033
1618159950.43322,-18.16915,6.484339952468872
1618159950.44885,-8.475704,6.499969959259033
1618159950.46447,1.923827,6.515589952468872
1618159950.4801,11.38903,6.531219959259033
1618159950.49572,18.67941,6.546839952468872
1618159950.51135,23.20872,6.562469959259033
1618159950.52698,25.11036,6.578099966049194
1618159950.5426,24.95489,6.593719959259033
1618159950.55823,23.45467,6.609349966049194
1618159950.57385,21.17089,6.624969959259033
1618159950.58948,18.43806,6.640599966049194
1618159950.6051,15.38685,6.656219959259033
1618159950.62073,12.09883,6.671849966049194
1618159950.63636,8.739693,6.6874799728393555
1618159950.65198,5.569729,6.703099966049194
1618159950.66761,2.916939,6.7187299728393555
1618159950.68323,1.052536,6.734349966049194
1618159950.69886,0.1017685,6.7499799728393555
1618159950.71448,-0.002187729,6.765599966049194
1618159950.73011,0.5368137,6.7812299728393555
1618159950.74574,1.439083,6.796859979629517
1618159950.76136,2.368721,6.8124799728393555
1618159950.77699,3.003672,6.828109979629517
1618159950.79261,3.023552,6.8437299728393555
1618159950.80824,2.195911,6.859359979629517
1618159950.82386,0.4566994,6.8749799728393555
1618159950.83949,-2.042377,6.890609979629517
1618159950.85512,-4.956738,6.906239986419678
1618159950.87074,-7.88512,6.921859979629517
1618159950.88637,-10.51119,6.937489986419678
1618159950.90199,-12.71542,6.953109979629517
1618159950.91762,-14.58414,6.968739986419678
1618159950.93324,-16.39162,6.984359979629517
1618159950.94887,-18.44481,6.999989986419678
1618159950.9645,-20.95667,7.015619993209839
1618159950.98012,-23.84228,7.031239986419678
1618159950.99575,-26.67165,7.046869993209839
1618159951.01137,-28.63864,7.062489986419678
1618159951.027,-28.74976,7.078119993209839
1618159951.04262,-26.15058,7.093739986419678
1618159951.05825,-20.36403,7.109369993209839
1618159951.07388,-11.64371,7.125
1618159951.0895,-0.8771133,7.140619993209839
1618159951.10513,10.62024,7.15625
1618159951.12075,21.55778,7.171869993209839
1618159951.13638,30.92416,7.1875
1618159951.152,38.20971,7.203119993209839
1618159951.16763,43.30876,7.21875
1618159951.18326,46.30163,7.234380006790161
1618159951.19888,47.43583,7.25
1618159951.21451,46.97141,7.265630006790161
1618159951.23013,45.27841,7.28125
1618159951.24576,42.85954,7.296880006790161
1618159951.26138,40.2995,7.3125
1618159951.27701,38.12158,7.328130006790161
1618159951.29264,36.69766,7.343760013580322
1618159951.30826,36.1023,7.359380006790161
1618159951.32389,36.10554,7.375010013580322
1618159951.33951,36.23439,7.390630006790161
1618159951.35514,35.82726,7.406260013580322
1618159951.37076,34.23614,7.421880006790161
1618159951.38639,30.94012,7.437510013580322
1618159951.40202,25.66726,7.453140020370483
1618159951.41764,18.44751,7.468760013580322
1618159951.43327,9.63192,7.484390020370483
1618159951.44889,-0.2728729,7.500010013580322
1618159951.46452,-10.69784,7.515640020370483
1618159951.48014,-21.03192,7.531260013580322
1618159951.49577,-30.71197,7.546890020370483
1618159951.5114,-39.11827,7.5625200271606445
1618159951.52702,-45.76229,7.578140020370483
1618159951.54265,-50.37609,7.5937700271606445
1618159951.55827,-53.0571,7.609390020370483
1618159951.5739,-54.2866,7.6250200271606445
1618159951.58952,-54.80325,7.640640020370483
1618159951.60515,-55.35686,7.6562700271606445
1618159951.62078,-56.28676,7.671900033950806
1618159951.6364,-57.47813,7.6875200271606445
1618159951.65203,-58.27316,7.703150033950806
1618159951.66765,-57.7871,7.7187700271606445
1618159951.68328,-55.1931,7.734400033950806
1618159951.6989,-50.02598,7.7500200271606445
1618159951.71453,-42.36966,7.765650033950806
1618159951.73016,-32.81719,7.781280040740967
1618159951.74578,-22.33703,7.796900033950806
1618159951.76141,-11.98636,7.812530040740967
1618159951.77703,-2.756531,7.828150033950806
1618159951.79266,4.722076,7.843780040740967
1618159951.80828,10.14925,7.859400033950806
1618159951.82391,13.547,7.875030040740967
1618159951.83954,15.1445,7.890660047531128
1618159951.85516,15.18274,7.906280040740967
1618159951.87079,13.94502,7.921910047531128
1618159951.88641,11.6657,7.937530040740967
1618159951.90204,8.619675,7.953160047531128
1618159951.91766,5.100098,7.968780040740967
1618159951.93329,1.52742,7.984410047531128
1618159951.94892,-1.689545,8.000040054321289
1618159951.96454,-4.153076,8.015660047531128
1618159951.98017,-5.574142,8.031290054321289
1618159951.99579,-5.896133,8.046910047531128
1618159952.01142,-5.262665,8.062540054321289
1618159952.02705,-4.053497,8.07817006111145
1618159952.04267,-2.795776,8.093790054321289
1618159952.0583,-2.014282,8.10942006111145
1618159952.07392,-2.044266,8.125040054321289
1618159952.08955,-2.990372,8.14067006111145
1618159952.10517,-4.699142,8.156290054321289
1618159952.1208,-6.856201,8.17192006111145
1618159952.13643,-9.198883,8.187550067901611
1618159952.15205,-11.56044,8.20317006111145
1618159952.16768,-13.94849,8.218800067901611
1618159952.1833,-16.46919,8.23442006111145
1618159952.19893,-19.26665,8.250050067901611
1618159952.21455,-22.48921,8.26567006111145
1618159952.23018,-26.20761,8.281300067901611
1618159952.24581,-30.33881,8.296930074691772
1618159952.26143,-34.51552,8.312550067901611
1618159952.27706,-38.08926,8.328180074691772
1618159952.29268,-40.15652,8.343800067901611
1618159952.30831,-39.80812,8.359430074691772
1618159952.32393,-36.46466,8.375050067901611
1618159952.33956,-30.12854,8.390680074691772
1618159952.35519,-21.54184,8.406310081481934
1618159952.37081,-11.96381,8.421930074691772
1618159952.38644,-2.76342,8.437560081481934
1618159952.40206,4.983429,8.453180074691772
1618159952.41769,10.73461,8.468810081481934
1618159952.43331,14.48141,8.484430074691772
1618159952.44894,16.50286,8.500060081481934
1618159952.46457,17.15334,8.515690088272095
1618159952.48019,16.67328,8.531310081481934
1618159952.49582,15.20438,8.546940088272095
1618159952.51144,12.93871,8.562560081481934
1618159952.52707,10.17067,8.578190088272095
1618159952.54269,7.328331,8.593810081481934
1618159952.55832,4.91275,8.609440088272095
1618159952.57395,3.343857,8.625070095062256
1618159952.58957,2.814377,8.640690088272095
1618159952.6052,3.237816,8.656320095062256
1618159952.62082,4.281662,8.671940088272095
1618159952.63645,5.477097,8.687570095062256
1618159952.65207,6.389931,8.703190088272095
1618159952.6677,6.744873,8.718820095062256
1618159952.68333,6.459473,8.734450101852417
1618159952.69895,5.624207,8.750070095062256
1618159952.71458,4.454323,8.765700101852417
1618159952.7302,3.09938,8.781320095062256
1618159952.74583,1.627907,8.796950101852417
1618159952.76145,-0.0358963,8.812570095062256
1618159952.77708,-2.057991,8.828200101852417
1618159952.79271,-4.690079,8.843830108642578
1618159952.80833,-8.150963,8.859450101852417
1618159952.82396,-12.54002,8.875080108642578
1618159952.83958,-17.62273,8.890700101852417
1618159952.85521,-22.77496,8.906330108642578
1618159952.87083,-27.01096,8.921950101852417
1618159952.88646,-29.17837,8.937580108642578
1618159952.90209,-28.34563,8.95321011543274
1618159952.91771,-24.14128,8.968830108642578
1618159952.93334,-16.93147,8.98446011543274
1618159952.94896,-7.704308,9.000080108642578
1618159952.96459,2.243568,9.01571011543274
1618159952.98021,11.73222,9.031330108642578
1618159952.99584,19.88865,9.04696011543274
1618159953.01147,26.26402,9.0625901222229
1618159953.02709,30.68575,9.07821011543274
1618159953.04272,33.15287,9.0938401222229
1618159953.05834,33.76329,9.10946011543274
1618159953.07397,32.72938,9.1250901222229
1618159953.08959,30.43579,9.14071011543274
1618159953.10522,27.40331,9.1563401222229
1618159953.12085,24.20537,9.171970129013062
1618159953.13647,21.33811,9.1875901222229
1618159953.1521,19.09414,9.203220129013062
1618159953.16772,17.58739,9.2188401222229
1618159953.18335,16.74764,9.234470129013062
1618159953.19897,16.34716,9.2500901222229
1618159953.2146,16.08129,9.265720129013062
1618159953.23023,15.61963,9.281350135803223
1618159953.24585,14.70746,9.296970129013062
1618159953.26148,13.23388,9.312600135803223
1618159953.2771,11.32591,9.328220129013062
1618159953.29273,9.21019,9.343850135803223
1618159953.30835,7.149441,9.359470129013062
1618159953.32398,5.247509,9.375100135803223
1618159953.33961,3.376228,9.390730142593384
1618159953.35523,1.265499,9.406350135803223
1618159953.37086,-1.430466,9.421980142593384
1618159953.38648,-4.979885,9.437600135803223
1618159953.40211,-9.426628,9.453230142593384
1618159953.41773,-14.49355,9.468850135803223
1618159953.43336,-19.56094,9.484480142593384
1618159953.44899,-23.72829,9.500110149383545
1618159953.46461,-26.01346,9.515730142593384
1618159953.48024,-25.64972,9.531360149383545
1618159953.49586,-22.34639,9.546980142593384
1618159953.51149,-16.41188,9.562610149383545
1618159953.52711,-8.711323,9.578230142593384
1618159953.54274,-0.3442459,9.593860149383545
1618159953.55837,7.70929,9.609490156173706
1618159953.57399,14.81292,9.625110149383545
1618159953.58962,20.69263,9.640740156173706
1618159953.60524,25.35419,9.656360149383545
1618159953.62087,28.77868,9.671990156173706
1618159953.63649,30.90508,9.687610149383545
1618159953.65212,31.60718,9.703240156173706
1618159953.66775,30.81596,9.718869924545288
1618159953.68337,28.64215,9.734490156173706
1618159953.699,25.42562,9.750119924545288
1618159953.71462,21.7078,9.765740156173706
1618159953.73025,18.06202,9.781369924545288
1618159953.74587,15.08737,9.796990156173706
1618159953.7615,13.13414,9.812619924545288
1618159953.77713,12.33042,9.82824993133545
1618159953.79275,12.49776,9.843869924545288
1618159953.80838,13.33865,9.85949993133545
1618159953.824,14.61074,9.875119924545288
1618159953.83963,16.22167,9.89074993133545
1618159953.85525,18.23595,9.906369924545288
1618159953.87088,20.6781,9.92199993133545
1618159953.88651,23.40331,9.93762993812561
1618159953.90213,25.9206,9.95324993133545
1618159953.91776,27.56306,9.96887993812561
1618159953.93338,27.59746,9.98449993133545
1618159953.94901,25.46608,10.00012993812561
1618159953.96463,20.99231,10.01574993133545
1618159953.98026,14.46555,10.03137993812561
1618159953.99589,6.725677,10.047009944915771
1618159954.01151,-0.8835526,10.06262993812561
1618159954.02714,-6.605972,10.078259944915771
1618159954.04276,-8.726257,10.09387993812561
1618159954.05839,-5.996841,10.109509944915771
1618159954.07401,1.782005,10.12512993812561
1618159954.08964,13.43387,10.140759944915771
1618159954.10527,26.75545,10.156389951705933
1618159954.12089,39.15527,10.172009944915771
1618159954.13652,48.62006,10.187639951705933
1618159954.15214,54.29622,10.203259944915771
1618159954.16777,56.62767,10.218889951705933
1618159954.18339,56.894,10.234509944915771
1618159954.19902,56.62598,10.250139951705933
1618159954.21465,57.11824,10.265769958496094
1618159954.23027,59.09413,10.281389951705933
1618159954.2459,62.81714,10.297019958496094
1618159954.26152,68.07718,10.312639951705933
1618159954.27715,74.31731,10.328269958496094
1618159954.29277,80.70326,10.343889951705933
1618159954.3084,86.31247,10.359519958496094
1618159954.32403,90.37041,10.375149965286255
1618159954.33965,92.48125,10.390769958496094
1618159954.35528,92.62721,10.406399965286255
1618159954.3709,90.87454,10.422019958496094
1618159954.38653,87.0544,10.437649965286255
1618159954.40215,80.55945,10.453269958496094
1618159954.41778,70.60223,10.468899965286255
1618159954.43341,56.72836,10.484529972076416
1618159954.44903,39.40338,10.500149965286255
1618159954.46466,20.18973,10.515779972076416
1618159954.48028,1.307922,10.531399965286255
1618159954.49591,-15.07828,10.547029972076416
1618159954.51153,-27.59006,10.562649965286255
1618159954.52716,-35.80846,10.578279972076416
1618159954.54279,-40.10818,10.593909978866577
1618159954.55841,-41.10919,10.609529972076416
1618159954.57404,-39.29153,10.625159978866577
1618159954.58966,-34.97751,10.640779972076416
1618159954.60529,-28.62347,10.656409978866577
1618159954.62092,-21.11023,10.672039985656738
1618159954.63654,-13.71191,10.687659978866577
1618159954.65217,-7.723969,10.703289985656738
1618159954.66779,-3.826599,10.718909978866577
1618159954.68342,-1.768372,10.734539985656738
1618159954.69904,-0.4764404,10.750159978866577
1618159954.71467,1.372803,10.765789985656738
1618159954.7303,4.638947,10.7814199924469
1618159954.74592,9.303802,10.797039985656738
1618159954.76155,14.60468,10.8126699924469
1618159954.77717,19.46271,10.828289985656738
1618159954.7928,23.04388,10.8439199924469
1618159954.80842,25.03729,10.859539985656738
1618159954.82405,25.64084,10.8751699924469
1618159954.83968,25.41885,10.89079999923706
1618159954.8553,25.1347,10.9064199924469
1618159954.87093,25.63852,10.92204999923706
1618159954.88655,27.67023,10.9376699924469
1618159954.90218,31.60538,10.95329999923706
1618159954.9178,37.19751,10.9689199924469
1618159954.93343,43.41223,10.98454999923706
1618159954.94906,48.65793,11.000180006027222
1618159954.96468,51.40204,11.01579999923706
1618159954.98031,50.76196,11.031430006027222
1618159954.99593,46.91882,11.04704999923706
1618159955.01156,40.8822,11.062680006027222
1618159955.02718,33.99792,11.07829999923706
1618159955.04281,27.27789,11.093930006027222
1618159955.05844,21.14557,11.109560012817383
1618159955.07406,15.52936,11.125180006027222
1618159955.08969,10.22034,11.140810012817383
1618159955.10531,4.931824,11.156430006027222
1618159955.12094,-0.9301758,11.172060012817383
1618159955.13656,-8.446716,11.187680006027222
1618159955.15219,-19.02551,11.203310012817383
1618159955.16782,-33.72137,11.218940019607544
1618159955.18344,-52.30573,11.234560012817383
1618159955.19907,-72.77704,11.250190019607544
1618159955.21469,-91.81018,11.265810012817383
1618159955.23032,-105.8815,11.281440019607544
1618159955.24594,-112.8226,11.297060012817383
1618159955.26157,-112.772,11.312690019607544
1618159955.2772,-108.0676,11.328320026397705
1618159955.29282,-102.0595,11.343940019607544
1618159955.30845,-97.57587,11.359570026397705
1618159955.32407,-95.77747,11.375190019607544
1618159955.3397,-95.97736,11.390820026397705
1618159955.35532,-96.31842,11.406440019607544
1618159955.37095,-94.84344,11.422070026397705
1618159955.38658,-90.39771,11.437700033187866
1618159955.4022,-82.95062,11.453320026397705
1618159955.41783,-73.41864,11.468950033187866
1618159955.43345,-63.13422,11.484570026397705
1618159955.44908,-53.3208,11.500200033187866
1618159955.4647,-44.73206,11.515820026397705
1618159955.48033,-37.65204,11.531450033187866
1618159955.49596,-32.03644,11.547080039978027
1618159955.51158,-27.88885,11.562700033187866
1618159955.52721,-25.38507,11.578330039978027
1618159955.54283,-24.85077,11.593950033187866
1618159955.55846,-26.55273,11.609580039978027
1618159955.57408,-30.44226,11.625200033187866
1618159955.58971,-35.91943,11.640830039978027
1618159955.60534,-41.87549,11.656460046768188
1618159955.62096,-46.89093,11.672080039978027
1618159955.63659,-49.64215,11.687710046768188
1618159955.65221,-49.22253,11.703330039978027
1618159955.66784,-45.43384,11.718960046768188
1618159955.68346,-38.78809,11.734580039978027
1618159955.69909,-30.26361,11.750210046768188
1618159955.71472,-21.0412,11.76584005355835
1618159955.73034,-12.12903,11.781460046768188
1618159955.74597,-4.232605,11.79709005355835
1618159955.76159,2.278564,11.812710046768188
1618159955.77722,7.219238,11.82834005355835
1618159955.79284,10.41522,11.843960046768188
1618159955.80847,11.65271,11.85959005355835
1618159955.8241,10.81061,11.87522006034851
1618159955.83972,7.993042,11.89084005355835
1618159955.85535,3.683899,11.90647006034851
1618159955.87097,-1.29657,11.92209005355835
1618159955.8866,-5.985168,11.93772006034851
1618159955.90222,-9.598328,11.95334005355835
1618159955.91785,-11.73932,11.96897006034851
1618159955.93348,-12.49841,11.984600067138672
1618159955.9491,-12.26807,12.00022006034851
1618159955.96473,-11.4751,12.015850067138672
1618159955.98035,-10.41595,12.03147006034851
1618159955.99598,-9.144897,12.047100067138672
1618159956.0116,-7.57489,12.06272006034851
1618159956.02723,-5.691956,12.078350067138672
1618159956.04286,-3.715515,12.093980073928833
1618159956.05848,-2.145264,12.109600067138672
1618159956.07411,-1.643005,12.125230073928833
1618159956.08973,-2.733337,12.140850067138672
1618159956.10536,-5.452393,12.156480073928833
1618159956.12098,-9.172668,12.172100067138672
1618159956.13661,-12.62201,12.187730073928833
1618159956.15224,-14.21533,12.203360080718994
1618159956.16786,-12.63489,12.218980073928833
1618159956.18349,-7.297668,12.234610080718994
1618159956.19911,1.359863,12.250230073928833
1618159956.21474,11.96478,12.265860080718994
1618159956.23036,22.69067,12.281480073928833
1618159956.24599,31.80408,12.297110080718994
1618159956.26162,38.09967,12.312740087509155
1618159956.27724,41.09644,12.328360080718994
1618159956.29287,40.92053,12.343990087509155
1618159956.30849,38.05072,12.359610080718994
1618159956.32412,33.14178,12.375240087509155
1618159956.33974,26.89722,12.390860080718994
1618159956.35537,20.02295,12.406490087509155
1618159956.371,13.13782,12.422120094299316
1618159956.38662,6.726074,12.437740087509155
1618159956.40225,1.054504,12.453370094299316
1618159956.41787,-3.82489,12.468990087509155
1618159956.4335,-7.96106,12.484620094299316
1618159956.44912,-11.35443,12.500240087509155
1618159956.46475,-13.8642,12.515870094299316
1618159956.48038,-15.24896,12.531500101089478
1618159956.496,-15.33112,12.547120094299316
1618159956.51163,-14.18585,12.562750101089478
1618159956.52725,-12.26727,12.578370094299316
1618159956.54288,-10.28796,12.594000101089478
1618159956.5585,-9.060425,12.609620094299316
1618159956.57413,-9.224609,12.625250101089478
1618159956.58976,-11.11536,12.640880107879639
1618159956.60538,-14.65338,12.656500101089478
1618159956.62101,-19.39618,12.672130107879639
1618159956.63663,-24.59412,12.687750101089478
1618159956.65226,-29.27423,12.703380107879639
1618159956.66788,-32.46637,12.719000101089478
1618159956.68351,-33.35236,12.734630107879639
1618159956.69914,-31.53796,12.7502601146698
1618159956.71476,-27.12524,12.765880107879639
1618159956.73039,-20.67084,12.7815101146698
1618159956.74601,-13.02661,12.797130107879639
1618159956.76164,-5.072571,12.8127601146698
1618159956.77726,2.42041,12.828380107879639
1618159956.79289,8.85907,12.8440101146698
1618159956.80852,13.80322,12.859640121459961
1618159956.82414,16.9704,12.8752601146698
1618159956.83977,18.22534,12.890890121459961
1618159956.85539,17.6806,12.9065101146698
1618159956.87102,15.76501,12.922140121459961
1618159956.88665,13.13947,12.937770128250122
1618159956.90227,10.52905,12.953390121459961
1618159956.9179,8.429504,12.969020128250122
1618159956.93352,6.939087,12.984640121459961
1618159956.94915,5.786743,13.000270128250122
1618159956.96477,4.575806,13.015890121459961
1618159956.9804,2.989746,13.031520128250122
1618159956.99603,1.009033,13.047150135040283
1618159957.01165,-1.153442,13.062770128250122
1618159957.02728,-3.257568,13.078400135040283
1618159957.0429,-5.24585,13.094020128250122
1618159957.05853,-7.298096,13.109650135040283
1618159957.07415,-9.79541,13.125270128250122
1618159957.08978,-13.11572,13.140900135040283
1618159957.10541,-17.45142,13.156530141830444
1618159957.12103,-22.73425,13.172150135040283
1618159957.13666,-28.64795,13.187780141830444
1618159957.15228,-34.66418,13.203400135040283
1618159957.16791,-40.10364,13.219030141830444
1618159957.18353,-44.17126,13.234650135040283
1618159957.19916,-46.07324,13.250280141830444
1618159957.21479,-45.22424,13.265910148620605
1618159957.23041,-41.4624,13.281530141830444
1618159957.24604,-35.18591,13.297160148620605
1618159957.26166,-27.26123,13.312780141830444
1618159957.27729,-18.81506,13.328410148620605
1618159957.29291,-10.92407,13.344030141830444
1618159957.30854,-4.361938,13.359660148620605
1618159957.32417,0.5007324,13.375290155410767
1618159957.33979,3.656128,13.390910148620605
1618159957.35542,5.359619,13.406540155410767
1618159957.37104,5.952026,13.422160148620605
1618159957.38667,5.819214,13.437790155410767
1618159957.40229,5.386108,13.453410148620605
1618159957.41792,5.074463,13.469040155410767
1618159957.43355,5.278198,13.484669923782349
1618159957.44917,6.291992,13.500290155410767
1618159957.4648,8.183105,13.515919923782349
1618159957.48042,10.7605,13.531540155410767
1618159957.49605,13.59363,13.547169923782349
1618159957.51167,16.1261,13.562790155410767
1618159957.5273,17.86609,13.578419923782349
1618159957.54293,18.54211,13.59404993057251
1618159957.55855,18.19324,13.609669923782349
1618159957.57418,17.08643,13.62529993057251
1618159957.5898,15.57837,13.640919923782349
1618159957.60543,13.88928,13.65654993057251
1618159957.62105,11.99316,13.672169923782349
1618159957.63668,9.590698,13.68779993057251
1618159957.65231,6.243164,13.703429937362671
1618159957.66793,1.597168,13.71904993057251
1618159957.68356,-4.393066,13.734679937362671
1618159957.69918,-11.33337,13.75029993057251
1618159957.71481,-18.38464,13.765929937362671
1618159957.73043,-24.44141,13.78154993057251
1618159957.74606,-28.42444,13.797179937362671
1618159957.76169,-29.55444,13.812809944152832
1618159957.77731,-27.54871,13.828429937362671
1618159957.79294,-22.73694,13.844059944152832
1618159957.80856,-15.88928,13.859679937362671
1618159957.82419,-8.030029,13.875309944152832
1618159957.83981,-0.1668701,13.890929937362671
1618159957.85544,6.87854,13.906559944152832
1618159957.87107,12.57007,13.922189950942993
1618159957.88669,16.61267,13.937809944152832
1618159957.90232,18.86377,13.953439950942993
1618159957.91794,19.26111,13.969059944152832
1618159957.93357,17.78552,13.984689950942993
1618159957.94919,14.58093,14.000309944152832
1618159957.96482,10.03308,14.015939950942993
1618159957.98045,4.855469,14.031569957733154
1618159957.99607,-0.04638672,14.047189950942993
1618159958.0117,-3.805176,14.062819957733154
1618159958.02732,-5.926392,14.078439950942993
1618159958.04295,-6.449829,14.094069957733154
1618159958.05857,-5.896118,14.109689950942993
1618159958.0742,-5.070801,14.125319957733154
1618159958.08983,-4.640747,14.140949964523315
1618159958.10545,-4.9375,14.156569957733154
1618159958.12108,-5.842407,14.172199964523315
1618159958.1367,-6.968872,14.187819957733154
1618159958.15233,-7.894165,14.203449964523315
1618159958.16795,-8.421387,14.219069957733154
1618159958.18358,-8.681396,14.234699964523315
1618159958.19921,-9.04834,14.250329971313477
1618159958.21483,-10.02576,14.265949964523315
1618159958.23046,-12.04907,14.281579971313477
1618159958.24608,-15.30957,14.297199964523315
1618159958.26171,-19.63574,14.312829971313477
1618159958.27733,-24.42432,14.328449964523315
1618159958.29296,-28.70166,14.344079971313477
1618159958.30859,-31.29077,14.359709978103638
1618159958.32421,-31.12317,14.375329971313477
1618159958.33984,-27.53491,14.390959978103638
1618159958.35546,-20.54456,14.406579971313477
1618159958.37109,-10.94861,14.422209978103638
1618159958.38671,-0.1101074,14.437829971313477
1618159958.40234,10.36523,14.453459978103638
1618159958.41797,19.07947,14.469089984893799
1618159958.43359,25.17639,14.484709978103638
1618159958.44922,28.4491,14.500339984893799
1618159958.46484,29.22205,14.515959978103638
1618159958.48047,28.12915,14.531589984893799
1618159958.49609,25.78821,14.547209978103638
1618159958.51172,22.69543,14.562839984893799
1618159958.52735,19.21863,14.57846999168396
1618159958.54297,15.69055,14.594089984893799
1618159958.5586,12.46899,14.60971999168396
1618159958.57422,9.899414,14.625339984893799
1618159958.58985,8.158325,14.64096999168396
1618159958.60547,7.162354,14.656589984893799
1618159958.6211,6.611938,14.67221999168396
1618159958.63673,6.094727,14.687849998474121
1618159958.65235,5.310181,14.70346999168396
1618159958.66798,4.234985,14.719099998474121
1618159958.6836,3.042114,14.73471999168396
1618159958.69923,1.937012,14.750349998474121
1618159958.71485,1.026855,14.76596999168396
1618159958.73048,0.1367188,14.781599998474121
1618159958.74611,-1.099121,14.797230005264282
1618159958.76173,-3.032471,14.812849998474121
1618159958.77736,-5.91333,14.828480005264282
1618159958.79298,-9.807739,14.844099998474121
1618159958.80861,-14.59424,14.859730005264282
1618159958.82423,-20.03955,14.875349998474121
1618159958.83986,-25.73267,14.890980005264282
1618159958.85549,-30.97852,14.906610012054443
1618159958.87111,-34.85413,14.922230005264282
1618159958.88674,-36.37231,14.937860012054443
1618159958.90236,-34.70496,14.953480005264282
1618159958.91799,-29.61829,14.969110012054443
1618159958.93361,-21.61804,14.984730005264282
1618159958.94924,-11.88464,15.000360012054443
1618159958.96487,-1.936157,15.015990018844604
1618159958.98049,6.855713,15.031610012054443
1618159958.99612,13.6344,15.047240018844604
1618159959.01174,18.23047,15.062860012054443
1618159959.02737,20.91724,15.078490018844604
1618159959.04299,22.19861,15.094110012054443
1618159959.05862,22.44275,15.109740018844604
1618159959.07425,21.7998,15.125370025634766
1618159959.08987,20.27942,15.140990018844604
1618159959.1055,17.89978,15.156620025634766
1618159959.12112,14.91577,15.172240018844604
1618159959.13675,11.80029,15.187870025634766
1618159959.15237,9.140259,15.203490018844604
1618159959.168,7.366943,15.219120025634766
1618159959.18363,6.622925,15.234750032424927
1618159959.19925,6.632324,15.250370025634766
1618159959.21488,6.86731,15.266000032424927
1618159959.2305,6.840454,15.281620025634766
1618159959.24613,6.219482,15.297250032424927
1618159959.26175,5.01001,15.312870025634766
1618159959.27738,3.349243,15.328500032424927
1618159959.29301,1.409058,15.344130039215088
1618159959.30863,-0.7928467,15.359750032424927
1618159959.32426,-3.344849,15.375380039215088
1618159959.33988,-6.363647,15.391000032424927
1618159959.35551,-9.842285,15.406630039215088
1618159959.37114,-13.58862,15.422260046005249
1618159959.38676,-17.4093,15.437880039215088
1618159959.40239,-21.17395,15.453510046005249
1618159959.41801,-24.99146,15.469130039215088
1618159959.43364,-29.01294,15.484760046005249
1618159959.44926,-33.22815,15.500380039215088
1618159959.46489,-37.20471,15.516010046005249
1618159959.48052,-40.02441,15.53164005279541
1618159959.49614,-40.53003,15.547260046005249
1618159959.51177,-37.78967,15.56289005279541
1618159959.52739,-31.55908,15.578510046005249
1618159959.54302,-22.45715,15.59414005279541
1618159959.55864,-11.79846,15.609760046005249
1618159959.57427,-1.133423,15.62539005279541
1618159959.5899,8.255981,15.641020059585571
1618159959.60552,15.63452,15.65664005279541
1618159959.62115,20.78979,15.672270059585571
1618159959.63677,23.80444,15.68789005279541
1618159959.6524,24.8186,15.703520059585571
1618159959.66802,23.96533,15.71914005279541
1618159959.68365,21.48254,15.734770059585571
1618159959.69928,17.82318,15.750400066375732
1618159959.7149,13.66565,15.766020059585571
1618159959.73053,9.772766,15.781650066375732
1618159959.74615,6.762695,15.797270059585571
1618159959.76178,4.94989,15.812900066375732
1618159959.7774,4.305237,15.828520059585571
1618159959.79303,4.594238,15.844150066375732
1618159959.80866,5.514221,15.859780073165894
1618159959.82428,6.799133,15.875400066375732
1618159959.83991,8.177795,15.891030073165894
1618159959.85553,9.316589,15.906650066375732
1618159959.87116,9.848633,15.922280073165894
1618159959.88678,9.438904,15.937900066375732
1618159959.90241,7.964172,15.953530073165894
1618159959.91804,5.512451,15.969160079956055
1618159959.93366,2.353943,15.984780073165894
1618159959.94929,-1.16449,16.000410079956055
1618159959.96491,-4.775085,16.016030073165894
1618159959.98054,-8.34668,16.031660079956055
1618159959.99616,-11.82928,16.047280073165894
1618159960.01179,-15.23492,16.062910079956055
1618159960.02742,-18.63586,16.078540086746216
1618159960.04304,-22.13507,16.094160079956055
1618159960.05867,-25.87256,16.109790086746216
1618159960.07429,-29.87561,16.125410079956055
1618159960.08992,-33.93805,16.141040086746216
1618159960.10554,-37.45734,16.156660079956055
1618159960.12117,-39.49933,16.172290086746216
1618159960.1368,-38.97681,16.187920093536377
1618159960.15242,-35.0603,16.203540086746216
1618159960.16805,-27.49963,16.219170093536377
1618159960.18367,-16.85004,16.234790086746216
1618159960.1993,-4.387146,16.250420093536377
1618159960.21492,8.22168,16.266040086746216
1618159960.23055,19.33643,16.281670093536377
1618159960.24618,27.76129,16.297300100326538
1618159960.2618,32.92822,16.312920093536377
1618159960.27743,34.89679,16.328550100326538
1618159960.29305,34.15631,16.344170093536377
1618159960.30868,31.47931,16.359800100326538
1618159960.3243,27.75842,16.375420093536377
1618159960.33993,23.95001,16.391050100326538
1618159960.35556,21.02435,16.4066801071167
1618159960.37118,19.74152,16.422300100326538
1618159960.38681,20.45001,16.4379301071167
1618159960.40243,22.86456,16.453550100326538
1618159960.41806,26.09534,16.4691801071167
1618159960.43368,28.94598,16.484800100326538
1618159960.44931,30.32983,16.5004301071167
1618159960.46494,29.64294,16.51606011390686
1618159960.48056,26.90906,16.5316801071167
1618159960.49619,22.57886,16.54731011390686
1618159960.51181,17.27344,16.5629301071167
1618159960.52744,11.52441,16.57856011390686
1618159960.54306,5.698914,16.5941801071167
1618159960.55869,-0.002624512,16.60981011390686
1618159960.57432,-5.380859,16.62544012069702
1618159960.58994,-10.25427,16.64106011390686
1618159960.60557,-14.50647,16.65669012069702
1618159960.62119,-18.15674,16.67231011390686
1618159960.63682,-21.36536,16.68794012069702
1618159960.65244,-24.47485,16.70356011390686
1618159960.66807,-27.84033,16.71919012069702
1618159960.6837,-31.77026,16.734820127487183
1618159960.69932,-36.40186,16.75044012069702
1618159960.71495,-41.56891,16.766070127487183
1618159960.73057,-46.76117,16.78169012069702
1618159960.7462,-51.1441,16.797320127487183
1618159960.76182,-53.67169,16.81294012069702
1618159960.77745,-53.38818,16.828570127487183
1618159960.79308,-49.73468,16.844200134277344
1618159960.8087,-42.73547,16.859820127487183
1618159960.82433,-33.05225,16.875450134277344
1618159960.83995,-21.86536,16.891070127487183
1618159960.85558,-10.52545,16.906700134277344
1618159960.8712,-0.2753906,16.922320127487183
1618159960.88683,8.028259,16.937950134277344
1618159960.90246,14.05621,16.953580141067505
1618159960.91808,17.91895,16.969200134277344
1618159960.93371,19.97772,16.984830141067505
1618159960.94933,20.59027,17.000450134277344
1618159960.96496,20.01074,17.016080141067505
1618159960.98058,18.35309,17.031700134277344
1618159960.99621,15.7522,17.047330141067505
1618159961.01184,12.52039,17.062960147857666
1618159961.02746,9.213867,17.078580141067505
1618159961.04309,6.514526,17.094210147857666
1618159961.05871,4.973328,17.109830141067505
1618159961.07434,4.768311,17.125460147857666
1618159961.08996,5.617798,17.141080141067505
1618159961.10559,6.940735,17.156710147857666
1618159961.12122,8.077759,17.172340154647827
1618159961.13684,8.615295,17.187960147857666
1618159961.15247,8.401611,17.203590154647827
1618159961.16809,7.532471,17.219210147857666
1618159961.18372,6.154419,17.234840154647827
1618159961.19934,4.346863,17.250460147857666
1618159961.21497,2.160095,17.266090154647827
1618159961.2306,-0.2832031,17.28172016143799
1618159961.24622,-2.734497,17.297340154647827
1618159961.26185,-4.850037,17.31297016143799
1618159961.27747,-6.477661,17.328590154647827
1618159961.2931,-7.855652,17.34422016143799
1618159961.30872,-9.607117,17.359840154647827
1618159961.32435,-12.49683,17.37547016143799
1618159961.33998,-16.9198,17.39109992980957
1618159961.3556,-22.48431,17.40672016143799
1618159961.37123,-27.90002,17.42234992980957
1618159961.38685,-31.33496,17.43797016143799
1618159961.40248,-31.10742,17.45359992980957
1618159961.4181,-26.31323,17.46922016143799
1618159961.43373,-17.14026,17.48484992980957
1618159961.44936,-4.762634,17.50047993659973
1618159961.46498,9.117981,17.51609992980957
1618159961.48061,22.82373,17.53172993659973
1618159961.49623,34.97247,17.54734992980957
1618159961.51186,44.58173,17.56297993659973
1618159961.52748,50.95459,17.57859992980957
1618159961.54311,53.7251,17.59422993659973
1618159961.55874,52.90973,17.609859943389893
1618159961.57436,48.98138,17.62547993659973
1618159961.58999,42.86328,17.641109943389893
1618159961.60561,35.6792,17.65672993659973
1618159961.62124,28.40424,17.672359943389893
1618159961.63686,21.55835,17.68797993659973
1618159961.65249,15.15668,17.703609943389893
1618159961.66812,8.849304,17.719239950180054
1618159961.68374,2.253418,17.734859943389893
1618159961.69937,-4.823181,17.750489950180054
1618159961.71499,-12.3382,17.766109943389893
1618159961.73062,-20.12415,17.781739950180054
1618159961.74625,-28.05365,17.797369956970215
1618159961.76187,-36.05475,17.812989950180054
1618159961.7775,-43.98059,17.828619956970215
1618159961.79312,-51.45374,17.844239950180054
1618159961.80875,-57.80499,17.859869956970215
1618159961.82437,-62.26178,17.875489950180054
1618159961.84,-64.21063,17.891119956970215
1618159961.85563,-63.47827,17.906749963760376
1618159961.87125,-60.44263,17.922369956970215
1618159961.88688,-55.96503,17.937999963760376
1618159961.9025,-51.16925,17.953619956970215
1618159961.91813,-47.17468,17.969249963760376
1618159961.93375,-44.82037,17.984869956970215
1618159961.94938,-44.45868,18.000499963760376
1618159961.96501,-45.75427,18.016129970550537
1618159961.98063,-47.63135,18.031749963760376
1618159961.99626,-48.46765,18.047379970550537
1618159962.01188,-46.47241,18.062999963760376
1618159962.02751,-40.31927,18.078629970550537
1618159962.04313,-29.65704,18.094249963760376
1618159962.05876,-15.26648,18.109879970550537
1618159962.07439,1.075806,18.1255099773407
1618159962.09001,17.22247,18.141129970550537
1618159962.10564,31.31744,18.1567599773407
1618159962.12126,42.26733,18.172379970550537
1618159962.13689,49.80621,18.1880099773407
1618159962.15251,54.2793,18.203629970550537
1618159962.16814,56.22852,18.2192599773407
1618159962.18377,56.02826,18.23488998413086
1618159962.19939,53.79565,18.2505099773407
1618159962.21502,49.52588,18.26613998413086
1618159962.23064,43.31567,18.2817599773407
1618159962.24627,35.67596,18.29738998413086
1618159962.26189,27.50989,18.3130099773407
1618159962.27752,19.96533,18.32863998413086
1618159962.29315,14.04785,18.34426999092102
1618159962.30877,10.28375,18.35988998413086
1618159962.3244,8.564453,18.37551999092102
1618159962.34002,8.24884,18.39113998413086
1618159962.35565,8.51178,18.40676999092102
1618159962.37127,8.621643,18.42238998413086
1618159962.3869,8.281311,18.43801999092102
1618159962.40253,7.523682,18.45364999771118
1618159962.41815,6.570557,18.46926999092102
1618159962.43378,5.614868,18.48489999771118
1618159962.4494,4.652649,18.50051999092102
1618159962.46503,3.46106,18.51614999771118
1618159962.48065,1.74646,18.53176999092102
1618159962.49628,-0.7386475,18.54739999771118
1618159962.51191,-4.133911,18.563030004501343
1618159962.52753,-8.484497,18.57864999771118
1618159962.54316,-13.80127,18.594280004501343
1618159962.55878,-20.0152,18.60989999771118
1618159962.57441,-26.91522,18.625530004501343
1618159962.59003,-33.89551,18.64114999771118
1618159962.60566,-39.90857,18.656780004501343
1618159962.62129,-43.55371,18.672410011291504
1618159962.63691,-43.41681,18.688030004501343
1618159962.65254,-38.65472,18.703660011291504
1618159962.66816,-29.30127,18.719280004501343
1618159962.68379,-16.47131,18.734910011291504
1618159962.69941,-1.988586,18.750530004501343
1618159962.71504,12.12714,18.766160011291504
1618159962.73067,24.23535,18.781790018081665
1618159962.74629,33.39441,18.797410011291504
1618159962.76192,39.37823,18.813040018081665
1618159962.77754,42.45319,18.828660011291504
1618159962.79317,42.98804,18.844290018081665
1618159962.80879,41.31708,18.859910011291504
1618159962.82442,37.61652,18.875540018081665
1618159962.84005,32.11237,18.891170024871826
1618159962.85567,25.31317,18.906790018081665
1618159962.8713,18.0835,18.922420024871826
1618159962.88692,11.70667,18.938040018081665
1618159962.90255,7.595703,18.953670024871826
1618159962.91817,6.913391,18.969290018081665
1618159962.9338,10.05511,18.984920024871826
1618159962.94943,16.46283,19.000550031661987
1618159962.96505,24.69147,19.016170024871826
1618159962.98068,32.90485,19.031800031661987
1618159962.9963,39.51404,19.047420024871826
1618159963.01193,43.70648,19.063050031661987
1618159963.02755,45.5011,19.078670024871826
1618159963.04318,45.4566,19.094300031661987
1618159963.05881,44.18298,19.10993003845215
1618159963.07443,41.93951,19.125550031661987
1618159963.09006,38.61023,19.14118003845215
1618159963.10568,33.95502,19.156800031661987
1618159963.12131,27.9397,19.17243003845215
1618159963.13693,20.89587,19.188050031661987
1618159963.15256,13.31781,19.20368003845215
1618159963.16819,5.632935,19.21931004524231
1618159963.18381,-2.014648,19.23493003845215
1618159963.19944,-9.581543,19.25056004524231
1618159963.21506,-16.8421,19.26618003845215
1618159963.23069,-23.00543,19.28181004524231
1618159963.24631,-26.73804,19.29743003845215
1618159963.26194,-26.63782,19.31306004524231
1618159963.27757,-21.85022,19.32869005203247
1618159963.29319,-12.65497,19.34431004524231
1618159963.30882,-0.4854736,19.35994005203247
1618159963.32444,12.49072,19.37556004524231
1618159963.34007,24.16376,19.39119005203247
1618159963.35569,33.12177,19.40681004524231
1618159963.37132,38.89954,19.42244005203247
1618159963.38695,41.72168,19.438070058822632
1618159963.40257,42.08014,19.45369005203247
1618159963.4182,40.32983,19.469320058822632
1618159963.43382,36.64642,19.48494005203247
1618159963.44945,31.23944,19.500570058822632
1618159963.46507,24.56042,19.51619005203247
1618159963.4807,17.40015,19.531820058822632
1618159963.49633,10.58038,19.547450065612793
1618159963.51195,4.725708,19.563070058822632
1618159963.52758,-0.07000732,19.578700065612793
1618159963.5432,-4.139587,19.594320058822632
1618159963.55883,-8.047699,19.609950065612793
1618159963.57445,-12.29672,19.625570058822632
1618159963.59008,-17.1965,19.641200065612793
1618159963.60571,-22.96255,19.656830072402954
1618159963.62133,-29.76044,19.672450065612793
1618159963.63696,-37.89117,19.688080072402954
1618159963.65258,-47.66812,19.703700065612793
1618159963.66821,-59.25641,19.719330072402954
1618159963.68383,-72.41016,19.734950065612793
1618159963.69946,-86.42642,19.750580072402954
1618159963.71509,-100.373,19.766210079193115
1618159963.73071,-113.4593,19.781830072402954
1618159963.74634,-125.4772,19.797460079193115
1618159963.76196,-136.8389,19.813080072402954
1618159963.77759,-148.2334,19.828710079193115
1618159963.79321,-160.037,19.844330072402954
1618159963.80884,-171.6198,19.859960079193115
1618159963.82447,-181.118,19.875590085983276
1618159963.84009,-185.7594,19.891210079193115
1618159963.85572,-182.7688,19.906840085983276
1618159963.87134,-170.3922,19.922460079193115
1618159963.88697,-148.6964,19.938090085983276
1618159963.90259,-119.5759,19.953710079193115
1618159963.91822,-86.18845,19.969340085983276
1618159963.93385,-51.99524,19.984970092773438
1618159963.94947,-19.88718,20.000590085983276
1618159963.9651,8.224731,20.016220092773438
1618159963.98072,31.5213,20.031840085983276
1618159963.99635,49.94983,20.047470092773438
1618159964.01198,64.11353,20.0631000995636
1618159964.0276,75.11282,20.078720092773438
1618159964.04323,84.53214,20.0943500995636
1618159964.05885,94.29425,20.109970092773438
1618159964.07448,106.2456,20.1256000995636
1618159964.0901,121.5373,20.141220092773438
1618159964.10573,140.102,20.1568500995636
1618159964.12136,160.4214,20.17248010635376
1618159964.13698,179.8626,20.1881000995636
1618159964.15261,195.4586,20.20373010635376
1618159964.16823,204.8844,20.2193500995636
1618159964.18386,207.2099,20.23498010635376
1618159964.19948,203.15,20.2506000995636
1618159964.21511,194.668,20.26623010635376
1618159964.23074,184.1818,20.28186011314392
1618159964.24636,173.6802,20.29748010635376
1618159964.26199,164.1527,20.31311011314392
1618159964.27761,155.5258,20.32873010635376
1618159964.29324,147.0667,20.34436011314392
1618159964.30886,138.0125,20.35998010635376
1618159964.32449,128.0369,20.37561011314392
1618159964.34012,117.4694,20.391240119934082
1618159964.35574,107.0506,20.40686011314392
1618159964.37137,97.46323,20.422490119934082
1618159964.38699,88.95401,20.43811011314392
1618159964.40262,81.17114,20.453740119934082
1618159964.41824,73.23807,20.46936011314392
1618159964.43387,64.04504,20.484990119934082
1618159964.4495,52.5239,20.500620126724243
1618159964.46512,37.81433,20.516240119934082
1618159964.48075,19.70444,20.531870126724243
1618159964.49637,-1.085541,20.547490119934082
1618159964.512,-22.49402,20.563120126724243
1618159964.52762,-41.10178,20.578740119934082
1618159964.54325,-52.82422,20.594370126724243
1618159964.55888,-54.36084,20.610000133514404
1618159964.5745,-44.83722,20.625620126724243
1618159964.59013,-26.73593,20.641250133514404
1618159964.60575,-5.505615,20.656870126724243
1618159964.62138,12.29855,20.672500133514404
1618159964.637,21.40265,20.688120126724243
1618159964.65263,19.62213,20.703750133514404
1618159964.66826,8.241547,20.719380140304565
1618159964.68388,-9.132416,20.735000133514404
1618159964.69951,-28.47006,20.750630140304565
1618159964.71513,-46.91489,20.766250133514404
1618159964.73076,-63.3158,20.781880140304565
1618159964.74638,-77.85889,20.797500133514404
1618159964.76201,-91.07428,20.813130140304565
1618159964.77764,-103.2172,20.828760147094727
1618159964.79326,-114.0712,20.844380140304565
1618159964.80889,-123.2631,20.860010147094727
1618159964.82451,-130.6379,20.875630140304565
1618159964.84014,-136.4536,20.891260147094727
1618159964.85576,-141.2715,20.906880140304565
1618159964.87139,-145.7546,20.922510147094727
1618159964.88702,-150.4687,20.938140153884888
1618159964.90264,-155.7847,20.953760147094727
1618159964.91827,-161.8467,20.969390153884888
1618159964.93389,-168.5676,20.985010147094727
1618159964.94952,-175.6214,21.000640153884888
1618159964.96514,-182.3962,21.016260147094727
1618159964.98077,-187.9468,21.031890153884888
1618159964.9964,-190.9327,21.04752016067505
1618159965.01202,-189.7793,21.063140153884888
1618159965.02765,-182.9896,21.07877016067505
1618159965.04327,-169.6444,21.094390153884888
1618159965.0589,-149.8136,21.11002016067505
1618159965.07452,-124.814,21.125640153884888
1618159965.09015,-96.94046,21.14127016067505
1618159965.10578,-68.99567,21.15689992904663
1618159965.1214,-43.53909,21.17252016067505
1618159965.13703,-22.29916,21.18814992904663
1618159965.15265,-5.988586,21.20377016067505
1618159965.16828,5.594727,21.21939992904663
1618159965.1839,13.19745,21.23502016067505
1618159965.19953,17.73016,21.25064992904663
1618159965.21516,19.94818,21.266279935836792
1618159965.23078,20.50089,21.28189992904663
1618159965.24641,19.92017,21.297529935836792
1618159965.26203,18.77335,21.31314992904663
1618159965.27766,17.7717,21.328779935836792
1618159965.29328,17.51547,21.34439992904663
1618159965.30891,18.36313,21.360029935836792
1618159965.32454,20.2233,21.375659942626953
1618159965.34016,22.56248,21.391279935836792
1618159965.35579,24.55211,21.406909942626953
1618159965.37141,25.46761,21.422529935836792
1618159965.38704,24.95239,21.438159942626953
1618159965.40266,23.11293,21.453779935836792
1618159965.41829,20.48363,21.469409942626953
1618159965.43392,17.60185,21.485039949417114
1618159965.44954,14.71985,21.500659942626953
1618159965.46517,11.66393,21.516289949417114
1618159965.48079,7.890701,21.531909942626953
1618159965.49642,2.70845,21.547539949417114
1618159965.51204,-4.342285,21.563159942626953
1618159965.52767,-13.32068,21.578789949417114
1618159965.5433,-23.78401,21.594419956207275
1618159965.55892,-34.60691,21.610039949417114
1618159965.57455,-44.16605,21.625669956207275
1618159965.59017,-50.43397,21.641289949417114
1618159965.6058,-51.44096,21.656919956207275
1618159965.62142,-45.82644,21.672539949417114
1618159965.63705,-33.38179,21.688169956207275
1618159965.65268,-15.2638,21.703799962997437
1618159965.6683,6.206055,21.719419956207275
1618159965.68393,28.11473,21.735049962997437
1618159965.69955,47.846,21.750669956207275
1618159965.71518,63.60751,21.766299962997437
1618159965.7308,74.71138,21.781919956207275
1618159965.74643,81.33137,21.797549962997437
1618159965.76206,84.04121,21.813179969787598
1618159965.77768,83.43636,21.828799962997437
1618159965.79331,80.02766,21.844429969787598
1618159965.80893,74.2822,21.860049962997437
1618159965.82456,66.80624,21.875679969787598
1618159965.84018,58.54625,21.891299962997437
1618159965.85581,50.59489,21.906929969787598
1618159965.87144,43.98982,21.92255997657776
1618159965.88706,39.42052,21.938179969787598
1618159965.90269,36.98146,21.95380997657776
1618159965.91831,36.18773,21.969429969787598
1618159965.93394,36.17216,21.98505997657776
1618159965.94956,35.94106,22.000679969787598
1618159965.96519,34.70216,22.01630997657776
1618159965.98082,32.14172,22.03193998336792
1618159965.99644,28.37628,22.04755997657776
1618159966.01207,23.87517,22.06318998336792
1618159966.02769,19.17174,22.07880997657776
1618159966.04332,14.58389,22.09443998336792
1618159966.05894,10.07037,22.11005997657776
1618159966.07457,5.270706,22.12568998336792
1618159966.0902,-0.4195557,22.14131999015808
1618159966.10582,-7.595291,22.15693998336792
1618159966.12145,-16.61069,22.17256999015808
1618159966.13707,-27.45512,22.18818998336792
1618159966.1527,-39.48328,22.20381999015808
1618159966.16832,-51.36282,22.21943998336792
1618159966.18395,-61.16919,22.23506999015808
1618159966.19958,-66.69925,22.250699996948242
1618159966.2152,-66.03307,22.26631999015808
1618159966.23083,-58.18684,22.281949996948242
1618159966.24645,-43.46896,22.29756999015808
1618159966.26208,-23.573,22.313199996948242
1618159966.2777,-1.140045,22.32881999015808
1618159966.29333,20.94653,22.344449996948242
1618159966.30896,40.24304,22.360080003738403
1618159966.32458,55.15784,22.375699996948242
1618159966.34021,65.00375,22.391330003738403
1618159966.35583,69.89337,22.406949996948242
1618159966.37146,70.40244,22.422580003738403
1618159966.38708,67.3765,22.438199996948242
1618159966.40271,61.77444,22.453830003738403
1618159966.41834,54.55835,22.469460010528564
1618159966.43396,46.70874,22.485080003738403
1618159966.44959,39.16959,22.500710010528564
1618159966.46521,32.7746,22.516330003738403
1618159966.48084,28.16415,22.531960010528564
1618159966.49646,25.63638,22.547580003738403
1618159966.51209,25.08051,22.563210010528564
1618159966.52772,25.85605,22.578840017318726
1618159966.54334,26.98782,22.594460010528564
1618159966.55897,27.41171,22.610090017318726
1618159966.57459,26.39227,22.625710010528564
1618159966.59022,23.70193,22.641340017318726
1618159966.60585,19.67294,22.656970024108887
1618159966.62147,14.90579,22.672590017318726
1618159966.6371,9.885773,22.688220024108887
1618159966.65272,4.763702,22.703840017318726
1618159966.66835,-0.7592163,22.719470024108887
1618159966.68397,-7.183441,22.735090017318726
1618159966.6996,-14.92136,22.750720024108887
1618159966.71523,-24.06491,22.766350030899048
1618159966.73085,-34.43024,22.781970024108887
1618159966.74648,-45.44647,22.797600030899048
1618159966.7621,-56.27414,22.813220024108887
1618159966.77773,-65.70663,22.828850030899048
1618159966.79335,-72.21487,22.844470024108887
1618159966.80898,-74.1236,22.860100030899048
1618159966.82461,-70.04276,22.87573003768921
1618159966.84023,-59.38818,22.891350030899048
1618159966.85586,-42.74454,22.90698003768921
1618159966.87148,-21.96826,22.922600030899048
1618159966.88711,0.3110962,22.93823003768921
1618159966.90273,21.32874,22.953850030899048
1618159966.91836,38.88824,22.96948003768921
1618159966.93399,51.77539,22.98511004447937
1618159966.94961,59.80511,23.00073003768921
1618159966.96524,63.47241,23.01636004447937
1618159966.98086,63.62866,23.03198003768921
1618159966.99649,61.0896,23.04761004447937
1618159967.01211,56.54633,23.06323003768921
1618159967.02774,50.64801,23.07886004447937
1618159967.04337,44.11169,23.09449005126953
1618159967.05899,37.74066,23.11011004447937
1618159967.07462,32.39832,23.12574005126953
1618159967.09024,28.80756,23.14136004447937
1618159967.10587,27.21594,23.15699005126953
1618159967.12149,27.35681,23.17261004447937
1618159967.13712,28.41315,23.18824005126953
1618159967.15275,29.30688,23.203870058059692
1618159967.16837,29.07935,23.21949005126953
1618159967.184,27.17157,23.235120058059692
1618159967.19962,23.59851,23.25074005126953
1618159967.21525,18.8728,23.266370058059692
1618159967.23087,13.73083,23.28199005126953
1618159967.2465,8.743225,23.297620058059692
1618159967.26213,4.138306,23.313250064849854
1618159967.27775,-0.2872314,23.328870058059692
1618159967.29338,-5.052124,23.344500064849854
1618159967.309,-10.71936,23.360120058059692
1618159967.32463,-17.74915,23.375750064849854
1618159967.34025,-26.29797,23.391370058059692
1618159967.35588,-36.00195,23.407000064849854
1618159967.37151,-45.90857,23.422630071640015
1618159967.38713,-54.44965,23.438250064849854
1618159967.40276,-59.62408,23.453880071640015
1618159967.41838,-59.43115,23.469500064849854
1618159967.43401,-52.55286,23.485130071640015
1618159967.44963,-38.84985,23.500750064849854
1618159967.46526,-19.72455,23.516380071640015
1618159967.48089,2.187439,23.532010078430176
1618159967.49651,23.75299,23.547630071640015
1618159967.51214,42.2558,23.563260078430176
1618159967.52776,56.06506,23.578880071640015
1618159967.54339,64.87061,23.594510078430176
1618159967.55901,69.33691,23.610130071640015
1618159967.57464,70.46783,23.625760078430176
1618159967.59027,69.16357,23.641390085220337
1618159967.60589,66.02216,23.657010078430176
1618159967.62152,61.46857,23.672640085220337
1618159967.63714,56.04126,23.688260078430176
1618159967.65277,50.46448,23.703890085220337
1618159967.66839,45.53564,23.719510078430176
1618159967.68402,41.87939,23.735140085220337
1618159967.69965,39.73352,23.750770092010498
1618159967.71527,38.89215,23.766390085220337
1618159967.7309,38.8623,23.782020092010498
1618159967.74652,39.0766,23.797640085220337
1618159967.76215,39.02887,23.813270092010498
1618159967.77777,38.37213,23.828890085220337
1618159967.7934,36.88605,23.844520092010498
1618159967.80903,34.46716,23.86015009880066
1618159967.82465,31.11792,23.875770092010498
1618159967.84028,26.91998,23.89140009880066
1618159967.8559,22.01514,23.907020092010498
1618159967.87153,16.53754,23.92265009880066
1618159967.88715,10.56879,23.938270092010498
1618159967.90278,4.091614,23.95390009880066
1618159967.91841,-2.968445,23.96953010559082
1618159967.93403,-10.77209,23.98515009880066
1618159967.94966,-19.3833,24.00078010559082
1618159967.96528,-28.64355,24.01640009880066
1618159967.98091,-37.94208,24.03203010559082
1618159967.99653,-46.07678,24.04765009880066
1618159968.01216,-51.33118,24.06328010559082
1618159968.02779,-51.89441,24.07891011238098
1618159968.04341,-46.54266,24.09453010559082
1618159968.05904,-35.15167,24.11016011238098
1618159968.07466,-18.95825,24.12578010559082
1618159968.09029,-0.2699585,24.14141011238098
1618159968.10591,18.20337,24.15703010559082
1618159968.12154,34.099,24.17266011238098
1618159968.13717,45.96643,24.188290119171143
1618159968.15279,53.42682,24.20391011238098
1618159968.16842,56.88953,24.219540119171143
1618159968.18404,57.13757,24.23516011238098
1618159968.19967,54.98163,24.250790119171143
1618159968.21529,51.09271,24.26641011238098
1618159968.23092,45.93347,24.282040119171143
1618159968.24655,40.01556,24.297670125961304
1618159968.26217,33.88568,24.313290119171143
1618159968.2778,28.18671,24.328920125961304
1618159968.29342,23.55914,24.344540119171143
1618159968.30905,20.51532,24.360170125961304
1618159968.32467,19.2265,24.375790119171143
1618159968.3403,19.50244,24.391420125961304
1618159968.35593,20.80725,24.407050132751465
1618159968.37155,22.33478,24.422670125961304
1618159968.38718,23.26111,24.438300132751465
1618159968.4028,22.92456,24.453920125961304
1618159968.41843,20.98145,24.469550132751465
1618159968.43405,17.47894,24.485170125961304
1618159968.44968,12.83875,24.500800132751465
1618159968.46531,7.671753,24.516430139541626
1618159968.48093,2.564941,24.532050132751465
1618159968.49656,-2.140869,24.547680139541626
1618159968.51218,-6.479553,24.563300132751465
1618159968.52781,-10.78442,24.578930139541626
1618159968.54343,-15.61371,24.594550132751465
1618159968.55906,-21.48352,24.610180139541626
1618159968.57469,-28.67383,24.625810146331787
1618159968.59031,-36.95917,24.641430139541626
1618159968.60594,-45.46814,24.657060146331787
1618159968.62156,-52.75598,24.672680139541626
1618159968.63719,-56.98846,24.688310146331787
1618159968.65281,-56.45868,24.703930139541626
1618159968.66844,-50.06506,24.719560146331787
1618159968.68407,-37.888,24.73519015312195
1618159968.69969,-21.24677,24.750810146331787
1618159968.71532,-2.432129,24.76644015312195
1618159968.73094,15.90784,24.782060146331787
1618159968.74657,31.52246,24.79769015312195
1618159968.76219,43.0733,24.813310146331787
1618159968.77782,50.21277,24.82894015312195
1618159968.79345,53.3736,24.84457015991211
1618159968.80907,53.43268,24.86019015312195
1618159968.8247,51.25024,24.87582015991211
1618159968.84032,47.57336,24.89144015312195
1618159968.85595,43.01233,24.90707015991211
1618159968.87158,38.10181,24.92269992828369
1618159968.8872,33.33667,24.93832015991211
1618159968.90283,29.1311,24.95394992828369
1618159968.91845,25.78772,24.96957015991211
1618159968.93408,23.37823,24.98519992828369
1618159968.9497,21.83673,25.00082015991211
1618159968.96533,20.96143,25.01644992828369
1618159968.98096,20.54327,25.032079935073853
1618159968.99658,20.36853,25.04769992828369
1618159969.01221,20.23901,25.063329935073853
1618159969.02783,19.88818,25.07894992828369
1618159969.04346,19.01105,25.094579935073853
1618159969.05908,17.37488,25.11019992828369
1618159969.07471,14.75476,25.125829935073853
1618159969.09034,11.15039,25.141459941864014
1618159969.10596,6.700928,25.157079935073853
1618159969.12159,1.69458,25.172709941864014
1618159969.13721,-3.512329,25.188329935073853
1618159969.15284,-8.577637,25.203959941864014
1618159969.16846,-13.27606,25.219579935073853
1618159969.18409,-17.56512,25.235209941864014
1618159969.19972,-21.58722,25.250839948654175
1618159969.21534,-25.71136,25.266459941864014
1618159969.23097,-30.22803,25.282089948654175
1618159969.24659,-35.13818,25.297709941864014
1618159969.26222,-39.80835,25.313339948654175
1618159969.27784,-42.99329,25.328959941864014
1618159969.29347,-43.0835,25.344589948654175
1618159969.3091,-38.68353,25.360219955444336
1618159969.32472,-29.27881,25.375839948654175
1618159969.34035,-15.50946,25.391469955444336
1618159969.35597,0.8321533,25.407089948654175
1618159969.3716,17.46326,25.422719955444336
1618159969.38722,32.26642,25.438339948654175
1618159969.40285,43.87109,25.453969955444336
1618159969.41848,51.81384,25.469599962234497
1618159969.4341,56.34149,25.485219955444336
1618159969.44973,58.04895,25.500849962234497
1618159969.46535,57.51471,25.516469955444336
1618159969.48098,55.23889,25.532099962234497
1618159969.4966,51.65509,25.547719955444336
1618159969.51223,47.33826,25.563349962234497
1618159969.52786,43.02612,25.578979969024658
1618159969.54348,39.52417,25.594599962234497
1618159969.55911,37.53101,25.610229969024658
1618159969.57473,37.37219,25.625849962234497
1618159969.59036,39.00287,25.641479969024658
1618159969.60598,41.91296,25.657099962234497
1618159969.62161,45.37891,25.672729969024658
1618159969.63724,48.58502,25.68835997581482
1618159969.65286,50.89679,25.703979969024658
1618159969.66849,51.95721,25.71960997581482
1618159969.68411,51.78918,25.735229969024658
1618159969.69974,50.71509,25.75085997581482
1618159969.71536,49.13153,25.766479969024658
1618159969.73099,47.26971,25.78210997581482
1618159969.74662,44.97101,25.79773998260498
1618159969.76224,41.77283,25.81335997581482
1618159969.77787,37.12933,25.82898998260498
1618159969.79349,30.75189,25.84460997581482
1618159969.80912,22.72357,25.86023998260498
1618159969.82474,13.42322,25.87585997581482
1618159969.84037,3.357117,25.89148998260498
1618159969.856,-7.023682,25.90711998939514
1618159969.87162,-17.05823,25.92273998260498
1618159969.88725,-25.69034,25.93836998939514
1618159969.90287,-31.3114,25.95398998260498
1618159969.9185,-32.06384,25.96961998939514
1618159969.93412,-26.4957,25.98523998260498
1618159969.94975,-14.32297,26.00086998939514
1618159969.96538,3.19516,26.016499996185303
1618159969.981,23.508,26.03211998939514
1618159969.99663,43.53528,26.047749996185303
1618159970.01225,60.70728,26.06336998939514
1618159970.02788,73.60489,26.078999996185303
1618159970.0435,82.02438,26.09461998939514
1618159970.05913,86.58908,26.110249996185303
1618159970.07476,88.19629,26.125880002975464
1618159970.09038,87.63589,26.141499996185303
1618159970.10601,85.48621,26.157130002975464
1618159970.12163,82.22211,26.172749996185303
1618159970.13726,78.30029,26.188380002975464
1618159970.15288,74.14865,26.203999996185303
1618159970.16851,70.02585,26.219630002975464
1618159970.18414,65.83749,26.235260009765625
1618159970.19976,61.10068,26.250880002975464
1618159970.21539,55.16983,26.266510009765625
1618159970.23101,47.67761,26.282130002975464
1618159970.24664,39.01529,26.297760009765625
1618159970.26226,30.40924,26.313380002975464
1618159970.27789,23.47571,26.329010009765625
1618159970.29352,19.49594,26.344640016555786
1618159970.30914,18.60486,26.360260009765625
1618159970.32477,19.50639,26.375890016555786
1618159970.34039,19.83,26.391510009765625
1618159970.35602,17.05545,26.407140016555786
1618159970.37164,9.471191,26.422760009765625
1618159970.38727,-3.168823,26.438390016555786
1618159970.4029,-19.7074,26.454020023345947
1618159970.41852,-38.00214,26.469640016555786
1618159970.43415,-55.44983,26.485270023345947
1618159970.44977,-69.47436,26.500890016555786
1618159970.4654,-77.96507,26.516520023345947
1618159970.48102,-79.84078,26.532140016555786
1618159970.49665,-75.66483,26.547770023345947
1618159970.51228,-67.85136,26.56340003013611
1618159970.5279,-60.00832,26.579020023345947
1618159970.54353,-55.66416,26.59465003013611
1618159970.55915,-56.84646,26.610270023345947
1618159970.57478,-63.18592,26.62590003013611
1618159970.5904,-72.36134,26.641520023345947
1618159970.60603,-81.36664,26.65715003013611
1618159970.62166,-87.97041,26.67278003692627
1618159970.63728,-91.49771,26.68840003013611
1618159970.65291,-92.69992,26.70403003692627
1618159970.66853,-92.6983,26.71965003013611
1618159970.68416,-92.21338,26.73528003692627
1618159970.69978,-91.2453,26.75090003013611
1618159970.71541,-89.43724,26.76653003692627
1618159970.73104,-86.7949,26.78216004371643
1618159970.74666,-83.93335,26.79778003692627
1618159970.76229,-81.85413,26.81341004371643
1618159970.77791,-81.34879,26.82903003692627
1618159970.79354,-82.61188,26.84466004371643
1618159970.80916,-85.04353,26.86028003692627
1618159970.82479,-87.59686,26.87591004371643
1618159970.84042,-89.21835,26.891540050506592
1618159970.85604,-89.14177,26.90716004371643
1618159970.87167,-87.1427,26.922790050506592
1618159970.88729,-83.48499,26.93841004371643
1618159970.90292,-78.78177,26.954040050506592
1618159970.91854,-73.77068,26.96966004371643
1618159970.93417,-69.15919,26.985290050506592
1618159970.9498,-65.38408,27.000920057296753
1618159970.96542,-62.61278,27.016540050506592
1618159970.98105,-60.74875,27.032170057296753
1618159970.99667,-59.53745,27.047790050506592
1618159971.0123,-58.70914,27.063420057296753
1618159971.02793,-58.08751,27.079050064086914
1618159971.04355,-57.58134,27.094670057296753
1618159971.05918,-57.20894,27.110300064086914
1618159971.0748,-57.03273,27.125920057296753
1618159971.09043,-57.13829,27.141550064086914
1618159971.10605,-57.7565,27.157170057296753
1618159971.12168,-59.17799,27.172800064086914
1618159971.13731,-61.56641,27.188430070877075
1618159971.15293,-64.74532,27.204050064086914
1618159971.16856,-67.88033,27.219680070877075
1618159971.18418,-69.52451,27.235300064086914
1618159971.19981,-68.01903,27.250930070877075
1618159971.21543,-62.03439,27.266550064086914
1618159971.23106,-51.11043,27.282180070877075
1618159971.24669,-35.91312,27.297810077667236
1618159971.26231,-18.06009,27.313430070877075
1618159971.27794,0.342392,27.329060077667236
1618159971.29356,17.18571,27.344680070877075
1618159971.30919,30.9277,27.360310077667236
1618159971.32481,40.79439,27.375930070877075
1618159971.34044,46.73723,27.391560077667236
1618159971.35607,49.23907,27.407190084457397
1618159971.37169,49.01508,27.422810077667236
1618159971.38732,46.74442,27.438440084457397
1618159971.40294,42.95618,27.454060077667236
1618159971.41857,38.07364,27.469690084457397
1618159971.43419,32.4639,27.485310077667236
1618159971.44982,26.57581,27.500940084457397
1618159971.46545,20.95439,27.51657009124756
1618159971.48107,16.13873,27.532190084457397
1618159971.4967,12.44389,27.54782009124756
1618159971.51232,9.922485,27.563440084457397
1618159971.52795,8.292938,27.57907009124756
1618159971.54357,7.112167,27.594690084457397
1618159971.5592,5.897057,27.61032009124756
1618159971.57483,4.228073,27.62595009803772
1618159971.59045,1.888466,27.64157009124756
1618159971.60608,-1.147148,27.65720009803772
1618159971.6217,-4.711067,27.67282009124756
1618159971.63733,-8.502449,27.68845009803772
1618159971.65295,-12.19843,27.70407009124756
1618159971.66858,-15.57554,27.71970009803772
1618159971.68421,-18.60702,27.73533010482788
1618159971.69983,-21.54529,27.75095009803772
1618159971.71546,-24.83284,27.76658010482788
1618159971.73108,-28.97332,27.78220009803772
1618159971.74671,-34.32581,27.79783010482788
1618159971.76233,-40.80896,27.81345009803772
1618159971.77796,-47.74003,27.82908010482788
1618159971.79359,-53.80681,27.844710111618042
1618159971.80921,-57.33469,27.86033010482788
1618159971.82484,-56.66452,27.875960111618042
1618159971.84046,-50.71952,27.89158010482788
1618159971.85609,-39.39422,27.907210111618042
1618159971.87171,-23.74875,27.92283010482788
1618159971.88734,-5.752922,27.938460111618042
1618159971.90297,12.23918,27.954090118408203
1618159971.91859,28.15037,27.969710111618042
1618159971.93422,40.69865,27.985340118408203
1618159971.94984,49.47708,28.000960111618042
1618159971.96547,54.80402,28.016590118408203
1618159971.98109,57.28188,28.032210111618042
1618159971.99672,57.3903,28.047840118408203
1618159972.01235,55.35676,28.063470125198364
1618159972.02797,51.24506,28.079090118408203
1618159972.0436,45.30614,28.094720125198364
1618159972.05922,38.14529,28.110340118408203
1618159972.07485,30.73429,28.125970125198364
1618159972.09047,24.08709,28.141590118408203
1618159972.1061,18.82682,28.157220125198364
1618159972.12173,14.99662,28.172850131988525
1618159972.13735,12.07009,28.188470125198364
1618159972.15298,9.219593,28.204100131988525
1618159972.1686,5.706635,28.219720125198364
1618159972.18423,1.15007,28.235350131988525
1618159972.19985,-4.451525,28.250970125198364
1618159972.21548,-10.7775,28.266600131988525
1618159972.23111,-17.39251,28.282230138778687
1618159972.24673,-23.8756,28.297850131988525
1618159972.26236,-29.86286,28.313480138778687
1618159972.27798,-35.08553,28.329100131988525
1618159972.29361,-39.36271,28.344730138778687
1618159972.30923,-42.67014,28.360350131988525
1618159972.32486,-45.07838,28.375980138778687
1618159972.34049,-46.86392,28.391610145568848
1618159972.35611,-48.42344,28.407230138778687
1618159972.37174,-50.24837,28.422860145568848
1618159972.38736,-52.81094,28.438480138778687
1618159972.40299,-56.34203,28.454110145568848
1618159972.41861,-60.57104,28.469730138778687
1618159972.43424,-64.50983,28.485360145568848
1618159972.44987,-66.53378,28.50099015235901
1618159972.46549,-64.7552,28.516610145568848
1618159972.48112,-57.7578,28.53224015235901
1618159972.49674,-45.23843,28.547860145568848
1618159972.51237,-28.29781,28.56349015235901
1618159972.52799,-9.209839,28.579110145568848
1618159972.54362,9.336708,28.59474015235901
1618159972.55925,25.08969,28.61037015914917
1618159972.57487,36.85507,28.62599015235901
1618159972.5905,44.58443,28.64162015914917
1618159972.60612,48.97277,28.65724015235901
1618159972.62175,50.83653,28.67287015914917
1618159972.63737,50.75343,28.68849015235901
1618159972.653,48.99522,28.70412015914917
1618159972.66863,45.72357,28.719749927520752
1618159972.68425,41.30459,28.73537015914917
1618159972.69988,36.37521,28.750999927520752
1618159972.7155,31.70952,28.76662015914917
1618159972.73113,27.90095,28.782249927520752
1618159972.74675,25.20922,28.79787015914917
1618159972.76238,23.47979,28.813499927520752
1618159972.77801,22.37981,28.829129934310913
1618159972.79363,21.56501,28.844749927520752
1618159972.80926,20.76787,28.860379934310913
1618159972.82488,19.84105,28.875999927520752
1618159972.84051,18.6732,28.891629934310913
1618159972.85613,17.16961,28.907249927520752
1618159972.87176,15.22296,28.922879934310913
1618159972.88739,12.80876,28.938509941101074
1618159972.90301,9.913742,28.954129934310913
1618159972.91864,6.557312,28.969759941101074
1618159972.93426,2.758331,28.985379934310913
1618159972.94989,-1.526093,29.001009941101074
1618159972.96551,-6.380249,29.016629934310913
1618159972.98114,-11.95772,29.032259941101074
1618159972.99677,-18.32922,29.047889947891235
1618159973.01239,-25.38795,29.063509941101074
1618159973.02802,-32.67543,29.079139947891235
1618159973.04364,-39.34322,29.094759941101074
1618159973.05927,-44.21758,29.110389947891235
1618159973.07489,-45.99515,29.126009941101074
1618159973.09052,-43.65466,29.141639947891235
1618159973.10615,-36.70248,29.157269954681396
1618159973.12177,-25.49173,29.172889947891235
1618159973.1374,-11.10176,29.188519954681396
1618159973.15302,4.874359,29.204139947891235
1618159973.16865,20.71986,29.219769954681396
1618159973.18427,34.88893,29.235389947891235
1618159973.1999,46.24406,29.251019954681396
1618159973.21553,54.16827,29.266649961471558
1618159973.23115,58.5193,29.282269954681396
1618159973.24678,59.51765,29.297899961471558
1618159973.2624,57.55933,29.313519954681396
1618159973.27803,53.14456,29.329149961471558
1618159973.29365,46.77478,29.344769954681396
1618159973.30928,39.07027,29.360399961471558
1618159973.32491,30.7874,29.37602996826172
1618159973.34053,22.84344,29.391649961471558
1618159973.35616,16.18005,29.40727996826172
1618159973.37178,11.52924,29.422899961471558
1618159973.38741,9.216782,29.43852996826172
1618159973.40303,9.050064,29.454149961471558
1618159973.41866,10.45056,29.46977996826172
1618159973.43429,12.61345,29.48540997505188
1618159973.44991,14.8082,29.50102996826172
1618159973.46554,16.5278,29.51665997505188
1618159973.48116,17.54428,29.53227996826172
1618159973.49679,17.85623,29.54790997505188
1618159973.51241,17.56514,29.56352996826172
1618159973.52804,16.80519,29.57915997505188
1618159973.54367,15.68208,29.59478998184204
1618159973.55929,14.21391,29.61040997505188
1618159973.57492,12.26347,29.62603998184204
1618159973.59054,9.547394,29.64165997505188
1618159973.60617,5.713531,29.65728998184204
1618159973.62179,0.4717712,29.67290997505188
1618159973.63742,-6.076736,29.68853998184204
1618159973.65305,-13.26601,29.704169988632202
1618159973.66867,-19.73993,29.71978998184204
1618159973.6843,-23.72792,29.735419988632202
1618159973.69992,-23.50848,29.75103998184204
1618159973.71555,-18.08363,29.766669988632202
1618159973.73118,-7.609818,29.782299995422363
1618159973.7468,6.561966,29.797919988632202
1618159973.76243,22.22432,29.813549995422363
1618159973.77805,37.04433,29.829169988632202
1618159973.79368,49.18512,29.844799995422363
1618159973.8093,57.71167,29.860419988632202
1618159973.82493,62.57744,29.876049995422363
1618159973.84056,64.28745,29.891680002212524
1618159973.85618,63.47633,29.907299995422363
1618159973.87181,60.65202,29.922930002212524
1618159973.88743,56.17969,29.938549995422363
1618159973.90306,50.39943,29.954180002212524
1618159973.91868,43.8064,29.969799995422363
1618159973.93431,37.07701,29.985430002212524
1618159973.94994,30.93983,30.001060009002686
1618159973.96556,26.00462,30.016680002212524
1618159973.98119,22.55602,30.032310009002686
1618159973.99681,20.47716,30.047930002212524
1618159974.01244,19.31635,30.063560009002686
1618159974.02806,18.4418,30.079180002212524
1618159974.04369,17.2402,30.094810009002686
1618159974.05932,15.26904,30.110440015792847
1618159974.07494,12.33716,30.126060009002686
1618159974.09057,8.578476,30.141690015792847
1618159974.10619,4.305405,30.157310009002686
1618159974.12182,-0.1024628,30.172940015792847
1618159974.13744,-4.408981,30.188560009002686
1618159974.15307,-8.631348,30.204190015792847
1618159974.1687,-13.06473,30.219820022583008
1618159974.18432,-18.18854,30.235440015792847
1618159974.19995,-24.4895,30.251070022583008
1618159974.21557,-32.20044,30.266690015792847
1618159974.2312,-41.10181,30.282320022583008
1618159974.24682,-50.35793,30.297940015792847
1618159974.26245,-58.51965,30.313570022583008
1618159974.27808,-63.78438,30.32920002937317
1618159974.2937,-64.43826,30.344820022583008
1618159974.30933,-59.45065,30.36045002937317
1618159974.32495,-48.89389,30.376070022583008
1618159974.34058,-34.11902,30.39170002937317
1618159974.3562,-17.3661,30.407320022583008
1618159974.37183,-1.093216,30.42295002937317
1618159974.38746,12.7265,30.43858003616333
1618159974.40308,23.073,30.45420002937317
1618159974.41871,29.8307,30.46983003616333
1618159974.43433,33.51836,30.48545002937317
1618159974.44996,34.75119,30.50108003616333
1618159974.46558,34.05164,30.51670002937317
1618159974.48121,31.81569,30.53233003616333
1618159974.49684,28.42453,30.54796004295349
1618159974.51246,24.3958,30.56358003616333
1618159974.52809,20.256,30.57921004295349
1618159974.54371,16.45258,30.59483003616333
1618159974.55934,13.15228,30.61046004295349
1618159974.57496,10.31633,30.62608003616333
1618159974.59059,7.764465,30.64171004295349
1618159974.60622,5.346344,30.657340049743652
1618159974.62184,3.051025,30.67296004295349
1618159974.63747,0.8977966,30.688590049743652
1618159974.65309,-1.026321,30.70421004295349
1618159974.66872,-2.722702,30.719840049743652
1618159974.68434,-4.222,30.73546004295349
1618159974.69997,-5.589218,30.751090049743652
1618159974.7156,-6.908829,30.766720056533813
1618159974.73122,-8.369141,30.782340049743652
1618159974.74685,-10.2997,30.797970056533813
1618159974.76247,-13.07672,30.813590049743652
1618159974.7781,-17.09862,30.829220056533813
1618159974.79372,-22.60338,30.844840049743652
1618159974.80935,-29.64537,30.860470056533813
1618159974.82498,-37.87407,30.876100063323975
1618159974.8406,-46.49269,30.891720056533813
1618159974.85623,-54.25731,30.907350063323975
1618159974.87185,-59.58722,30.922970056533813
1618159974.88748,-60.93411,30.938600063323975
1618159974.9031,-57.21295,30.954220056533813
1618159974.91873,-48.26416,30.969850063323975
1618159974.93436,-34.98608,30.985480070114136
1618159974.94998,-19.22063,31.001100063323975
1618159974.96561,-3.191071,31.016730070114136
1618159974.98123,11.09175,31.032350063323975
1618159974.99686,22.24911,31.047980070114136
1618159975.01248,29.78555,31.063600063323975
1618159975.02811,33.96021,31.079230070114136
1618159975.04374,35.44446,31.094860076904297
1618159975.05936,34.9715,31.110480070114136
1618159975.07499,33.1696,31.126110076904297
1618159975.09061,30.42986,31.141730070114136
1618159975.10624,26.93509,31.157360076904297
1618159975.12186,22.81215,31.172980070114136
1618159975.13749,18.18813,31.188610076904297
1618159975.15312,13.37683,31.204240083694458
1618159975.16874,8.886765,31.219860076904297
1618159975.18437,5.272507,31.235490083694458
1618159975.19999,2.954636,31.251110076904297
1618159975.21562,2.009155,31.266740083694458
1618159975.23124,2.100929,31.282360076904297
1618159975.24687,2.612305,31.297990083694458
1618159975.2625,2.876999,31.31362009048462
1618159975.27812,2.402725,31.329240083694458
1618159975.29375,1.053864,31.34487009048462
1618159975.30937,-1.055573,31.360490083694458
1618159975.325,-3.690506,31.37612009048462
1618159975.34062,-6.619614,31.391740083694458
1618159975.35625,-9.720016,31.40737009048462
1618159975.37188,-12.96558,31.42300009727478
1618159975.3875,-16.39137,31.43862009048462
1618159975.40313,-20.14314,31.45425009727478
1618159975.41875,-24.51662,31.46987009048462
1618159975.43438,-29.83966,31.48550009727478
1618159975.45,-36.26006,31.50112009048462
1618159975.46563,-43.41661,31.51675009727478
1618159975.48126,-50.15909,31.53238010406494
1618159975.49688,-54.74864,31.54800009727478
1618159975.51251,-55.35613,31.56363010406494
1618159975.52813,-50.72312,31.57925009727478
1618159975.54376,-40.73412,31.59488010406494
1618159975.55938,-26.56561,31.61050009727478
1618159975.57501,-10.31647,31.62613010406494
1618159975.59064,5.677597,31.641760110855103
1618159975.60626,19.48055,31.65738010406494
1618159975.62189,30.01226,31.673010110855103
1618159975.63751,36.98301,31.68863010406494
1618159975.65314,40.67611,31.704260110855103
1618159975.66876,41.64248,31.71988010406494
1618159975.68439,40.43087,31.735510110855103
1618159975.70002,37.54452,31.751140117645264
1618159975.71564,33.48112,31.766760110855103
1618159975.73127,28.75239,31.782390117645264
1618159975.74689,23.90421,31.798010110855103
1618159975.76252,19.41431,31.813640117645264
1618159975.77814,15.63838,31.829260110855103
1618159975.79377,12.74426,31.844890117645264
1618159975.8094,10.71421,31.860520124435425
1618159975.82502,9.398201,31.876140117645264
1618159975.84065,8.565521,31.891770124435425
1618159975.85627,8.000526,31.907390117645264
1618159975.8719,7.523148,31.923020124435425
1618159975.88753,7.000793,31.938650131225586
1618159975.90315,6.316063,31.954270124435425
1618159975.91878,5.380592,31.969900131225586
1618159975.9344,4.115189,31.985520124435425
1618159975.95003,2.459625,32.001150131225586
1618159975.96565,0.3147202,32.016770124435425
1618159975.98128,-2.411537,32.032400131225586
1618159975.99691,-5.780693,32.04803013801575
1618159976.01253,-9.859734,32.063650131225586
1618159976.02816,-14.66794,32.07928013801575
1618159976.04378,-20.15999,32.094900131225586
1618159976.05941,-26.11575,32.11053013801575
1618159976.07503,-32.02682,32.126150131225586
1618159976.09066,-37.01605,32.14178013801575
1618159976.10629,-39.93662,32.15741014480591
1618159976.12191,-39.57287,32.17303013801575
1618159976.13754,-35.09387,32.18866014480591
1618159976.15316,-26.42001,32.20428013801575
1618159976.16879,-14.37721,32.21991014480591
1618159976.18441,-0.5804214,32.23553013801575
1618159976.20004,13.06666,32.25116014480591
1618159976.21567,24.86401,32.26679015159607
1618159976.23129,33.75047,32.28241014480591
1618159976.24692,39.3893,32.29804015159607
1618159976.26254,42.06283,32.31366014480591
1618159976.27817,42.40258,32.32929015159607
1618159976.29379,41.14793,32.34491014480591
1618159976.30942,38.96696,32.36054015159607
1618159976.32505,36.37094,32.37617015838623
1618159976.34067,33.71773,32.39179015159607
1618159976.3563,31.2159,32.40742015838623
1618159976.37192,29.02222,32.42304015159607
1618159976.38755,27.24117,32.43867015838623
1618159976.40317,25.91039,32.45429015159607
1618159976.4188,24.95241,32.46992015838623
1618159976.43443,24.05605,32.48554992675781
1618159976.45005,22.78288,32.50117015838623
1618159976.46568,20.68372,32.51679992675781
1618159976.4813,17.55785,32.53242015838623
1618159976.49693,13.63555,32.54804992675781
1618159976.51255,9.462234,32.56367015838623
1618159976.52818,5.626114,32.57929992675781
1618159976.54381,2.425163,32.594929933547974
1618159976.55943,-0.3478165,32.61054992675781
1618159976.57506,-3.310066,32.626179933547974
1618159976.59068,-7.175247,32.64179992675781
1618159976.60631,-12.49852,32.657429933547974
1618159976.62193,-19.44936,32.67304992675781
1618159976.63756,-27.78357,32.688679933547974
1618159976.65319,-36.86649,32.704309940338135
1618159976.66881,-45.69077,32.719929933547974
1618159976.68444,-52.88067,32.735559940338135
1618159976.70006,-56.85415,32.751179933547974
1618159976.71569,-56.19109,32.766809940338135
1618159976.73131,-50.06872,32.782429933547974
1618159976.74694,-38.68774,32.798059940338135
1618159976.76257,-23.3672,32.813689947128296
1618159976.77819,-6.192245,32.829309940338135
1618159976.79382,10.61147,32.844939947128296
1618159976.80944,25.23751,32.860559940338135
1618159976.82507,36.68551,32.876189947128296
1618159976.84069,44.72513,32.891809940338135
1618159976.85632,49.61897,32.907439947128296
1618159976.87195,51.89591,32.92306995391846
1618159976.88757,52.04819,32.938689947128296
1618159976.9032,50.42712,32.95431995391846
1618159976.91882,47.29576,32.969939947128296
1618159976.93445,42.85305,32.98556995391846
1618159976.95007,37.33418,33.001189947128296
1618159976.9657,31.06528,33.01681995391846
1618159976.98133,24.4437,33.03244996070862
1618159976.99695,17.86821,33.04806995391846
1618159977.01258,11.69342,33.06369996070862
1618159977.0282,6.057648,33.07931995391846
1618159977.04383,0.9080162,33.09494996070862
1618159977.05945,-3.911583,33.11056995391846
1618159977.07508,-8.550571,33.12619996070862
1618159977.09071,-13.03128,33.14182996749878
1618159977.10633,-17.27176,33.15744996070862
1618159977.12196,-21.18178,33.17307996749878
1618159977.13758,-24.75404,33.18869996070862
1618159977.15321,-28.05814,33.20432996749878
1618159977.16883,-31.25014,33.21994996070862
1618159977.18446,-34.48224,33.23557996749878
1618159977.20009,-37.83884,33.25120997428894
1618159977.21571,-41.47486,33.26682996749878
1618159977.23134,-45.62744,33.28245997428894
1618159977.24696,-50.62334,33.29807996749878
1618159977.26259,-56.69094,33.31370997428894
1618159977.27821,-63.74771,33.32932996749878
1618159977.29384,-71.07618,33.34495997428894
1618159977.30947,-77.35609,33.3605899810791
1618159977.32509,-80.84896,33.37620997428894
1618159977.34072,-79.83403,33.3918399810791
1618159977.35634,-73.24417,33.40745997428894
1618159977.37197,-61.05363,33.4230899810791
1618159977.38759,-44.46467,33.43870997428894
1618159977.40322,-25.61867,33.4543399810791
1618159977.41885,-7.097126,33.46996998786926
1618159977.43447,8.924128,33.4855899810791
1618159977.4501,21.10242,33.50121998786926
1618159977.46572,29.18093,33.5168399810791
1618159977.48135,33.7487,33.53246998786926
1618159977.49697,35.74764,33.5480899810791
1618159977.5126,35.98506,33.56371998786926
1618159977.52823,34.90815,33.579349994659424
1618159977.54385,32.65784,33.59496998786926
1618159977.55948,29.27153,33.610599994659424
1618159977.5751,24.93363,33.62621998786926
1618159977.59073,20.06083,33.641849994659424
1618159977.60635,15.21712,33.65746998786926
1618159977.62198,10.95856,33.673099994659424
1618159977.63761,7.654762,33.688730001449585
1618159977.65323,5.426998,33.704349994659424
1618159977.66886,4.142143,33.719980001449585
1618159977.68448,3.47123,33.735599994659424
1618159977.70011,3.000259,33.751230001449585
1618159977.71573,2.279617,33.766849994659424
1618159977.73136,0.97509,33.782480001449585
1618159977.74699,-1.051401,33.798110008239746
1618159977.76261,-3.697826,33.813730001449585
1618159977.77824,-6.71941,33.829360008239746
1618159977.79386,-9.835443,33.844980001449585
1618159977.80949,-12.88219,33.860610008239746
1618159977.82511,-15.93353,33.876230001449585
1618159977.84074,-19.1955,33.891860008239746
1618159977.85637,-22.98952,33.90749001502991
1618159977.87199,-27.58905,33.923110008239746
1618159977.88762,-33.1497,33.93874001502991
1618159977.90324,-39.533,33.954360008239746
1618159977.91887,-46.24261,33.96999001502991
1618159977.93449,-52.33607,33.985610008239746
1618159977.95012,-56.49912,34.00124001502991
1618159977.96575,-57.26057,34.01687002182007
1618159977.98137,-53.38199,34.03249001502991
1618159977.997,-44.30069,34.04812002182007
1618159978.01262,-30.44527,34.06374001502991
1618159978.02825,-13.32203,34.07937002182007
1618159978.04387,4.796864,34.09499001502991
1618159978.0595,21.47679,34.11062002182007
1618159978.07513,34.71512,34.12625002861023
1618159978.09075,43.47503,34.14187002182007
1618159978.10638,47.73456,34.15750002861023
1618159978.122,48.33056,34.17312002182007
1618159978.13763,46.46821,34.18875002861023
1618159978.15325,43.29799,34.20437002182007
1618159978.16888,39.63381,34.22000002861023
1618159978.18451,35.84042,34.23563003540039
1618159978.20013,32.02482,34.25125002861023
1618159978.21576,28.1821,34.26688003540039
1618159978.23138,24.3872,34.28250002861023
1618159978.24701,20.82923,34.29813003540039
1618159978.26263,17.79411,34.31375002861023
1618159978.27826,15.53863,34.32938003540039
1618159978.29389,14.21167,34.34501004219055
1618159978.30951,13.80319,34.36063003540039
1618159978.32514,14.06643,34.37626004219055
1618159978.34076,14.65989,34.39188003540039
1618159978.35639,15.15888,34.40751004219055
1618159978.37202,15.20286,34.42314004898071
1618159978.38764,14.50851,34.43876004219055
1618159978.40327,12.93543,34.45439004898071
1618159978.41889,10.38222,34.47001004219055
1618159978.43452,6.851662,34.48564004898071
1618159978.45014,2.469261,34.50126004219055
1618159978.46577,-2.541954,34.51689004898071
1618159978.4814,-7.900169,34.532520055770874
1618159978.49702,-13.44173,34.54814004898071
1618159978.51265,-19.14774,34.563770055770874
1618159978.52827,-25.088,34.57939004898071
1618159978.5439,-31.20399,34.595020055770874
1618159978.55952,-37.04819,34.61064004898071
1618159978.57515,-41.6265,34.626270055770874
1618159978.59078,-43.60558,34.641900062561035
1618159978.6064,-41.76693,34.657520055770874
1618159978.62203,-35.49457,34.673150062561035
1618159978.63765,-25.18179,34.688770055770874
1618159978.65328,-12.15205,34.704400062561035
1618159978.6689,1.71759,34.720020055770874
1618159978.68453,14.60623,34.735650062561035
1618159978.70016,25.16754,34.751280069351196
1618159978.71578,32.78146,34.766900062561035
1618159978.73141,37.40605,34.782530069351196
1618159978.74703,39.27181,34.798150062561035
1618159978.76266,38.70683,34.813780069351196
1618159978.77828,35.96337,34.829400062561035
1618159978.79391,31.33482,34.845030069351196
1618159978.80954,25.28373,34.86066007614136
1618159978.82516,18.53373,34.876280069351196
1618159978.84079,11.96963,34.89191007614136
1618159978.85641,6.531288,34.907530069351196
1618159978.87204,2.884247,34.92316007614136
1618159978.88766,1.205208,34.938780069351196
1618159978.90329,1.229172,34.95441007614136
1618159978.91892,2.303223,34.97004008293152
1618159978.93454,3.599846,34.98566007614136
1618159978.95017,4.429962,35.00129008293152
1618159978.96579,4.391434,35.01691007614136
1618159978.98142,3.463539,35.03254008293152
1618159978.99704,1.955963,35.04816007614136
1618159979.01267,0.3049011,35.06379008293152
1618159979.0283,-1.120392,35.07942008972168
1618159979.04392,-2.181602,35.09504008293152
1618159979.05955,-3.0597,35.11067008972168
1618159979.07517,-4.173828,35.12629008293152
1618159979.0908,-6.075302,35.14192008972168
1618159979.10642,-9.235008,35.15754008293152
1618159979.12205,-13.9296,35.17317008972168
1618159979.13768,-20.04491,35.18880009651184
1618159979.1533,-27.01217,35.20442008972168
1618159979.16893,-33.80314,35.22005009651184
1618159979.18455,-38.97038,35.23567008972168
1618159979.20018,-40.97754,35.25130009651184
1618159979.2158,-38.58142,35.26692008972168
1618159979.23143,-31.29539,35.28255009651184
1618159979.24706,-19.62367,35.298180103302
1618159979.26268,-5.007339,35.31380009651184
1618159979.27831,10.54568,35.329430103302
1618159979.29393,25.02537,35.34505009651184
1618159979.30956,36.94602,35.360680103302
1618159979.32518,45.60244,35.37630009651184
1618159979.34081,50.91861,35.391930103302
1618159979.35644,53.24383,35.40756011009216
1618159979.37206,53.00891,35.423180103302
1618159979.38769,50.54568,35.43881011009216
1618159979.40331,46.10539,35.454430103302
1618159979.41894,40.02207,35.47006011009216
1618159979.43456,32.79558,35.485680103302
1618159979.45019,25.13972,35.50131011009216
1618159979.46582,17.88131,35.516940116882324
1618159979.48144,11.74483,35.53256011009216
1618159979.49707,7.181381,35.548190116882324
1618159979.51269,4.298294,35.56381011009216
1618159979.52832,2.836998,35.579440116882324
1618159979.54394,2.300407,35.59506011009216
1618159979.55957,2.07354,35.610690116882324
1618159979.5752,1.614029,35.626320123672485
1618159979.59082,0.5455627,35.641940116882324
1618159979.60645,-1.235039,35.657570123672485
1618159979.62207,-3.590485,35.673190116882324
1618159979.6377,-6.295418,35.688820123672485
1618159979.65332,-9.145576,35.704440116882324
1618159979.66895,-12.15501,35.720070123672485
1618159979.68458,-15.58613,35.73570013046265
1618159979.7002,-19.85348,35.751320123672485
1618159979.71583,-25.38241,35.76695013046265
1618159979.73145,-32.33006,35.782570123672485
1618159979.74708,-40.45035,35.79820013046265
1618159979.7627,-48.88101,35.813820123672485
1618159979.77833,-56.3032,35.82945013046265
1618159979.79396,-61.0655,35.84508013725281
1618159979.80958,-61.64736,35.86070013046265
1618159979.82521,-57.05043,35.87633013725281
1618159979.84083,-47.18417,35.89195013046265
1618159979.85646,-33.01543,35.90758013725281
1618159979.87208,-16.33716,35.92320013046265
1618159979.88771,0.6370316,35.93883013725281
1618159979.90334,15.85329,35.95446014404297
1618159979.91896,27.85271,35.97008013725281
1618159979.93459,36.0274,35.98571014404297
1618159979.95021,40.48458,36.00133013725281
1618159979.96584,41.83027,36.01696014404297
1618159979.98146,40.80942,36.03258013725281
1618159979.99709,38.0963,36.04821014404297
1618159980.01272,34.23052,36.06384015083313
1618159980.02834,29.60956,36.07946014404297
1618159980.04397,24.61158,36.09509015083313
1618159980.05959,19.70071,36.11071014404297
1618159980.07522,15.41676,36.12634015083313
1618159980.09084,12.25933,36.14196014404297
1618159980.10647,10.48231,36.15759015083313
1618159980.1221,9.961609,36.17322015762329
1618159980.13772,10.15073,36.18884015083313
1618159980.15335,10.30471,36.20447015762329
1618159980.16897,9.749504,36.22009015083313
1618159980.1846,8.163101,36.23572015762329
1618159980.20022,5.707222,36.25134015083313
1618159980.21585,2.888206,36.26697015762329
1618159980.23148,0.2088699,36.28259992599487
1618159980.2471,-2.100349,36.29822015762329
1618159980.26273,-4.213783,36.31384992599487
1618159980.27835,-6.639824,36.32947015762329
1618159980.29398,-9.940773,36.34509992599487
1618159980.3096,-14.56551,36.36072015762329
1618159980.32523,-20.65484,36.37634992599487
1618159980.34086,-28.00314,36.391979932785034
1618159980.35648,-35.98273,36.40759992599487
1618159980.37211,-43.58308,36.423229932785034
1618159980.38773,-49.34775,36.43884992599487
1618159980.40336,-51.65745,36.454479932785034
1618159980.41898,-49.10915,36.47009992599487
1618159980.43461,-40.97329,36.485729932785034
1618159980.45024,-27.60094,36.501359939575195
1618159980.46586,-10.38984,36.516979932785034
1618159980.48149,8.464947,36.532609939575195
1618159980.49711,26.61577,36.548229932785034
1618159980.51274,42.13428,36.563859939575195
1618159980.52836,53.94893,36.579479932785034
1618159980.54399,61.78015,36.595109939575195
1618159980.55962,65.94463,36.610739946365356
1618159980.57524,67.04987,36.626359939575195
1618159980.59087,65.75816,36.641989946365356
1618159980.60649,62.75877,36.657609939575195
1618159980.62212,58.80666,36.673239946365356
1618159980.63774,54.71449,36.688859939575195
1618159980.65337,51.2408,36.704489946365356
1618159980.669,48.98785,36.72011995315552
1618159980.68462,48.15213,36.735739946365356
1618159980.70025,48.40127,36.75136995315552
1618159980.71587,48.9999,36.766989946365356
1618159980.7315,49.01082,36.78261995315552
1618159980.74713,47.66478,36.79824995994568
1618159980.76275,44.50998,36.81386995315552
1618159980.77838,39.49864,36.82949995994568
1618159980.794,33.07795,36.84511995315552
1618159980.80963,26.14951,36.86074995994568
1618159980.82525,19.91319,36.87636995315552
1618159980.84088,15.48321,36.89199995994568
1618159980.85651,13.58362,36.90762996673584
1618159980.87213,14.13865,36.92324995994568
1618159980.88776,16.33095,36.93887996673584
1618159980.90338,18.90774,36.95449995994568
1618159980.91901,20.78504,36.97012996673584
1618159980.93463,21.67694,36.98574995994568
1618159980.95026,22.15265,37.00137996673584
1618159980.96589,23.58661,37.017009973526
1618159980.98151,27.39825,37.03262996673584
1618159980.99714,34.0807,37.048259973526
1618159981.01276,43.09289,37.06387996673584
1618159981.02839,53.09153,37.079509973526
1618159981.04401,62.39582,37.09512996673584
1618159981.05964,69.57325,37.110759973526
1618159981.07527,73.83272,37.12638998031616
1618159981.09089,75.07066,37.142009973526
1618159981.10652,73.7042,37.15763998031616
1618159981.12214,70.48234,37.173259973526
1618159981.13777,66.19918,37.18888998031616
1618159981.15339,61.5369,37.204509973526
1618159981.16902,56.8423,37.22013998031616
1618159981.18465,52.0985,37.23576998710632
1618159981.20027,47.03728,37.25138998031616
1618159981.2159,41.3313,37.26701998710632
1618159981.23152,34.83267,37.28263998031616
1618159981.24715,27.79027,37.29826998710632
1618159981.26277,20.88593,37.31388998031616
1618159981.2784,14.97025,37.32951998710632
1618159981.29403,10.78975,37.345149993896484
1618159981.30965,8.46492,37.36076998710632
1618159981.32528,7.332809,37.376399993896484
1618159981.3409,5.998672,37.39201998710632
1618159981.35653,2.878067,37.407649993896484
1618159981.37215,-3.219528,37.42326998710632
1618159981.38778,-12.62045,37.438899993896484
1618159981.40341,-24.66255,37.454530000686646
1618159981.41903,-38.12996,37.470149993896484
1618159981.43466,-51.58731,37.485780000686646
1618159981.45028,-63.94695,37.501399993896484
1618159981.46591,-74.64389,37.517030000686646
1618159981.48153,-83.68494,37.532649993896484
1618159981.49716,-91.5755,37.548280000686646
1618159981.51279,-99.27377,37.56391000747681
1618159981.52841,-108.0298,37.579530000686646
1618159981.54404,-118.9639,37.59516000747681
1618159981.55966,-132.3061,37.610780000686646
1618159981.57529,-146.6008,37.62641000747681
1618159981.59091,-158.5561,37.642030000686646
1618159981.60654,-163.8475,37.65766000747681
1618159981.62217,-158.7488,37.67329001426697
1618159981.63779,-141.9718,37.68891000747681
1618159981.65342,-115.5188,37.70454001426697
1618159981.66904,-84.23477,37.72016000747681
1618159981.68467,-54.09058,37.73579001426697
1618159981.70029,-30.11655,37.75141000747681
1618159981.71592,-14.92773,37.76704001426697
1618159981.73155,-8.610138,37.78267002105713
1618159981.74717,-9.57901,37.79829001426697
1618159981.7628,-15.83109,37.81392002105713
1618159981.77842,-25.89758,37.82954001426697
1618159981.79405,-38.78293,37.84517002105713
1618159981.80967,-53.55661,37.86079001426697
1618159981.8253,-68.78207,37.87642002105713
1618159981.84093,-82.50562,37.89205002784729
1618159981.85655,-92.71893,37.90767002105713
1618159981.87218,-98.13867,37.92330002784729
1618159981.8878,-98.74905,37.93892002105713
1618159981.90343,-95.72977,37.95455002784729
1618159981.91905,-91.07568,37.97017002105713
1618159981.93468,-86.61758,37.98580002784729
1618159981.95031,-83.44302,38.00143003463745
1618159981.96593,-81.53836,38.01705002784729
1618159981.98156,-80.10294,38.03268003463745
1618159981.99718,-78.07504,38.04830002784729
1618159982.01281,-74.82413,38.06393003463745
1618159982.02843,-70.51019,38.07955002784729
1618159982.04406,-66.00775,38.09518003463745
1618159982.05969,-62.64261,38.11081004142761
1618159982.07531,-61.61905,38.12643003463745
1618159982.09094,-63.64099,38.14206004142761
1618159982.10656,-68.60974,38.15768003463745
1618159982.12219,-75.52869,38.17331004142761
1618159982.13781,-82.66287,38.18893003463745
1618159982.15344,-87.83929,38.20456004142761
1618159982.16907,-88.94962,38.22019004821777
1618159982.18469,-84.44586,38.23581004142761
1618159982.20032,-73.9086,38.25144004821777
1618159982.21594,-58.13895,38.26706004142761
1618159982.23157,-39.0379,38.28269004821777
1618159982.24719,-19.05687,38.29831004142761
1618159982.26282,-0.5118713,38.31394004821777
1618159982.27845,14.90359,38.329570055007935
1618159982.29407,26.36839,38.34519004821777
1618159982.3097,33.7057,38.360820055007935
1618159982.32532,37.11487,38.37644004821777
1618159982.34095,36.79051,38.392070055007935
1618159982.35657,32.98676,38.40769004821777
1618159982.3722,26.15707,38.423320055007935
1618159982.38783,17.13947,38.438950061798096
1618159982.40345,7.265076,38.454570055007935
1618159982.41908,-1.991257,38.470200061798096
1618159982.4347,-9.3479,38.485820055007935
1618159982.45033,-14.21591,38.501450061798096
1618159982.46595,-16.81365,38.517070055007935
1618159982.48158,-18.00722,38.532700061798096
1618159982.49721,-18.88764,38.54833006858826
1618159982.51283,-20.20923,38.563950061798096
1618159982.52846,-22.13874,38.57958006858826
1618159982.54408,-24.16479,38.595200061798096
1618159982.55971,-25.40708,38.61083006858826
1618159982.57533,-24.98977,38.626450061798096
1618159982.59096,-22.49432,38.64208006858826
1618159982.60659,-18.22842,38.65771007537842
1618159982.62221,-13.18088,38.67333006858826
1618159982.63784,-8.890099,38.68896007537842
1618159982.65346,-6.895931,38.70458006858826
1618159982.66909,-8.319347,38.72021007537842
1618159982.68471,-13.38192,38.73583006858826
1618159982.70034,-21.22842,38.75146007537842
1618159982.71597,-30.02467,38.76709008216858
1618159982.73159,-37.3617,38.78271007537842
1618159982.74722,-40.82411,38.79834008216858
1618159982.76284,-38.49609,38.81396007537842
1618159982.77847,-29.5368,38.82959008216858
1618159982.79409,-14.33237,38.84521007537842
1618159982.80972,5.525841,38.86084008216858
1618159982.82535,27.60676,38.87647008895874
1618159982.84097,49.18117,38.89209008216858
1618159982.8566,67.86591,38.90772008895874
1618159982.87222,82.09373,38.92334008216858
1618159982.88785,91.25163,38.93897008895874
1618159982.90347,95.6308,38.95459008216858
1618159982.9191,95.93341,38.97022008895874
1618159982.93473,93.06168,38.9858500957489
1618159982.95035,87.85715,39.00147008895874
1618159982.96598,81.08649,39.0171000957489
1618159982.9816,73.55516,39.03272008895874
1618159982.99723,66.10043,39.0483500957489
1618159983.01286,59.52783,39.06398010253906
1618159983.02848,54.38409,39.0796000957489
1618159983.04411,50.83269,39.09523010253906
1618159983.05973,48.54378,39.1108500957489
1618159983.07536,46.9313,39.12648010253906
1618159983.09098,45.32394,39.1421000957489
1618159983.10661,43.25098,39.15773010253906
1618159983.12224,40.58783,39.173360109329224
1618159983.13786,37.46414,39.18898010253906
1618159983.15349,34.1738,39.204610109329224
1618159983.16911,30.92279,39.22023010253906
1618159983.18474,27.70804,39.235860109329224
1618159983.20036,24.24213,39.25148010253906
1618159983.21599,20.09915,39.267110109329224
1618159983.23162,14.75388,39.282740116119385
1618159983.24724,7.744293,39.298360109329224
1618159983.26287,-1.155273,39.313990116119385
1618159983.27849,-11.776,39.329610109329224
1618159983.29412,-23.39719,39.345240116119385
1618159983.30974,-34.60519,39.360860109329224
1618159983.32537,-43.40601,39.376490116119385
1618159983.341,-47.67081,39.392120122909546
1618159983.35662,-45.62637,39.407740116119385
1618159983.37225,-36.51859,39.423370122909546
1618159983.38787,-20.92477,39.438990116119385
1618159983.4035,-0.6837463,39.454620122909546
1618159983.41912,21.56961,39.470240116119385
1618159983.43475,43.09152,39.485870122909546
1618159983.45038,61.58881,39.50150012969971
1618159983.466,75.59897,39.517120122909546
1618159983.48163,84.53217,39.53275012969971
1618159983.49725,88.50446,39.548370122909546
1618159983.51288,88.10736,39.56400012969971
1618159983.5285,84.13141,39.579620122909546
1618159983.54413,77.44348,39.59525012969971
1618159983.55976,68.89828,39.61088013648987
1618159983.57538,59.33481,39.62650012969971
1618159983.59101,49.62863,39.64213013648987
1618159983.60663,40.70737,39.65775012969971
1618159983.62226,33.45288,39.67338013648987
1618159983.63788,28.49396,39.68900012969971
1618159983.65351,25.98257,39.70463013648987
1618159983.66914,25.46909,39.72026014328003
1618159983.68476,26.05521,39.73588013648987
1618159983.70039,26.64014,39.75151014328003
1618159983.71601,26.36118,39.76713013648987
1618159983.73164,24.81223,39.78276014328003
1618159983.74726,22.08331,39.79838013648987
1618159983.76289,18.54132,39.81401014328003
1618159983.77852,14.54181,39.82964015007019
1618159983.79414,10.19073,39.84526014328003
1618159983.80977,5.37204,39.86089015007019
1618159983.82539,-0.1654053,39.87651014328003
1618159983.84102,-6.70462,39.89214015007019
1618159983.85664,-14.43829,39.90776014328003
1618159983.87227,-23.49124,39.92339015007019
1618159983.8879,-33.73062,39.93902015686035
1618159983.90352,-44.64529,39.95464015007019
1618159983.91915,-55.09201,39.97027015686035
1618159983.93477,-63.27054,39.98589015007019
1618159983.9504,-67.01193,40.00152015686035
1618159983.96602,-64.43539,40.01714015007019
1618159983.98165,-54.68628,40.03277015686035
1618159983.99728,-38.41098,40.048399925231934
1618159984.0129,-17.72629,40.06402015686035
1618159984.02853,4.415558,40.079649925231934
1618159984.04415,25.07434,40.09527015686035
1618159984.05978,42.11917,40.110899925231934
1618159984.0754,54.53577,40.12652015686035
1618159984.09103,62.28049,40.142149925231934
1618159984.10666,65.80487,40.157779932022095
1618159984.12228,65.62668,40.173399925231934
1618159984.13791,62.2016,40.189029932022095
1618159984.15353,55.97153,40.204649925231934
1618159984.16916,47.58594,40.220279932022095
1618159984.18478,38.03223,40.235899925231934
1618159984.20041,28.54913,40.251529932022095
1618159984.21604,20.42242,40.267159938812256
1618159984.23166,14.61591,40.282779932022095
1618159984.24729,11.51099,40.298409938812256
1618159984.26291,10.78815,40.314029932022095
1618159984.27854,11.60712,40.329659938812256
1618159984.29416,12.82532,40.345279932022095
1618159984.30979,13.44519,40.360909938812256
1618159984.32542,12.83795,40.37653994560242
1618159984.34104,10.90009,40.392159938812256
1618159984.35667,7.969727,40.40778994560242
1618159984.37229,4.578003,40.423409938812256
1618159984.38792,1.155396,40.43903994560242
1618159984.40354,-2.210754,40.454659938812256
1618159984.41917,-5.78656,40.47028994560242
1618159984.4348,-10.12732,40.48591995239258
1618159984.45042,-15.85034,40.50153994560242
1618159984.46605,-23.3797,40.51716995239258
1618159984.48167,-32.67084,40.53278994560242
1618159984.4973,-43.0957,40.54841995239258
1618159984.51292,-53.36377,40.56403994560242
1618159984.52855,-61.64087,40.57966995239258
1618159984.54418,-65.90051,40.59529995918274
1618159984.5598,-64.44568,40.61091995239258
1618159984.57543,-56.49133,40.62654995918274
1618159984.59105,-42.43243,40.64216995239258
1618159984.60668,-23.88562,40.65779995918274
1618159984.6223,-3.241577,40.67341995239258
1618159984.63793,16.95001,40.68904995918274
1618159984.65356,34.57532,40.7046799659729
1618159984.66918,48.31226,40.72029995918274
1618159984.68481,57.71326,40.7359299659729
1618159984.70043,62.9295,40.75154995918274
1618159984.71606,64.43146,40.7671799659729
1618159984.73168,62.79059,40.78279995918274
1618159984.74731,58.60028,40.7984299659729
1618159984.76294,52.48688,40.81405997276306
1618159984.77856,45.21082,40.8296799659729
1618159984.79419,37.66113,40.84530997276306
1618159984.80981,30.79016,40.8609299659729
1618159984.82544,25.38416,40.87655997276306
1618159984.84106,21.89111,40.8921799659729
1618159984.85669,20.24823,40.90780997276306
1618159984.87232,19.92651,40.92343997955322
1618159984.88794,20.1535,40.93905997276306
1618159984.90357,20.14532,40.95468997955322
1618159984.91919,19.40674,40.97030997276306
1618159984.93482,17.89532,40.98593997955322
1618159984.95044,15.86359,41.00155997276306
1618159984.96607,13.62213,41.01718997955322
1618159984.9817,11.32245,41.032819986343384
1618159984.99732,8.770508,41.04843997955322
1618159985.01295,5.530029,41.064069986343384
1618159985.02857,1.066467,41.07968997955322
1618159985.0442,-5.044189,41.095319986343384
1618159985.05982,-12.98004,41.11093997955322
1618159985.07545,-22.48486,41.126569986343384
1618159985.09108,-32.79437,41.142199993133545
1618159985.1067,-42.58057,41.157819986343384
1618159985.12233,-50.01288,41.173449993133545
1618159985.13795,-53.14801,41.189069986343384
1618159985.15358,-50.3374,41.204699993133545
1618159985.1692,-40.91687,41.220319986343384
1618159985.18483,-25.53467,41.235949993133545
1618159985.20046,-6.186035,41.251579999923706
1618159985.21608,14.26245,41.267199993133545
1618159985.23171,32.9101,41.282829999923706
1618159985.24733,47.56598,41.298449993133545
1618159985.26296,57.21686,41.314079999923706
1618159985.27858,61.9137,41.329699993133545
1618159985.29421,62.37396,41.345329999923706
1618159985.30984,59.46472,41.36096000671387
1618159985.32546,53.94403,41.376579999923706
1618159985.34109,46.38513,41.39221000671387
1618159985.35671,37.36884,41.407829999923706
1618159985.37234,27.61548,41.42346000671387
1618159985.38796,17.99048,41.439079999923706
1618159985.40359,9.42926,41.45471000671387
1618159985.41922,2.677612,41.47034001350403
1618159985.43484,-1.896912,41.48596000671387
1618159985.45047,-4.426453,41.50159001350403
1618159985.46609,-5.440491,41.51721000671387
1618159985.48172,-5.755127,41.53284001350403
1618159985.49734,-6.138428,41.54846000671387
1618159985.51297,-7.15509,41.56409001350403
1618159985.5286,-9.028687,41.57972002029419
1618159985.54422,-11.61145,41.59534001350403
1618159985.55985,-14.58246,41.61097002029419
1618159985.57547,-17.61456,41.62659001350403
1618159985.5911,-20.64178,41.64222002029419
1618159985.60673,-23.84546,41.65785002708435
1618159985.62235,-27.62811,41.67347002029419
1618159985.63798,-32.4447,41.68910002708435
1618159985.6536,-38.62512,41.70472002029419
1618159985.66923,-46.22943,41.72035002708435
1618159985.68485,-54.81335,41.73597002029419
1618159985.70048,-63.3844,41.75160002708435
1618159985.71611,-70.33679,41.76723003387451
1618159985.73173,-73.69427,41.78285002708435
1618159985.74736,-71.59131,41.79848003387451
1618159985.76298,-62.8656,41.81410002708435
1618159985.77861,-47.62079,41.82973003387451
1618159985.79423,-27.31573,41.84535002708435
1618159985.80986,-4.586304,41.86098003387451
1618159985.82549,17.59235,41.87661004066467
1618159985.84111,36.59119,41.89223003387451
1618159985.85674,50.81854,41.90786004066467
1618159985.87236,59.87872,41.92348003387451
1618159985.88799,64.26007,41.93911004066467
1618159985.90361,64.88837,41.95473003387451
1618159985.91924,62.67682,41.97036004066467
1618159985.93487,58.34271,41.985990047454834
1618159985.95049,52.44696,42.00161004066467
1618159985.96612,45.61182,42.017240047454834
1618159985.98174,38.55408,42.03286004066467
1618159985.99737,32.11404,42.048490047454834
1618159986.01299,27.06079,42.06411004066467
1618159986.02862,23.83231,42.079740047454834
1618159986.04425,22.39304,42.095370054244995
1618159986.05987,22.26172,42.110990047454834
1618159986.0755,22.68579,42.126620054244995
1618159986.09112,22.90323,42.142240047454834
1618159986.10675,22.39484,42.157870054244995
1618159986.12237,20.99509,42.173490047454834
1618159986.138,18.85715,42.189120054244995
1618159986.15363,16.28165,42.204750061035156
1618159986.16925,13.5004,42.220370054244995
1618159986.18488,10.6026,42.236000061035156
1618159986.2005,7.426941,42.251620054244995
1618159986.21613,3.677734,42.267250061035156
1618159986.23175,-0.963501,42.282870054244995
1618159986.24738,-6.812531,42.298500061035156
1618159986.26301,-14.04755,42.31413006782532
1618159986.27863,-22.67883,42.329750061035156
1618159986.29426,-32.26468,42.34538006782532
1618159986.30988,-41.84027,42.361000061035156
1618159986.32551,-49.81461,42.37663006782532
1618159986.34113,-54.27121,42.392250061035156
1618159986.35676,-53.38663,42.40788006782532
1618159986.37239,-46.05551,42.42351007461548
1618159986.38801,-32.43228,42.43913006782532
1618159986.40364,-14.01407,42.45476007461548
1618159986.41926,6.693176,42.47038006782532
1618159986.43489,26.8045,42.48601007461548
1618159986.45051,43.84088,42.50163006782532
1618159986.46614,56.254,42.51726007461548
1618159986.48177,63.5701,42.53289008140564
1618159986.49739,66.14902,42.54851007461548
1618159986.51302,64.86499,42.56414008140564
1618159986.52864,60.65656,42.57976007461548
1618159986.54427,54.36746,42.59539008140564
1618159986.55989,46.68042,42.61101007461548
1618159986.57552,38.13968,42.62664008140564
1618159986.59115,29.27841,42.6422700881958
1618159986.60677,20.57571,42.65789008140564
1618159986.6224,12.4314,42.6735200881958
1618159986.63802,5.093689,42.68914008140564
1618159986.65365,-1.293427,42.7047700881958
1618159986.66927,-6.630951,42.72039008140564
1618159986.6849,-10.73633,42.7360200881958
1618159986.70053,-13.33002,42.75165009498596
1618159986.71615,-14.18402,42.7672700881958
1618159986.73178,-13.28467,42.78290009498596
1618159986.7474,-10.99603,42.7985200881958
1618159986.76303,-8.05484,42.81415009498596
1618159986.77865,-5.40509,42.8297700881958
1618159986.79428,-3.801086,42.84540009498596
1618159986.80991,-3.529449,42.86103010177612
1618159986.82553,-4.189941,42.87665009498596
1618159986.84116,-4.770081,42.89228010177612
1618159986.85678,-3.924408,42.90790009498596
1618159986.87241,-0.3596802,42.92353010177612
1618159986.88803,6.770355,42.93915009498596
1618159986.90366,17.67221,42.95478010177612
1618159986.91929,31.82141,42.970410108566284
1618159986.93491,48.14624,42.98603010177612
1618159986.95054,65.32266,43.001660108566284
1618159986.96616,82.15115,43.01728010177612
1618159986.98179,97.83167,43.032910108566284
1618159986.99741,111.9228,43.04853010177612
1618159987.01304,124.164,43.064160108566284
1618159987.02867,133.9922,43.079790115356445
1618159987.04429,140.4943,43.095410108566284
1618159987.05992,142.5608,43.111040115356445
1618159987.07554,139.462,43.126660108566284
1618159987.09117,131.4584,43.142290115356445
1618159987.10679,120.1135,43.157910108566284
1618159987.12242,107.8817,43.173540115356445
1618159987.13805,97.16321,43.189170122146606
1618159987.15367,89.27214,43.204790115356445
1618159987.1693,83.73718,43.220420122146606
1618159987.18492,78.53793,43.236040115356445
1618159987.20055,71.13541,43.251670122146606
1618159987.21617,59.72795,43.267290115356445
1618159987.2318,44.07347,43.282920122146606
1618159987.24743,25.45457,43.29855012893677
1618159987.26305,5.907059,43.314170122146606
1618159987.27868,-12.87665,43.32980012893677
1618159987.2943,-30.23877,43.345420122146606
1618159987.30993,-46.64355,43.36105012893677
1618159987.32555,-63.04623,43.376670122146606
1618159987.34118,-80.1254,43.39230012893677
1618159987.35681,-97.72282,43.40793013572693
1618159987.37243,-114.8764,43.42355012893677
1618159987.38806,-130.2988,43.43918013572693
1618159987.40368,-142.9598,43.45480012893677
1618159987.41931,-152.5855,43.47043013572693
1618159987.43493,-159.693,43.48605012893677
1618159987.45056,-165.3184,43.50168013572693
1618159987.46619,-170.4896,43.51731014251709
1618159987.48181,-175.8331,43.53293013572693
1618159987.49744,-181.3115,43.54856014251709
1618159987.51306,-186.2575,43.56418013572693
1618159987.52869,-189.5767,43.57981014251709
1618159987.54431,-190.016,43.59543013572693
1618159987.55994,-186.3794,43.61106014251709
1618159987.57557,-177.752,43.62669014930725
1618159987.59119,-163.7407,43.64231014251709
1618159987.60682,-144.626,43.65794014930725
1618159987.62244,-121.504,43.67356014251709
1618159987.63807,-96.25255,43.68919014930725
1618159987.65369,-71.18147,43.70481014251709
1618159987.66932,-48.4928,43.72044014930725
1618159987.68495,-29.76821,43.73607015609741
1618159987.70057,-15.69346,43.75169014930725
1618159987.7162,-6.131881,43.76732015609741
1618159987.73182,-0.4357982,43.78294014930725
1618159987.74745,2.156722,43.79857015609741
1618159987.76307,2.318295,43.81419014930725
1618159987.7787,0.6163874,43.82982015609741
1618159987.79433,-2.340509,43.845449924468994
1618159987.80995,-5.807961,43.86107015609741
1618159987.82558,-9.010732,43.876699924468994
1618159987.8412,-11.2385,43.89232015609741
1618159987.85683,-12.11206,43.907949924468994
1618159987.87246,-11.67924,43.923579931259155
1618159987.88808,-10.40647,43.939199924468994
1618159987.90371,-8.940577,43.954829931259155
1618159987.91933,-7.848061,43.970449924468994
1618159987.93496,-7.366303,43.986079931259155
1618159987.95058,-7.363983,44.001699924468994
1618159987.96621,-7.494925,44.017329931259155
1618159987.98184,-7.429633,44.032959938049316
1618159987.99746,-7.106848,44.048579931259155
1618159988.01309,-6.840092,44.064209938049316
1618159988.02871,-7.224859,44.079829931259155
1618159988.04434,-9.010529,44.095459938049316
1618159988.05996,-12.81574,44.111079931259155
1618159988.07559,-18.90397,44.126709938049316
1618159988.09122,-27.09555,44.14233994483948
1618159988.10684,-36.66729,44.157959938049316
1618159988.12247,-46.33266,44.17358994483948
1618159988.13809,-54.35983,44.189209938049316
1618159988.15372,-58.83283,44.20483994483948
1618159988.16934,-58.07796,44.220459938049316
1618159988.18497,-51.24595,44.23608994483948
1618159988.2006,-38.60816,44.25171995162964
1618159988.21622,-21.65171,44.26733994483948
1618159988.23185,-2.693138,44.28296995162964
1618159988.24747,15.69025,44.29858994483948
1618159988.2631,31.36289,44.31421995162964
1618159988.27872,43.04322,44.32983994483948
1618159988.29435,50.3565,44.34546995162964
1618159988.30998,53.68362,44.3610999584198
1618159988.3256,53.70499,44.37671995162964
1618159988.34123,51.20862,44.3923499584198
1618159988.35685,46.85668,44.40796995162964
1618159988.37248,41.26794,44.4235999584198
1618159988.3881,35.0462,44.43921995162964
1618159988.40373,28.87412,44.4548499584198
1618159988.41936,23.48504,44.47047996520996
1618159988.43498,19.50158,44.4860999584198
1618159988.45061,17.26572,44.50172996520996
1618159988.46623,16.67788,44.5173499584198
1618159988.48186,17.18477,44.53297996520996
1618159988.49748,17.87961,44.5485999584198
1618159988.51311,17.85839,44.56422996520996
1618159988.52874,16.51989,44.57985997200012
1618159988.54436,13.78346,44.59547996520996
1618159988.55999,10.08311,44.61110997200012
1618159988.57561,6.108826,44.62672996520996
1618159988.59124,2.485718,44.64235997200012
1618159988.60686,-0.5341797,44.65797996520996
1618159988.62249,-3.129532,44.67360997200012
1618159988.63812,-5.856552,44.68923997879028
1618159988.65374,-9.395721,44.70485997200012
1618159988.66937,-14.37117,44.72048997879028
1618159988.68499,-21.16881,44.73610997200012
1618159988.70062,-29.74368,44.75173997879028
1618159988.71624,-39.45464,44.76735997200012
1618159988.73187,-48.91196,44.78298997879028
1618159988.7475,-56.10028,44.798619985580444
1618159988.76312,-58.8278,44.81423997879028
1618159988.77875,-55.41637,44.829869985580444
1618159988.79437,-45.36522,44.84548997879028
1618159988.81,-29.66188,44.861119985580444
1618159988.82562,-10.59335,44.87673997879028
1618159988.84125,9.031693,44.892369985580444
1618159988.85688,26.65799,44.907999992370605
1618159988.8725,40.6317,44.923619985580444
1618159988.88813,50.34381,44.939249992370605
1618159988.90375,55.95316,44.954869985580444
1618159988.91938,57.98947,44.970499992370605
1618159988.935,57.06458,44.986119985580444
1618159988.95063,53.73915,45.001749992370605
1618159988.96626,48.63536,45.01737999916077
1618159988.98188,42.48209,45.032999992370605
1618159988.99751,36.07581,45.04862999916077
1618159989.01313,30.22513,45.064249992370605
1618159989.02876,25.57079,45.07987999916077
1618159989.04438,22.47952,45.095499992370605
1618159989.06001,20.95213,45.11112999916077
1618159989.07564,20.67659,45.12676000595093
1618159989.09126,21.11342,45.14237999916077
1618159989.10689,21.62106,45.15801000595093
1618159989.12251,21.61017,45.17362999916077
1618159989.13814,20.68904,45.18926000595093
1618159989.15376,18.68808,45.20487999916077
1618159989.16939,15.66902,45.22051000595093
1618159989.18502,11.80289,45.23614001274109
1618159989.20064,7.308014,45.25176000595093
1618159989.21627,2.404678,45.26739001274109
1618159989.23189,-2.721924,45.28301000595093
1618159989.24752,-7.939316,45.29864001274109
1618159989.26314,-13.27545,45.31426000595093
1618159989.27877,-18.94963,45.32989001274109
1618159989.2944,-25.35616,45.34552001953125
1618159989.31002,-32.81691,45.36114001274109
1618159989.32565,-41.23341,45.37677001953125
1618159989.34127,-49.74251,45.39239001274109
1618159989.3569,-56.70361,45.40802001953125
1618159989.37252,-60.04791,45.42364001274109
1618159989.38815,-57.9205,45.43927001953125
1618159989.40378,-49.36911,45.45490002632141
1618159989.4194,-34.853,45.47052001953125
1618159989.43503,-16.21729,45.48615002632141
1618159989.45065,3.821411,45.50177001953125
1618159989.46628,22.45129,45.51740002632141
1618159989.4819,37.56915,45.53302001953125
1618159989.49753,48.13153,45.54865002632141
1618159989.51316,54.18411,45.56428003311157
1618159989.52878,56.43771,45.57990002632141
1618159989.54441,55.80145,45.59553003311157
1618159989.56003,53.03589,45.61115002632141
1618159989.57566,48.64713,45.62678003311157
1618159989.59128,43.0307,45.64240002632141
1618159989.60691,36.70383,45.65803003311157
1618159989.62254,30.36368,45.67366003990173
1618159989.63816,24.81503,45.68928003311157
1618159989.65379,20.72977,45.70491003990173
1618159989.66941,18.42819,45.72053003311157
1618159989.68504,17.76389,45.73616003990173
1618159989.70066,18.21756,45.75178003311157
1618159989.71629,19.01007,45.76741003990173
1618159989.73192,19.30359,45.783040046691895
1618159989.74754,18.41522,45.79866003990173
1618159989.76317,15.98114,45.814290046691895
1618159989.77879,12.0675,45.82991003990173
