,index,PPG_Raw,PPG_Clean,PPG_Rate,PPG_Peaks,EDA_Raw,EDA_Clean,EDA_Tonic,EDA_Phasic,SCR_Onsets,SCR_Peaks,SCR_Height,SCR_Amplitude,SCR_RiseTime,SCR_Recovery,SCR_RecoveryTime,Index,Label,Condition,id
0,0.0,13.56927,0.0,81.45454545454545,0,0.5196573000000001,0.519662288974732,0.5222055353542508,-0.0025432642753285676,0,0,0,0,0,0,1,0,1,neutral,0
1,0.015873015873015872,4.695435,0.0,81.45454545454545,0,0.5197066242762033,0.519913140236788,0.5222279976729468,-0.002314875301893509,0,0,0,0,0,0,1,1,1,neutral,0
2,0.031746031746031744,-4.535858,0.0,81.45454545454545,0,0.5198480817148523,0.5201692604849557,0.5222504825267847,-0.0020812398768473403,0,0,0,0,0,0,0,2,1,neutral,0
3,0.047619047619047616,-15.05212,0.0,81.45454545454545,0,0.5200718992310054,0.5204393114499875,0.5222729895402809,-0.0018336958939500266,0,0,0,0,0,0,0,3,1,neutral,0
4,0.06349206349206349,-27.51779,0.0,81.45454545454545,0,0.5203683037397212,0.5207308833807975,0.5222955183367469,-0.0015646527275952424,0,0,0,0,0,0,0,4,1,neutral,0
5,0.07936507936507936,-42.04977,0.0,81.45454545454545,0,0.5207275221560587,0.5210498671194284,0.5223180685384359,-0.0012682191579901428,0,0,0,0,0,0,0,5,1,neutral,0
6,0.09523809523809523,-58.06369,0.0,81.45454545454545,0,0.521139781395076,0.5213999876673681,0.5223406397667003,-0.000940669804995584,0,0,0,0,0,0,0,6,1,neutral,0
7,0.1111111111111111,-74.09598,0.0,81.45454545454545,0,0.5215953083718321,0.5217825282988668,0.5223632316421654,-0.0005807210149825996,0,0,0,0,0,0,0,7,1,neutral,0
8,0.12698412698412698,-87.8287,0.0,81.45454545454545,0,0.5220843300013852,0.5221962546915201,0.5223858437849196,-0.0001896067304403481,0,0,0,0,0,0,0,8,1,neutral,0
9,0.14285714285714285,-96.39911,0.0,81.45454545454545,0,0.5225970731987944,0.5226375305696023,0.5224084758147232,0.00022903715314919002,0,0,0,0,0,0,0,9,1,neutral,0
10,0.15873015873015872,-97.04568,0.0,81.45454545454545,0,0.523123764879118,0.5231006014479574,0.5224311273512343,0.0006694565309760163,0,0,0,0,0,0,0,10,1,neutral,0
11,0.1746031746031746,-88.03511,0.0,81.45454545454545,0,0.5236546319574147,0.5235780120214567,0.5224537980142502,0.0011241964781176185,0,0,0,0,0,0,0,11,1,neutral,0
12,0.19047619047619047,-69.33696,0.0,81.45454545454545,0,0.5241799013487431,0.5240611158460696,0.5224764874239608,0.0015846109303572194,0,0,0,0,0,0,0,12,1,neutral,0
13,0.20634920634920634,-42.84424,0.0,81.45454545454545,0,0.5246897999681618,0.5245406330968846,0.5224991952012106,0.0020414204419425533,0,0,0,0,0,0,0,13,1,neutral,0
14,0.2222222222222222,-11.886,0.0,81.45454545454545,0,0.5251745547307294,0.5250072129950929,0.522521920967763,0.0024852746123053323,0,0,0,0,0,0,0,14,1,neutral,0
15,0.23809523809523808,19.75143,0.0,81.45454545454545,0,0.5256243925515045,0.5254519614304797,0.5225446643465629,0.002907279708289556,0,0,0,0,0,0,0,15,1,neutral,0
16,0.25396825396825395,48.84758,1.7941316011567352,81.45454545454545,0,0.5260295403455457,0.5258669007286662,0.5225674249619922,0.0032994584311388502,0,0,0,0,0,0,0,16,1,neutral,0
17,0.2698412698412698,73.28975,27.063762113870332,81.45454545454545,0,0.5263819802573632,0.526245336721511,0.5225902024401117,0.0036551169866544447,0,0,0,0,0,0,0,17,1,neutral,0
18,0.2857142857142857,92.1106,46.598011004950706,81.45454545454545,0,0.5266824259922657,0.5265821175224596,0.5226129964088877,0.003969103860319625,0,0,0,0,0,0,0,18,1,neutral,0
19,0.30158730158730157,105.0036,59.66568434943717,81.45454545454545,0,0.5269343011534978,0.5268737778884909,0.5226358064983965,0.004237954179040746,0,0,0,0,0,0,0,19,1,neutral,0
20,0.31746031746031744,111.9098,66.1737445098392,81.45454545454545,0,0.5271410301812631,0.5271185719591936,0.522658632341006,0.0044599224500423956,0,0,0,0,0,0,0,20,1,neutral,0
21,0.3333333333333333,112.8854,66.53146060548805,81.45454545454545,1,0.527306037515765,0.5273164047747504,0.5226814735715313,0.004634914078696469,0,0,0,0,0,0,0,21,1,neutral,0
22,0.3492063492063492,108.2453,61.59804772575792,81.90507206111786,0,0.5274327475972066,0.527468678758286,0.522704329827363,0.004764331850740617,0,0,0,0,0,0,0,22,1,neutral,0
23,0.36507936507936506,98.94785,52.65724998165739,82.34736167742899,0,0.5275245848657915,0.5275780750469754,0.5227272007485699,0.004850857263285464,0,0,0,0,0,0,0,23,1,neutral,0
24,0.38095238095238093,86.64456,41.3150670351641,82.78117599154274,0,0.5275849737617229,0.5276482911849555,0.5227500859779743,0.004898188217649147,0,0,0,0,0,0,0,24,1,neutral,0
25,0.3968253968253968,73.4039,29.259033896070278,83.20628211227232,0,0.5276173387252044,0.527683756476103,0.522772985161204,0.004910754372084751,0,1,0,-2147483648,-2147483648,0,0,25,1,neutral,0
26,0.4126984126984127,61.12808,17.919138271037287,83.62245297343395,0,0.5276251041964394,0.5276893445961447,0.5227958979467202,0.004893429753861574,0,0,0,0,0,0,0,26,1,neutral,0
27,0.42857142857142855,50.95953,8.1621783993578,84.02946773054745,0,0.5276116946156311,0.5276701003012185,0.5228188239858271,0.004851259467817621,0,0,0,0,0,0,0,27,1,neutral,0
28,0.4444444444444444,43.00774,0.1697231227619156,84.42711214864993,0,0.527580534422983,0.5276309936640453,0.5228417629326626,0.004789213932539726,0,0,0,0,0,0,0,28,1,neutral,0
29,0.4603174603174603,36.55687,0.0,84.81517897990264,0,0.5275350480586987,0.5275767115960016,0.5228647144441755,0.004711980402459532,0,0,0,0,0,0,0,29,1,neutral,0
30,0.47619047619047616,30.60081,0.0,85.19346832969458,0,0.527478659962981,0.5275114927794304,0.5228876781800907,0.004623797900198768,0,0,0,0,0,0,0,30,1,neutral,0
31,0.49206349206349204,24.48289,0.0,85.5617880099752,0,0.5274147945760339,0.5274390087626285,0.5229106538028662,0.004528338311600755,0,0,0,0,0,0,0,31,1,neutral,0
32,0.5079365079365079,18.29254,0.0,85.91995387858633,0,0.5273468763380604,0.5273622910028436,0.5229336409776421,0.004428633428776741,0,0,0,0,0,0,0,32,1,neutral,0
33,0.5238095238095237,12.85692,0.0,86.26779016340662,0,0.5272779493487012,0.5272837011570575,0.5229566393721866,0.004327045240944562,0,0,0,0,0,0,0,33,1,neutral,0
34,0.5396825396825397,9.329819,0.0,86.6051297701731,0,0.5272086953623005,0.5272049399499745,0.5229796486568388,0.0042252748024737274,0,0,0,0,0,0,0,34,1,neutral,0
35,0.5555555555555556,8.581833,0.0,86.93181457290154,0,0.527138890483801,0.5271270885082661,0.5230026685044498,0.004124403567188595,0,0,0,0,0,0,0,35,1,neutral,0
36,0.5714285714285714,10.68991,0.0,87.24769568589141,0,0.527068308966249,0.5270506751492913,0.5230256985903241,0.004024960177147429,0,0,0,0,0,0,0,36,1,neutral,0
37,0.5873015873015872,14.79212,0.0,87.55263371637014,0,0.5269967250626906,0.526975760250264,0.5230487385921615,0.003927005331868903,0,0,0,0,0,0,0,37,1,neutral,0
38,0.6031746031746031,19.43485,0.0,87.84649899690763,0,0.526923913026172,0.5269020319707831,0.5230717881899992,0.003830227510918339,0,0,0,0,0,0,0,38,1,neutral,0
39,0.6190476190476191,23.18661,0.0,88.12917179681145,0,0.5268496471097398,0.5268289061872268,0.5230948470661546,0.003734042908360961,0,0,0,0,0,0,0,39,1,neutral,0
40,0.6349206349206349,25.31342,0.0,88.4005425117977,0,0.5267737015664398,0.526755624913984,0.5231179149051689,0.003637693854048424,0,0,0,0,0,0,0,40,1,neutral,0
41,0.6507936507936507,26.07829,0.0,88.66051183132268,0,0.5266958506493186,0.5266813486057805,0.5231409913937517,0.003540341116000892,0,0,0,0,0,0,0,41,1,neutral,0
42,0.6666666666666666,26.57869,0.42174175202205566,88.90899088305092,0,0.5266158686114223,0.5266052389289462,0.523164076220724,0.0034411466717311576,0,0,0,0,0,0,0,42,1,neutral,0
43,0.6825396825396826,28.06757,4.222040933592736,89.14590135403185,0,0.5265335297057973,0.526526529744505,0.5231871690769624,0.0033393446913911043,0,0,0,0,0,0,0,43,1,neutral,0
44,0.6984126984126984,31.21956,9.21321617133671,89.3711755882534,0,0.5264486081854897,0.5264445850761144,0.5232102696553401,0.003234299505768843,0,0,0,0,0,0,0,44,1,neutral,0
45,0.7142857142857142,35.62738,15.096895843522145,89.58475666034028,0,0.5263608783035458,0.5263589436866757,0.5232333776506687,0.003125550182958343,0,0,0,0,0,0,0,45,1,neutral,0
46,0.7301587301587301,39.87476,20.772881973249614,89.78659842526413,0,0.526270114313012,0.5262693505369962,0.5232564927596361,0.0030128419870827272,0,0,0,0,0,0,0,46,1,neutral,0
47,0.746031746031746,42.0162,24.6086487742453,89.97666554403251,0,0.5261760904669345,0.5261757758552267,0.5232796146807445,0.002896145447795074,0,0,0,0,0,0,0,47,1,neutral,0
48,0.7619047619047619,40.35177,24.95934972050486,90.15493348542286,0,0.5260785810183595,0.5260784228359406,0.5233027431142436,0.002775664059423018,0,0,0,0,0,0,0,48,1,neutral,0
49,0.7777777777777777,34.05455,20.779548550557774,90.32138850392663,0,0.5259774723790868,0.5259777251538792,0.5233258777620641,0.002651831794781686,0,0,0,0,0,0,0,49,1,neutral,0
50,0.7936507936507936,23.46827,12.158040513032171,90.476027594164,0,0.5258735277877423,0.5258743355618395,0.5233490183277467,0.0025253017031313762,0,0,0,0,0,0,0,50,1,neutral,0
51,0.8095238095238095,10.1508,0.6355134688178332,90.61885842212524,0,0.5257679230394651,0.5257691068778844,0.5233721645163715,0.002396926897459052,0,0,0,0,0,0,0,51,1,neutral,0
52,0.8253968253968254,-3.257351,0.0,90.74989923368426,0,0.5256618363333447,0.5256630666722297,0.523395316034484,0.0022677352414394937,0,0,0,0,0,0,0,52,1,neutral,0
53,0.8412698412698412,-13.1887,0.0,90.86917874091911,0,0.5255564458684713,0.5255573869451458,0.5234184725900213,0.002138899027409766,0,0,0,0,0,0,0,53,1,neutral,0
54,0.8571428571428571,-15.56826,0.0,90.97673598685688,0,0.5254529298439345,0.5254533500469627,0.5234416338922372,0.0020117008964504394,0,0,0,0,0,0,0,54,1,neutral,0
55,0.873015873015873,-6.603691,0.0,91.07262018933937,0,0.5253524664588247,0.5253523120368775,0.5234647996516278,0.0018874971972667473,0,0,0,0,0,0,0,55,1,neutral,0
56,0.8888888888888888,16.00056,22.248751491327127,91.15689056478107,0,0.5252562339122313,0.5252556646210994,0.5234879695798584,0.0017676799244071583,0,0,0,0,0,0,0,56,1,neutral,0
57,0.9047619047619047,51.74699,60.54153054963904,91.2296161326582,0,0.5251654104032447,0.5251647967666501,0.5235111433896914,0.001653638332135208,0,0,0,0,0,0,0,57,1,neutral,0
58,0.9206349206349206,96.67471,106.61661833826355,91.29087550163227,0,0.5250811741309546,0.5250810570643378,0.5235343207949169,0.0015467212974730367,0,0,0,0,0,0,0,58,1,neutral,0
59,0.9365079365079365,143.8575,154.13263537880434,91.34075663826742,0,0.525004703294451,0.5250057179141682,0.5235575015102873,0.0014482015056782515,0,0,0,0,0,0,0,59,1,neutral,0
60,0.9523809523809523,185.166,196.13601615507753,91.3793566193522,0,0.5249371760928238,0.5249399426192789,0.5235806852514556,0.0013592425442396634,0,0,0,0,0,0,0,60,1,neutral,0
61,0.9682539682539681,213.7341,226.838502990181,91.40678136888144,0,0.5248797707251629,0.5248847564805582,0.5236038717349183,0.001280869997553277,0,0,0,0,0,0,0,61,1,neutral,0
62,0.9841269841269841,226.0634,243.0417534119601,91.42314538079121,0,0.5248336653905584,0.5248410229554573,0.5236270606779644,0.0012139476057858702,0,0,0,0,0,0,0,62,1,neutral,0
63,1.0,222.7775,244.70672662268512,91.42857142857143,1,0.5248000382881,0.5248094258494868,0.5236502517986296,0.0011591594564163464,0,0,0,0,0,0,0,63,1,neutral,0
0,0.0,-35.6619,0.0,82.66563490217106,0,0.5362662308070143,0.5362989365698999,0.5394445591289182,-0.003145491966939649,0,0,0,0,0,0,0,1045,3,neutral,2
1,0.015873015873015872,-53.75719,0.0,82.60898988482035,0,0.5361843635035122,0.5362089663412349,0.5394602134711995,-0.0032511202445668504,0,0,0,0,0,0,0,1046,3,neutral,2
2,0.031746031746031744,-71.05562,0.0,82.55231988232141,0,0.5361356731817867,0.5361495242415826,0.539475880953041,-0.003326233561631038,0,0,0,0,0,0,0,1047,3,neutral,2
3,0.047619047619047616,-87.18878,0.0,82.49582999929854,0,0.5361177939075142,0.5361206842632518,0.5394915615635149,-0.0033707579150064264,0,0,0,0,0,0,0,1048,3,neutral,2
4,0.06349206349206349,-102.4565,0.0,82.43972421961686,0,0.536128359746371,0.5361217083493118,0.5395072552897711,-0.0033854313488847422,1,0,0,0,0,0,0,1049,3,neutral,2
5,0.07936507936507936,-117.7677,0.0,82.38420542225177,0,0.5361650047640335,0.536151150470621,0.5395229621170111,-0.0033716998777202846,0,0,0,0,0,0,0,1050,3,neutral,2
6,0.09523809523809523,-134.3735,0.0,82.32947540711426,0,0.5362253630261785,0.5362069784567899,0.539538682028479,-0.0033315956552573793,0,0,0,0,0,0,0,1051,3,neutral,2
7,0.1111111111111111,-153.3483,0.0,82.27573493069367,0,0.536307068598482,0.5362867063542835,0.5395544150054686,-0.003267604616436289,0,0,0,0,0,0,0,1052,3,neutral,2
8,0.12698412698412698,-175.0821,0.0,82.2231837513854,0,0.5364077555466209,0.5363875303568045,0.5395701610273465,-0.0031825305470319218,0,0,0,0,0,0,0,1053,3,neutral,2
9,0.14285714285714285,-198.7929,0.0,82.17202068438017,0,0.5365250579362717,0.5365064620342913,0.5395859200715877,-0.003079361854692522,0,0,0,0,0,0,0,1054,3,neutral,2
10,0.15873015873015872,-222.2242,0.0,82.1224436660016,0,0.5366566098331104,0.5366404535440831,0.5396016921138251,-0.002961146357822778,0,0,0,0,0,0,0,1055,3,neutral,2
11,0.1746031746031746,-241.8423,0.0,82.07464982739181,0,0.5368000453028138,0.5367865106069872,0.5396174771279079,-0.0028308783095758938,0,0,0,0,0,0,0,1056,3,neutral,2
12,0.19047619047619047,-253.4235,0.0,82.02883557745844,0,0.5369529984110583,0.5369417901565066,0.5396332750859693,-0.0026914007486939675,0,0,0,0,0,0,0,1057,3,neutral,2
13,0.20634920634920634,-253.0973,0.0,81.98519669501297,0,0.5371131032235203,0.5371036806356172,0.5396490859585014,-0.002545325202804514,0,0,0,0,0,0,0,1058,3,neutral,2
14,0.2222222222222222,-238.5201,0.0,81.94392843004785,0,0.5372779938058765,0.5372698638707455,0.5396649097144357,-0.0023949698145242365,0,0,0,0,0,0,0,1059,3,neutral,2
15,0.23809523809523808,-209.6989,0.0,81.90522561411922,0,0.5374453042238031,0.5374383582773566,0.5396807463212271,-0.0022423161359544294,0,0,0,0,0,0,0,1060,3,neutral,2
16,0.25396825396825395,-169.1227,0.0,81.8692827798242,0,0.5376126728593849,0.5376075438500784,0.5396965957449404,-0.002088984138644013,0,0,0,0,0,0,0,1061,3,neutral,2
17,0.2698412698412698,-121.1972,0.0,81.83629428938389,0,0.5377784788594047,0.5377761699779823,0.5397124579503388,-0.0019362243983964424,0,0,0,0,0,0,0,1062,3,neutral,2
18,0.2857142857142857,-71.12274,0.0,81.80645447236849,0,0.5379426757546146,0.5379433476144817,0.5397283329009726,-0.00178492592546017,0,0,0,0,0,0,0,1063,3,neutral,2
19,0.30158730158730157,-23.69461,0.0,81.77995777262818,0,0.5381054184621045,0.5381085277185264,0.539744220559267,-0.0016356377234229696,0,0,0,0,0,0,0,1064,3,neutral,2
20,0.31746031746031744,17.5374,2.556380020732334,81.75699890452108,0,0.5382668618989643,0.5382714681517585,0.5397601208866107,-0.0014886018921428212,0,0,0,0,0,0,0,1065,3,neutral,2
21,0.3333333333333333,50.52026,35.7945253965595,81.73777301856073,0,0.5384271609822837,0.5384321913455073,0.5397760338434422,-0.001343795960840602,0,0,0,0,0,0,0,1066,3,neutral,2
22,0.3492063492063492,74.56201,59.78754165440742,81.72247587663827,0,0.5385864706291527,0.5385909350378509,0.5397919593893347,-0.0012009821511233885,0,0,0,0,0,0,0,1067,3,neutral,2
23,0.36507936507936506,89.95621,74.7747684901112,81.71130403700822,0,0.5387449457566609,0.5387480982449445,0.5398078974830804,-0.0010597614057405143,0,0,0,0,0,0,0,1068,3,neutral,2
24,0.38095238095238093,97.66296,81.90819278533542,81.70445504926487,0,0.5389027412818982,0.538904184413955,0.5398238480827742,-0.0009196302357314352,0,0,0,0,0,0,0,1069,3,neutral,2
25,0.3968253968253968,99.12453,82.89430421839019,81.70212765957447,1,0.5390600121219548,0.5390597434588719,0.5398398111458949,-0.0007800386846976903,0,0,0,0,0,0,0,1070,3,neutral,2
26,0.4126984126984127,96.11472,79.66829269478725,81.7204431227326,0,0.5392169131939202,0.5392153141549786,0.5398557866293876,-0.0006404479344126138,0,0,0,0,0,0,0,1071,3,neutral,2
27,0.42857142857142855,90.53156,74.11342732912195,81.77422599153202,0,0.5393735994148843,0.5393713682013995,0.5398717744897443,-0.000500386242355944,0,0,0,0,0,0,0,1072,3,neutral,2
28,0.4444444444444444,84.11682,67.82688407100346,81.86179329279062,0,0.5395302257019369,0.5395282571749233,0.5398877746830852,-0.0003595019879713457,0,0,0,0,0,0,0,1073,3,neutral,2
29,0.4603174603174603,78.16571,61.94850372195325,81.98153363110072,0,0.5396869469721679,0.5396861635930398,0.5399037871652402,-0.00021761260971079536,0,0,0,0,0,0,0,1074,3,neutral,2
30,0.47619047619047616,73.36998,57.08550637093861,82.13189371564798,0,0.5398439181426673,0.5398450573608705,0.5399198118918307,-7.474815818635033e-05,0,0,0,0,0,0,0,1075,3,neutral,2
31,0.49206349206349204,69.83307,53.36112377433659,82.31136583677286,0,0.5400012941305249,0.5400046589606505,0.5399358488183522,6.881189322942879e-05,0,0,0,0,0,0,0,1076,3,neutral,2
32,0.5079365079365079,67.23347,50.5829060077515,82.5184761606627,0,0.5401592287833449,0.5401644108099515,0.539951897900257,0.00021251000654407362,0,0,0,0,0,0,0,1077,3,neutral,2
33,0.5238095238095237,65.16248,48.48088072861754,82.75177373265392,0,0.5403173529286355,0.540323458223047,0.5399679590930372,0.00035549154042707515,0,0,0,0,0,0,0,1078,3,neutral,2
34,0.5396825396825397,63.37527,46.93074591531021,83.00982009919528,0,0.540473933119759,0.5404806413276892,0.5399840323523081,0.0004965966669032943,0,0,0,0,0,0,0,1079,3,neutral,2
35,0.5555555555555556,61.96222,46.073596292395294,83.29117947610801,0,0.5406270162602255,0.5406344991063272,0.5400001176338908,0.0006343644124882457,0,0,0,0,0,0,0,1080,3,neutral,2
36,0.5714285714285714,61.3515,46.27834059890802,83.59440940681202,0,0.5407746492535445,0.5407832864558193,0.5400162148938938,0.0007670497178198735,0,0,0,0,0,0,0,1081,3,neutral,2
37,0.5873015873015872,62.11865,47.95571906916068,83.91805186902835,0,0.5409148790032259,0.5409250048117153,0.5400323240887926,0.000892654061860527,0,0,0,0,0,0,0,1082,3,neutral,2
38,0.6031746031746031,64.65558,51.29942289852406,84.2606248024072,0,0.5410457524127792,0.5410574464757317,0.540048445175506,0.001008969789295847,0,0,0,0,0,0,0,1083,3,neutral,2
39,0.6190476190476191,68.85791,56.07078977939911,84.62061404280068,0,0.5411653163857144,0.5411782523188229,0.5400645781114684,0.0011136378135341192,0,0,0,0,0,0,0,1084,3,neutral,2
40,0.6349206349206349,73.99792,61.53692713915617,84.9964656616792,0,0.541271617825541,0.5412849819985491,0.5400807228546964,0.0012042178340068356,0,0,0,0,0,0,0,1085,3,neutral,2
41,0.6507936507936507,78.84415,66.61510300873682,85.38657872161126,0,0.5413627036357692,0.5413751952203854,0.5400968793638493,0.0012782695974178297,0,0,0,0,0,0,0,1086,3,neutral,2
42,0.6666666666666666,82.03799,70.1892745227379,85.78929847087207,0,0.5414366207199082,0.5414465418922462,0.5401130475982806,0.0013334430522158672,0,0,0,0,0,0,0,1087,3,neutral,2
43,0.6825396825396826,82.59808,71.4843261321413,86.20291001215246,0,0.541491415981468,0.5414968582940295,0.5401292275180807,0.0013675745180965807,0,0,0,0,0,0,0,1088,3,neutral,2
44,0.6984126984126984,80.27368,70.3468895278327,86.62563249199637,0,0.5415251363239584,0.5415242656580239,0.5401454190841081,0.0013787852663782534,0,1,0,0,0,0,0,1089,3,neutral,2
45,0.7142857142857142,75.64737,67.30819976118133,87.05561386894519,0,0.5415358286508891,0.5415272669041089,0.5401616222580087,0.001365578255182504,0,0,0,0,0,0,0,1090,3,neutral,2
46,0.7301587301587301,69.93924,63.38671697331094,87.49092632929813,0,0.5415215398657698,0.5415048367864362,0.5401778370022219,0.001326928276109742,0,0,0,0,0,0,0,1091,3,neutral,2
47,0.746031746031746,64.48441,59.693964209386486,87.92956242975198,0,0.5414803168721103,0.5414565004832,0.5401940632799729,0.0012623605440175145,0,0,0,0,0,0,0,1092,3,neutral,2
48,0.7619047619047619,60.23361,56.992910555882055,88.36943205574565,0,0.541410206948287,0.541382395785469,0.5402103010552496,0.0011720128858748657,0,0,0,0,0,0,0,1093,3,neutral,2
49,0.7777777777777777,57.40567,55.38814008854292,88.80836029283708,0,0.5413104711127348,0.5412833145698124,0.5402265502927653,0.0010566772134258736,0,0,0,0,0,0,0,1094,3,neutral,2
50,0.7936507936507936,55.36728,54.286452032491496,89.24408631556443,0,0.5411842811751317,0.5411607201707171,0.5402428109579069,0.0009178168956589385,0,0,0,0,0,0,0,1095,3,neutral,2
51,0.8095238095238095,52.91367,52.667523313075314,89.6742634036196,0,0.5410355950973822,0.5410167385273087,0.540259083016668,0.0007575579055946031,0,0,0,0,0,0,0,1096,3,neutral,2
52,0.8253968253968254,48.79919,49.581597438808075,90.09646019838087,0,0.5408683708413912,0.5408541224235748,0.5402753664355692,0.000578653060588769,0,0,0,0,0,0,0,1097,3,neutral,2
53,0.8412698412698412,42.39932,44.691624177718005,90.50816331346296,0,0.5406865663690633,0.5406761896038088,0.5402916611815651,0.00038442013786842805,0,0,0,0,0,0,0,1098,3,neutral,2
54,0.8571428571428571,34.2319,38.64352563403166,90.90678141048474,0,0.5404941396423036,0.5404867368814225,0.5403079672219423,0.00017865598344755397,0,0,0,0,0,0,0,1099,3,neutral,2
55,0.873015873015873,26.1217,33.100630433144175,91.28965084524884,0,0.5402950486230168,0.540289933484169,0.5403242845242069,-3.447014253837508e-05,0,0,0,0,0,0,0,1100,3,neutral,2
56,0.8888888888888888,20.78479,30.401665814644893,91.65404297952493,0,0.5400932512731075,0.5400901977673384,0.5403406130559668,-0.0002505398525184738,0,0,0,0,0,0,0,1101,3,neutral,2
57,0.9047619047619047,21.00525,32.94642495209746,91.99717323920994,0,0.5398927055544805,0.5398920620947256,0.5403569527848093,-0.000465020750396387,0,0,0,0,0,0,0,1102,3,neutral,2
58,0.9206349206349206,28.73618,42.51546330214914,92.31621198047054,0,0.5396973694290408,0.5397000311670282,0.5403733036781767,-0.0006734081030279376,0,0,0,0,0,0,0,1103,3,neutral,2
59,0.9365079365079365,44.43454,59.74431987678201,92.60829720131555,0,0.5395112008586929,0.5395184393953018,0.540389665703243,-0.0008713674666426041,0,0,0,0,0,0,0,1104,3,neutral,2
60,0.9523809523809523,67.00638,83.89751547057404,92.87054910681229,0,0.5393381578053418,0.5393513130800551,0.5404060388267944,-0.001054872507628725,0,0,0,0,0,0,0,1105,3,neutral,2
61,0.9682539682539681,94.12762,112.96721886898226,93.10008650193424,0,0.5391821982308921,0.5392022431452788,0.5404224230151153,-0.0012203322683912925,0,0,0,0,0,0,0,1106,3,neutral,2
62,0.9841269841269841,122.8482,144.01890407087043,93.29404494710766,0,0.5390472800972488,0.5390742739475595,0.5404388182338834,-0.0013647023581315366,0,0,0,0,0,0,0,1107,3,neutral,2
63,1.0,150.0087,173.66453353296103,93.4495965684573,0,0.5389373613663165,0.5389698131753908,0.5404552244480737,-0.001485575053442115,0,0,0,0,0,0,0,1108,3,neutral,2
0,0.0,17.20076,0.0,51.70493590868387,0,0.5554436403016912,0.5554643135996836,0.5576329134641335,-0.002070433471308922,0,0,0,0,0,0,0,2332,5,neutral,4
1,0.015873015873015872,30.42322,0.0,51.25880871295401,0,0.5554389590864719,0.5554538726681704,0.5576449903838242,-0.0020924841851829423,0,0,0,0,0,0,0,2333,5,neutral,4
2,0.031746031746031744,41.4003,0.0,50.8245321720334,0,0.555456312379617,0.5554648301830327,0.55765707369861,-0.0020931419785431837,0,0,0,0,0,0,0,2334,5,neutral,4
3,0.047619047619047616,49.34331,2.782307986164394,50.40212670215913,0,0.55549381854919,0.5554962386592294,0.5576691634137937,-0.0020733543469951547,0,0,0,0,0,0,0,2335,5,neutral,4
4,0.06349206349206349,54.8788,8.889747172631145,49.99160408004711,0,0.5555495959632538,0.5555467919202499,0.5576812595334114,-0.0020344274764036614,0,0,0,0,0,0,0,2336,5,neutral,4
5,0.07936507936507936,59.43445,13.622217131303449,49.59296879532804,0,0.555621762989872,0.5556148839983912,0.557693362060243,-0.0019779673426281352,0,0,0,0,0,0,0,2337,5,neutral,4
6,0.09523809523809523,64.26202,17.971302337199,49.206219328379774,0,0.5557084379971078,0.5556986753996253,0.5577054709958341,-0.001905813446676614,0,0,0,0,0,0,0,2338,5,neutral,4
7,0.1111111111111111,69.88828,22.677802831649284,48.83134935848515,0,0.5558077393530244,0.5557961627809205,0.5577175863405284,-0.0018199691374169672,0,0,0,0,0,0,0,2339,5,neutral,4
8,0.12698412698412698,76.07259,27.955037207495085,48.468348907299486,0,0.5559177854256855,0.5559052481924236,0.557729708093508,-0.001722532369436205,0,0,0,0,0,0,0,2340,5,neutral,4
9,0.14285714285714285,82.10338,33.470924509870066,48.117205422638044,0,0.5560366945831539,0.5560238043819045,0.5577418362528429,-0.0016156303986449064,0,0,0,0,0,0,0,2341,5,neutral,4
10,0.15873015873015872,87.2363,38.5274565537531,47.777904807595604,0,0.556162585193493,0.5561497331826634,0.5577539708155467,-0.001501361394425534,0,0,0,0,0,0,0,2342,5,neutral,4
11,0.1746031746031746,90.86488,42.32122392017459,47.450432399996245,0,0.5562935756247662,0.556281014650268,0.5577661117776376,-0.0013817453029577216,0,0,0,0,0,0,0,2343,5,neutral,4
12,0.19047619047619047,92.59308,44.185541352601184,47.13477390714677,0,0.5564277842450369,0.556415745328743,0.5577782591342035,-0.0012586855810936862,0,0,0,0,0,0,0,2344,5,neutral,4
13,0.20634920634920634,92.17157,43.76558634412948,46.830916300837096,0,0.5565633294223682,0.5565521647751613,0.5577904128794716,-0.0011339426718363107,0,0,0,0,0,0,0,2345,5,neutral,4
14,0.2222222222222222,89.58182,41.11817511088573,46.53884867750003,0,0.5566983295248235,0.5566886702250657,0.5578025730068783,-0.0010091193389884833,0,0,0,0,0,0,0,2346,5,neutral,4
15,0.23809523809523808,85.13977,36.73750527644291,46.25856308841647,0,0.5568309191702332,0.5568238200178804,0.5578147395091412,-0.0008856572418127484,0,0,0,0,0,0,0,2347,5,neutral,4
16,0.25396825396825395,79.60696,31.498644909131247,45.990055344833095,0,0.5569597950695288,0.556956327099442,0.5578269123783306,-0.0007648434325734246,0,0,0,0,0,0,0,2348,5,neutral,4
17,0.2698412698412698,74.09592,26.50663512761389,45.73332580285284,0,0.5570843462121031,0.5570850445493072,0.5578390916059408,-0.0006478248292992798,0,0,0,0,0,0,0,2349,5,neutral,4
18,0.2857142857142857,69.74512,22.85630056174469,45.488380132967244,0,0.5572040042289131,0.5572089456046119,0.5578512771829595,-0.0005356281919952064,0,0,0,0,0,0,0,2350,5,neutral,4
19,0.30158730158730157,67.41385,21.34212456062856,45.25523007912758,0,0.5573182007509158,0.5573271010239241,0.5578634690999351,-0.0004291827588562503,0,0,0,0,0,0,0,2351,5,neutral,4
20,0.31746031746031744,67.34525,22.191911017881715,45.03389421230171,0,0.5574263674090683,0.5574386568106168,0.5578756673470417,-0.000329342522959957,0,0,0,0,0,0,0,2352,5,neutral,4
21,0.3333333333333333,69.13785,24.915757050937454,44.824398683541176,0,0.5575279358343272,0.557542815266858,0.55788787191414,-0.00023690517833749948,0,0,0,0,0,0,0,2353,5,neutral,4
22,0.3492063492063492,71.78601,28.353594267443693,44.62677798168907,0,0.55762233765765,0.5576388220681517,0.5579000827908347,-0.00015262504549099645,0,0,0,0,0,0,0,2354,5,neutral,4
23,0.36507936507936506,73.92276,30.96623837146249,44.44107570100042,0,0.5577090045099932,0.5577259615471686,0.5579122999665278,-7.721778761577086e-05,0,0,0,0,0,0,0,2355,5,neutral,4
24,0.38095238095238093,74.11755,31.345958297088735,44.26734532412584,0,0.557787368022314,0.5578035616850864,0.5579245234304668,-1.1355419308809952e-05,0,0,0,0,0,0,0,2356,5,neutral,4
25,0.3968253968253968,71.40921,28.831456037702118,44.1056510261312,0,0.5578568598255692,0.5578710094739746,0.5579367531717886,4.434905577194935e-05,0,0,0,0,0,0,0,2357,5,neutral,4
26,0.4126984126984127,65.86478,24.02620997152153,43.956068505496305,0,0.5579169115507159,0.5579277763914814,0.5579489891795565,8.936711955715159e-05,0,0,0,0,0,0,0,2358,5,neutral,4
27,0.42857142857142855,59.1109,18.984951501191947,43.81868584835991,0,0.5579669548287112,0.5579734527843246,0.5579612314427931,0.00012328912302418,0,0,0,0,0,0,0,2359,5,neutral,4
28,0.4444444444444444,54.37173,16.895737375948997,43.69360443266343,0,0.5580064212905117,0.558007789060243,0.5579734799505053,0.00014586547812265753,0,0,0,0,0,0,0,2360,5,neutral,4
29,0.4603174603174603,55.70959,21.25288659792602,43.58093987929869,0,0.5580347425670745,0.5580307408107276,0.5579857346917034,0.0001570517804865123,0,0,0,0,0,0,0,2361,5,neutral,4
30,0.47619047619047616,66.6174,34.73536320047276,43.48082305789554,0,0.5580513502893568,0.5580425143961862,0.5579979956554147,0.00015705439458455985,0,0,0,0,0,0,0,2362,5,neutral,4
31,0.49206349206349204,88.50836,58.173264232424444,43.39340115550218,0,0.5580556962421815,0.5580436091764522,0.5580102628306896,0.00014637268422354103,0,0,0,0,0,0,0,2363,5,neutral,4
32,0.5079365079365079,119.7581,90.00321469449601,43.31883881712661,0,0.558048324258624,0.5580348524965162,0.5580225362066006,0.00012583399827922908,0,0,0,0,0,0,0,2364,5,neutral,4
33,0.5238095238095237,155.9335,126.45012423575619,43.257319367935494,0,0.5580314066986073,0.558017423742589,0.5580348157722372,9.661772676576613e-05,0,0,0,0,0,0,0,2365,5,neutral,4
34,0.5396825396825397,191.0602,162.39291591109907,43.20904612786222,0,0.5580072487722447,0.5579928642340887,0.5580471015166935,6.0265192833620755e-05,0,0,0,0,0,0,0,2366,5,neutral,4
35,0.5555555555555556,219.3924,192.60774623290723,43.17424383047707,0,0.5579781556896499,0.5579630703527667,0.5580593934290512,1.8672781912693894e-05,0,0,0,0,0,0,0,2367,5,neutral,4
36,0.5714285714285714,236.889,212.95967241270557,43.15316015924156,0,0.5579464326609368,0.557930268065128,0.5580716914983593,-2.5933535846960347e-05,0,0,0,0,0,0,0,2368,5,neutral,4
37,0.5873015873015872,241.8682,221.18042500687415,43.146067415730336,1,0.5579143848962189,0.5578969678196494,0.5580839957136099,-7.104330833365328e-05,0,0,0,0,0,0,0,2369,5,neutral,4
38,0.6031746031746031,234.7734,217.07261842067965,43.26704215322209,0,0.5578843176056099,0.5578658996741397,0.5580963060637126,-0.00011392647408800462,0,0,0,0,0,0,0,2370,5,neutral,4
39,0.6190476190476191,217.4567,202.20391631981053,43.621580535710066,0,0.5578585359992232,0.5578399294302141,0.5581086225374695,-0.00015171722780433767,0,0,0,0,0,0,0,2371,5,neutral,4
40,0.6349206349206349,192.4611,179.29340524198065,44.202049549193916,0,0.5578393452871726,0.5578219575273899,0.55812094512355,-0.00018151512620979943,0,0,0,0,0,0,0,2372,5,neutral,4
41,0.6507936507936507,162.5222,151.50971641497406,45.00656495795152,0,0.5578290506795721,0.5578148034763943,0.5581332738104702,-0.0002005006547358541,0,0,0,0,0,0,0,2373,5,neutral,4
42,0.6666666666666666,130.3069,121.83419692898276,46.03826313228002,0,0.5578299573865348,0.5578210796670395,0.5581456085865751,-0.00020606141962663672,1,0,0,0,0,0,0,2374,5,neutral,4
43,0.6825396825396826,98.10724,92.56428713986594,47.30486506581949,0,0.5578443706181747,0.5578430594199725,0.5581579494400295,-0.00019592409617926856,0,0,0,0,0,0,0,2375,5,neutral,4
44,0.6984126984126984,67.48401,64.99288648063383,48.818446223811414,0,0.5578745955846056,0.5578825450843806,0.558170296358814,-0.00016828633103508522,0,0,0,0,0,0,0,2376,5,neutral,4
45,0.7142857142857142,38.92993,39.29973787362086,50.59534751085605,0,0.5579229374959409,0.5579407427125633,0.5581826493307313,-0.00012194206761496082,0,0,0,0,0,0,0,2377,5,neutral,4
46,0.7301587301587301,11.75928,14.694009317731261,52.65617064499746,0,0.5579917015622944,0.5580181502537473,0.5581950083434223,-5.6393352319941546e-05,0,0,0,0,0,0,0,2378,5,neutral,4
47,0.746031746031746,-15.48547,0.0,55.025797419457234,0,0.5580831677358157,0.5581144661999069,0.5582073733843932,2.805831126170236e-05,0,0,0,0,0,0,0,2379,5,neutral,4
48,0.7619047619047619,-44.36597,0.0,57.73335604494148,0,0.5581972075100476,0.5582285251188263,0.558219744441053,0.00013024749537889334,0,0,0,0,0,0,0,2380,5,neutral,4
49,0.7777777777777777,-75.69781,0.0,60.81202615514957,0,0.5583293280829977,0.5583582655236036,0.5582321215007621,0.0002481127175731488,0,0,0,0,0,0,0,2381,5,neutral,4
50,0.7936507936507936,-109.0442,0.0,64.29852224208145,0,0.5584745763457084,0.5585007341356496,0.55824450455089,0.0003787007036182579,0,0,0,0,0,0,0,2382,5,neutral,4
51,0.8095238095238095,-142.3983,0.0,68.23201661775288,0,0.5586279991892227,0.5586521289502826,0.5582568935788835,0.0005182094530480951,0,0,0,0,0,0,0,2383,5,neutral,4
52,0.8253968253968254,-172.5045,0.0,72.65215021670863,0,0.5587846435045833,0.558807881778208,0.5582692885723405,0.0006620707805608018,0,0,0,0,0,0,0,2384,5,neutral,4
53,0.8412698412698412,-195.3635,0.0,77.59562819090014,0,0.5589395561828332,0.5589627792402884,0.5582816895190894,0.0008050713107101046,0,0,0,0,0,0,0,2385,5,neutral,4
54,0.8571428571428571,-207.1233,0.0,83.09071380907415,0,0.5590877841150149,0.5591111195952085,0.5582940964072717,0.0009415093054873614,0,0,0,0,0,0,0,2386,5,neutral,4
55,0.873015873015873,-205.0409,0.0,89.14875322441962,0,0.5592243741921713,0.5592469012778308,0.5583065092254219,0.0010653832025960771,0,0,0,0,0,0,0,2387,5,neutral,4
56,0.8888888888888888,-188.2772,0.0,95.75177897058508,0,0.5593443733053455,0.5593640375898353,0.5583189279625457,0.0011706063060145347,0,0,0,0,0,0,0,2388,5,neutral,4
57,0.9047619047619047,-158.2559,0.0,102.8354515113873,0,0.5594428283455798,0.5594565905896486,0.5583313526081889,0.0012512406758545755,0,0,0,0,0,0,0,2389,5,neutral,4
58,0.9206349206349206,-118.4522,0.0,110.26745972348053,0,0.5595147862039173,0.5595190158854397,0.5583437831524972,0.0013017419212977522,0,0,0,0,0,0,0,2390,5,neutral,4
59,0.9365079365079365,-73.71283,0.0,117.82350804609885,0,0.5595552937714006,0.5595464088030427,0.5583562195862609,0.0013172053684728038,0,1,0,0,0,0,0,2391,5,neutral,4
60,0.9523809523809523,-29.27179,14.761077256768761,125.16658745365208,0,0.5595593979390725,0.5595347413941582,0.5583686619009425,0.0012936030686292903,0,0,0,0,0,0,0,2392,5,neutral,4
61,0.9682539682539681,10.09497,57.537385529496746,131.84006028352096,0,0.5595221455979761,0.5594810791278414,0.5583811100886841,0.001228000489618497,0,0,0,0,0,0,0,2393,5,neutral,4
62,0.9841269841269841,40.66174,91.57315536955653,137.28908320421692,0,0.5594385836391538,0.5593837660497651,0.5583935641422929,0.001118741675169757,0,0,0,0,0,0,0,2394,5,neutral,4
63,1.0,60.05292,114.16685625928174,140.92340851588273,0,0.5593037773469178,0.5592425678618772,0.5584060240552018,0.0009655923245872245,0,0,0,0,0,0,0,2395,5,neutral,4
