timestamp,value,norm_ts
1618821341.06024,4.713135,2.8925299644470215
1618821341.07586,3.102173,2.9081499576568604
1618821341.09149,1.036407,2.9237799644470215
1618821341.10711,-1.379395,2.9393999576568604
1618821341.12274,-3.925659,2.9550299644470215
1618821341.13836,-6.272491,2.9706499576568604
1618821341.15399,-8.188873,2.9862799644470215
1618821341.16962,-9.552216,3.0019099712371826
1618821341.18524,-10.50128,3.0175299644470215
1618821341.20087,-11.28046,3.0331599712371826
1618821341.21649,-12.2291,3.0487799644470215
1618821341.23212,-13.5813,3.0644099712371826
1618821341.24774,-15.41754,3.0800299644470215
1618821341.26337,-17.64096,3.0956599712371826
1618821341.279,-19.90555,3.1112899780273438
1618821341.29462,-21.74808,3.1269099712371826
1618821341.31025,-22.52127,3.1425399780273438
1618821341.32587,-21.74194,3.1581599712371826
1618821341.3415,-19.11227,3.1737899780273438
1618821341.35712,-14.8111,3.1894099712371826
1618821341.37275,-9.391907,3.2050399780273438
1618821341.38838,-3.694275,3.220669984817505
1618821341.404,1.418152,3.2362899780273438
1618821341.41963,5.350586,3.251919984817505
1618821341.43525,7.839783,3.2675399780273438
1618821341.45088,9.033966,3.283169984817505
1618821341.4665,9.247681,3.2987899780273438
1618821341.48213,8.905731,3.314419984817505
1618821341.49776,8.326294,3.330049991607666
1618821341.51338,7.775116,3.345669984817505
1618821341.52901,7.455902,3.361299991607666
1618821341.54463,7.49353,3.376919984817505
1618821341.56026,7.951538,3.392549991607666
1618821341.57588,8.788879,3.408169984817505
1618821341.59151,9.824127,3.423799991607666
1618821341.60714,10.77103,3.439429998397827
1618821341.62276,11.35873,3.455049991607666
1618821341.63839,11.40482,3.470679998397827
1618821341.65401,10.88498,3.486299991607666
1618821341.66964,9.961731,3.501929998397827
1618821341.68526,8.829987,3.517549991607666
1618821341.70089,7.672089,3.533179998397827
1618821341.71652,6.561554,3.5488100051879883
1618821341.73214,5.459961,3.564429998397827
1618821341.74777,4.317322,3.5800600051879883
1618821341.76339,3.072723,3.595679998397827
1618821341.77902,1.72403,3.6113100051879883
1618821341.79464,0.2800598,3.626929998397827
1618821341.81027,-1.261475,3.6425600051879883
1618821341.8259,-2.967621,3.6581900119781494
1618821341.84152,-4.883484,3.6738100051879883
1618821341.85715,-7.051483,3.6894400119781494
1618821341.87277,-9.423065,3.7050600051879883
1618821341.8884,-11.87357,3.7206900119781494
1618821341.90403,-14.19083,3.7363200187683105
1618821341.91965,-16.07751,3.7519400119781494
1618821341.93528,-17.25998,3.7675700187683105
1618821341.9509,-17.4361,3.7831900119781494
1618821341.96653,-16.40714,3.7988200187683105
1618821341.98215,-14.06439,3.8144400119781494
1618821341.99778,-10.49078,3.8300700187683105
1618821342.01341,-5.979187,3.8457000255584717
1618821342.02903,-1.00354,3.8613200187683105
1618821342.04466,3.876694,3.8769500255584717
1618821342.06028,8.147003,3.8925700187683105
1618821342.07591,11.44427,3.9082000255584717
1618821342.09153,13.67456,3.9238200187683105
1618821342.10716,14.97177,3.9394500255584717
1618821342.12279,15.59497,3.955080032348633
1618821342.13841,15.8297,3.9707000255584717
1618821342.15404,15.83521,3.986330032348633
1618821342.16966,15.74139,4.001950025558472
1618821342.18529,15.58046,4.017580032348633
1618821342.20091,15.3425,4.033200025558472
1618821342.21654,15.05426,4.048830032348633
1618821342.23217,14.68912,4.064460039138794
1618821342.24779,14.20538,4.080080032348633
1618821342.26342,13.5065,4.095710039138794
1618821342.27904,12.53291,4.111330032348633
1618821342.29467,11.28494,4.126960039138794
1618821342.31029,9.87001,4.142580032348633
1618821342.32592,8.395203,4.158210039138794
1618821342.34155,6.945114,4.173840045928955
1618821342.35717,5.599869,4.189460039138794
1618821342.3728,4.381775,4.205090045928955
1618821342.38842,3.304504,4.220710039138794
1618821342.40405,2.302719,4.236340045928955
1618821342.41967,1.307083,4.251960039138794
1618821342.4353,0.13237,4.267590045928955
1618821342.45093,-1.392639,4.283220052719116
1618821342.46655,-3.431107,4.298840045928955
1618821342.48218,-5.96698,4.314470052719116
1618821342.4978,-8.852417,4.330090045928955
1618821342.51343,-11.88138,4.345720052719116
1618821342.52905,-14.8548,4.361340045928955
1618821342.54468,-17.77122,4.376970052719116
1618821342.56031,-20.63907,4.392599821090698
1618821342.57593,-23.45209,4.408220052719116
1618821342.59156,-25.96085,4.423849821090698
1618821342.60718,-27.74409,4.439470052719116
1618821342.62281,-28.21399,4.455099821090698
1618821342.63843,-26.96075,4.470720052719116
1618821342.65406,-23.97142,4.486349821090698
1618821342.66969,-19.53491,4.501979827880859
1618821342.68531,-14.25194,4.517599821090698
1618821342.70094,-8.754471,4.533229827880859
1618821342.71656,-3.605698,4.548849821090698
1618821342.73219,0.8372955,4.564479827880859
1618821342.74781,4.346176,4.580099821090698
1618821342.76344,6.83461,4.595729827880859
1618821342.77907,8.275986,4.6113598346710205
1618821342.79469,8.728271,4.626979827880859
1618821342.81032,8.456604,4.6426098346710205
1618821342.82594,7.797546,4.658229827880859
1618821342.84157,7.163651,4.6738598346710205
1618821342.85719,6.875854,4.689479827880859
1618821342.87282,7.044312,4.7051098346710205
1618821342.88845,7.567612,4.720739841461182
1618821342.90407,8.198822,4.7363598346710205
1618821342.9197,8.610672,4.751989841461182
1618821342.93532,8.550537,4.7676098346710205
1618821342.95095,7.967361,4.783239841461182
1618821342.96657,6.882095,4.7988598346710205
1618821342.9822,5.447403,4.814489841461182
1618821342.99783,3.875153,4.830119848251343
1618821343.01345,2.317825,4.845739841461182
1618821343.02908,0.9137421,4.861369848251343
1618821343.0447,-0.2224426,4.876989841461182
1618821343.06033,-1.081741,4.892619848251343
1618821343.07595,-1.749374,4.908239841461182
1618821343.09158,-2.346725,4.923869848251343
1618821343.10721,-3.110977,4.939499855041504
1618821343.12283,-4.19722,4.955119848251343
1618821343.13846,-5.631607,4.970749855041504
1618821343.15408,-7.376755,4.986369848251343
1618821343.16971,-9.316208,5.001999855041504
1618821343.18533,-11.37988,5.017619848251343
1618821343.20096,-13.61008,5.033249855041504
1618821343.21659,-16.1252,5.048879861831665
1618821343.23221,-18.90169,5.064499855041504
1618821343.24784,-21.79552,5.080129861831665
1618821343.26346,-24.32964,5.095749855041504
1618821343.27909,-25.88957,5.111379861831665
1618821343.29471,-25.90549,5.126999855041504
1618821343.31034,-23.99303,5.142629861831665
1618821343.32597,-20.18291,5.158259868621826
1618821343.34159,-14.88896,5.173879861831665
1618821343.35722,-8.800964,5.189509868621826
1618821343.37284,-2.746323,5.205129861831665
1618821343.38847,2.480423,5.220759868621826
1618821343.40409,6.335312,5.236379861831665
1618821343.41972,8.5793,5.252009868621826
1618821343.43535,9.287918,5.267639875411987
1618821343.45097,8.823074,5.283259868621826
1618821343.4666,7.673141,5.298889875411987
1618821343.48222,6.335938,5.314509868621826
1618821343.49785,5.256729,5.330139875411987
1618821343.51347,4.740112,5.345759868621826
1618821343.5291,4.833252,5.361389875411987
1618821343.54473,5.478378,5.377019882202148
1618821343.56035,6.476166,5.392639875411987
1618821343.57598,7.538315,5.408269882202148
1618821343.5916,8.416107,5.423889875411987
1618821343.60723,8.936874,5.439519882202148
1618821343.62285,9.045547,5.455139875411987
1618821343.63848,8.78096,5.470769882202148
1618821343.65411,8.237213,5.48639988899231
1618821343.66973,7.462158,5.502019882202148
1618821343.68536,6.469955,5.51764988899231
1618821343.70098,5.28569,5.533269882202148
1618821343.71661,3.901917,5.54889988899231
1618821343.73223,2.389694,5.564519882202148
1618821343.74786,0.852356,5.58014988899231
1618821343.76349,-0.589798,5.595779895782471
1618821343.77911,-1.890335,5.61139988899231
1618821343.79474,-3.109756,5.627029895782471
1618821343.81036,-4.387939,5.64264988899231
1618821343.82599,-5.919449,5.658279895782471
1618821343.84161,-7.84668,5.67389988899231
1618821343.85724,-10.17178,5.689529895782471
1618821343.87287,-12.72813,5.705159902572632
1618821343.88849,-15.23096,5.720779895782471
1618821343.90412,-17.33948,5.736409902572632
1618821343.91974,-18.74301,5.752029895782471
1618821343.93537,-19.15791,5.767659902572632
1618821343.95099,-18.36661,5.783279895782471
1618821343.96662,-16.24998,5.798909902572632
1618821343.98225,-12.84612,5.814539909362793
1618821343.99787,-8.400208,5.830159902572632
1618821344.0135,-3.2966,5.845789909362793
1618821344.02912,1.870056,5.861409902572632
1618821344.04475,6.486618,5.877039909362793
1618821344.06037,10.08977,5.892659902572632
1618821344.076,12.45415,5.908289909362793
1618821344.09163,13.62834,5.923919916152954
1618821344.10725,13.87871,5.939539909362793
1618821344.12288,13.53687,5.955169916152954
1618821344.1385,12.93793,5.970789909362793
1618821344.15413,12.35304,5.986419916152954
1618821344.16975,11.95345,6.002039909362793
1618821344.18538,11.83044,6.017669916152954
1618821344.20101,12.04959,6.033299922943115
1618821344.21663,12.64825,6.048919916152954
1618821344.23226,13.54741,6.064549922943115
1618821344.24788,14.54918,6.080169916152954
1618821344.26351,15.37332,6.095799922943115
1618821344.27913,15.74553,6.111419916152954
1618821344.29476,15.52438,6.127049922943115
1618821344.31039,14.77313,6.142679929733276
1618821344.32601,13.66971,6.158299922943115
1618821344.34164,12.40828,6.173929929733276
1618821344.35726,11.05768,6.189549922943115
1618821344.37289,9.552277,6.205179929733276
1618821344.38852,7.772598,6.2208099365234375
1618821344.40414,5.648293,6.236429929733276
1618821344.41977,3.258751,6.2520599365234375
1618821344.43539,0.7985458,6.267679929733276
1618821344.45102,-1.520859,6.2833099365234375
1618821344.46664,-3.616547,6.298929929733276
1618821344.48227,-5.549553,6.3145599365234375
1618821344.4979,-7.522186,6.330189943313599
1618821344.51352,-9.725304,6.3458099365234375
1618821344.52915,-12.18661,6.361439943313599
1618821344.54477,-14.79969,6.3770599365234375
1618821344.5604,-17.19018,6.392689943313599
1618821344.57602,-18.91677,6.4083099365234375
1618821344.59165,-19.50261,6.423939943313599
1618821344.60728,-18.61605,6.43956995010376
1618821344.6229,-16.16457,6.455189943313599
1618821344.63853,-12.3335,6.47081995010376
1618821344.65415,-7.586273,6.486439943313599
1618821344.66978,-2.480995,6.50206995010376
1618821344.6854,2.314323,6.517689943313599
1618821344.70103,6.245255,6.53331995010376
1618821344.71666,8.923943,6.548949956893921
1618821344.73228,10.2958,6.56456995010376
1618821344.74791,10.57132,6.580199956893921
1618821344.76353,10.14359,6.59581995010376
1618821344.77916,9.469284,6.611449956893921
1618821344.79478,8.835594,6.62706995010376
1618821344.81041,8.379425,6.642699956893921
1618821344.82604,8.056793,6.658329963684082
1618821344.84166,7.781174,6.673949956893921
1618821344.85729,7.472084,6.689579963684082
1618821344.87291,7.201355,6.705199956893921
1618821344.88854,7.104065,6.720829963684082
1618821344.90416,7.232613,6.736449956893921
1618821344.91979,7.532295,6.752079963684082
1618821344.93542,7.776016,6.767709970474243
1618821344.95104,7.697083,6.783329963684082
1618821344.96667,7.063835,6.798959970474243
1618821344.98229,5.770554,6.814579963684082
1618821344.99792,3.873398,6.830209970474243
1618821345.01354,1.513626,6.845829963684082
1618821345.02917,-1.072899,6.861459970474243
1618821345.0448,-3.725693,6.877089977264404
1618821345.06042,-6.353493,6.892709970474243
1618821345.07605,-8.946709,6.908339977264404
1618821345.09167,-11.51103,6.923959970474243
1618821345.1073,-14.00951,6.939589977264404
1618821345.12292,-16.39767,6.955209970474243
1618821345.13855,-18.58192,6.970839977264404
1618821345.15418,-20.56303,6.986469984054565
1618821345.1698,-22.2559,7.002089977264404
1618821345.18543,-23.56609,7.017719984054565
1618821345.20105,-24.2998,7.033339977264404
1618821345.21668,-24.13644,7.048969984054565
1618821345.2323,-22.75674,7.064589977264404
1618821345.24793,-19.96665,7.080219984054565
1618821345.26356,-15.86301,7.095849990844727
1618821345.27918,-10.85461,7.111469984054565
1618821345.29481,-5.650627,7.127099990844727
1618821345.31043,-0.9806747,7.142719984054565
1618821345.32606,2.615608,7.158349990844727
1618821345.34168,4.907974,7.173969984054565
1618821345.35731,6.051834,7.189599990844727
1618821345.37294,6.342018,7.205229997634888
1618821345.38856,6.121574,7.220849990844727
1618821345.40419,5.663734,7.236479997634888
1618821345.41981,5.126762,7.252099990844727
1618821345.43544,4.589966,7.267729997634888
1618821345.45106,4.126671,7.283349990844727
1618821345.46669,3.845741,7.298979997634888
1618821345.48232,3.810257,7.314610004425049
1618821345.49794,4.027863,7.330229997634888
1618821345.51357,4.336929,7.345860004425049
1618821345.52919,4.467323,7.361479997634888
1618821345.54482,4.20031,7.377110004425049
1618821345.56044,3.382301,7.392729997634888
1618821345.57607,2.042908,7.408360004425049
1618821345.5917,0.33535,7.42399001121521
1618821345.60732,-1.516922,7.439610004425049
1618821345.62295,-3.338722,7.45524001121521
1618821345.63857,-5.006538,7.470860004425049
1618821345.6542,-6.534439,7.48649001121521
1618821345.66982,-8.002632,7.502110004425049
1618821345.68545,-9.440628,7.51774001121521
1618821345.70108,-10.85255,7.533370018005371
1618821345.7167,-12.15114,7.54899001121521
1618821345.73233,-13.28768,7.564620018005371
1618821345.74795,-14.36186,7.58024001121521
1618821345.76358,-15.54588,7.595870018005371
1618821345.7792,-17.04591,7.61149001121521
1618821345.79483,-18.87029,7.627120018005371
1618821345.81046,-20.74033,7.642750024795532
1618821345.82608,-22.00454,7.658370018005371
1618821345.84171,-21.96522,7.674000024795532
1618821345.85733,-20.06273,7.689620018005371
1618821345.87296,-16.23544,7.705250024795532
1618821345.88858,-10.97375,7.720870018005371
1618821345.90421,-5.09285,7.736500024795532
1618821345.91984,0.5028381,7.752130031585693
1618821345.93546,5.179756,7.767750024795532
1618821345.95109,8.598976,7.783380031585693
1618821345.96671,10.82174,7.799000024795532
1618821345.98234,12.05284,7.814630031585693
1618821345.99796,12.61206,7.830250024795532
1618821346.01359,12.73763,7.845880031585693
1618821346.02922,12.63458,7.8615100383758545
1618821346.04484,12.49805,7.877130031585693
1618821346.06047,12.45205,7.8927600383758545
1618821346.07609,12.56747,7.908380031585693
1618821346.09172,12.79199,7.9240100383758545
1618821346.10734,13.01684,7.939630031585693
1618821346.12297,13.06671,7.9552600383758545
1618821346.1386,12.78382,7.970890045166016
1618821346.15422,12.13721,7.9865100383758545
1618821346.16985,11.18002,8.002140045166016
1618821346.18547,10.04124,8.017760038375854
1618821346.2011,8.790192,8.033390045166016
1618821346.21672,7.407921,8.049010038375854
1618821346.23235,5.843613,8.064640045166016
1618821346.24798,4.030434,8.080270051956177
1618821346.2636,2.034142,8.095890045166016
1618821346.27923,-0.02262115,8.111520051956177
1618821346.29485,-1.971115,8.127140045166016
1618821346.31048,-3.726585,8.142770051956177
1618821346.3261,-5.332542,8.158390045166016
1618821346.34173,-6.941803,8.174020051956177
1618821346.35736,-8.704941,8.189649820327759
1618821346.37298,-10.67984,8.205270051956177
1618821346.38861,-12.81206,8.220899820327759
1618821346.40423,-14.94169,8.236520051956177
1618821346.41986,-16.79464,8.252149820327759
1618821346.43548,-18.04477,8.267770051956177
1618821346.45111,-18.31474,8.283399820327759
1618821346.46674,-17.28257,8.29902982711792
1618821346.48236,-14.75376,8.314649820327759
1618821346.49799,-10.81221,8.33027982711792
1618821346.51361,-5.853989,8.345899820327759
1618821346.52924,-0.566803,8.36152982711792
1618821346.54486,4.298523,8.377149820327759
1618821346.56049,8.166763,8.39277982711792
1618821346.57612,10.73398,8.408409833908081
1618821346.59174,12.02791,8.42402982711792
1618821346.60737,12.24935,8.439659833908081
1618821346.62299,11.71251,8.45527982711792
1618821346.63862,10.68355,8.470909833908081
1618821346.65424,9.423416,8.48652982711792
1618821346.66987,8.141129,8.502159833908081
1618821346.6855,7.047012,8.517789840698242
1618821346.70112,6.304237,8.533409833908081
1618821346.71675,5.979431,8.549039840698242
1618821346.73237,6.023849,8.564659833908081
1618821346.748,6.226341,8.580289840698242
1618821346.76363,6.321999,8.595919847488403
1618821346.77925,6.050453,8.611539840698242
1618821346.79488,5.262894,8.627169847488403
1618821346.8105,4.013374,8.642789840698242
1618821346.82613,2.447548,8.658419847488403
1618821346.84175,0.8035812,8.674039840698242
1618821346.85738,-0.7442856,8.689669847488403
1618821346.87301,-2.106064,8.705299854278564
1618821346.88863,-3.32695,8.720919847488403
1618821346.90426,-4.560936,8.736549854278564
1618821346.91988,-5.90657,8.752169847488403
1618821346.93551,-7.434738,8.767799854278564
1618821346.95113,-9.083481,8.783419847488403
1618821346.96676,-10.80367,8.799049854278564
1618821346.98239,-12.56155,8.814679861068726
1618821346.99801,-14.41731,8.830299854278564
1618821347.01364,-16.41167,8.845929861068726
1618821347.02926,-18.49301,8.861549854278564
1618821347.04489,-20.42899,8.877179861068726
1618821347.06051,-21.73608,8.892799854278564
1618821347.07614,-21.86315,8.908429861068726
1618821347.09177,-20.4,8.924059867858887
1618821347.10739,-17.27044,8.939679861068726
1618821347.12302,-12.77885,8.955309867858887
1618821347.13864,-7.573059,8.970929861068726
1618821347.15427,-2.366524,8.986559867858887
1618821347.16989,2.254021,9.002179861068726
1618821347.18552,5.94149,9.017809867858887
1618821347.20115,8.610725,9.033439874649048
1618821347.21677,10.34468,9.049059867858887
1618821347.2324,11.31121,9.064689874649048
1618821347.24802,11.70971,9.080309867858887
1618821347.26365,11.78319,9.095939874649048
1618821347.27927,11.70541,9.111559867858887
1618821347.2949,11.61749,9.127189874649048
1618821347.31053,11.53809,9.142819881439209
1618821347.32615,11.41908,9.158439874649048
1618821347.34178,11.15391,9.174069881439209
1618821347.3574,10.67745,9.189689874649048
1618821347.37303,9.995842,9.205319881439209
1618821347.38865,9.140175,9.220939874649048
1618821347.40428,8.102188,9.236569881439209
1618821347.41991,6.787903,9.25219988822937
1618821347.43553,5.093224,9.267819881439209
1618821347.45116,2.949852,9.28344988822937
1618821347.46678,0.4316406,9.299069881439209
1618821347.48241,-2.231873,9.31469988822937
1618821347.49803,-4.773788,9.330319881439209
1618821347.51366,-6.984177,9.34594988822937
1618821347.52929,-8.737541,9.361579895019531
1618821347.54491,-10.10625,9.37719988822937
1618821347.56054,-11.30671,9.392829895019531
1618821347.57616,-12.47595,9.40844988822937
1618821347.59179,-13.7762,9.424079895019531
1618821347.60741,-15.29353,9.43969988822937
1618821347.62304,-17.04872,9.455329895019531
1618821347.63867,-19.0593,9.470959901809692
1618821347.65429,-21.24969,9.486579895019531
1618821347.66992,-23.38155,9.502209901809692
1618821347.68554,-24.99604,9.517829895019531
1618821347.70117,-25.58825,9.533459901809692
1618821347.71679,-24.63802,9.549079895019531
1618821347.73242,-21.92535,9.564709901809692
1618821347.74805,-17.65044,9.580339908599854
1618821347.76367,-12.3842,9.595959901809692
1618821347.7793,-6.971642,9.611589908599854
1618821347.79492,-2.178955,9.627209901809692
1618821347.81055,1.482643,9.642839908599854
1618821347.82617,3.961906,9.658459901809692
1618821347.8418,5.467354,9.674089908599854
1618821347.85743,6.431129,9.689719915390015
1618821347.87305,7.201759,9.705339908599854
1618821347.88868,7.925354,9.720969915390015
1618821347.9043,8.567345,9.736589908599854
1618821347.91993,9.001022,9.752219915390015
1618821347.93555,9.217293,9.767839908599854
1618821347.95118,9.3116,9.783469915390015
1618821347.96681,9.533798,9.799099922180176
1618821347.98243,10.04581,9.814719915390015
1618821347.99806,10.92071,9.830349922180176
1618821348.01368,11.9548,9.845969915390015
1618821348.02931,12.81612,9.861599922180176
1618821348.04493,13.14614,9.877219915390015
1618821348.06056,12.63739,9.892849922180176
1618821348.07619,11.15773,9.908479928970337
1618821348.09181,8.717255,9.924099922180176
1618821348.10744,5.465118,9.939729928970337
1618821348.12306,1.674698,9.955349922180176
1618821348.13869,-2.262848,9.970979928970337
1618821348.15431,-5.971466,9.986599922180176
1618821348.16994,-9.123535,10.002229928970337
1618821348.18557,-11.55191,10.017859935760498
1618821348.20119,-13.34856,10.033479928970337
1618821348.21682,-14.79207,10.049109935760498
1618821348.23244,-16.27101,10.064729928970337
1618821348.24807,-18.12071,10.080359935760498
1618821348.26369,-20.50615,10.095979928970337
1618821348.27932,-23.34293,10.111609935760498
1618821348.29495,-26.3665,10.12723994255066
1618821348.31057,-29.13313,10.142859935760498
1618821348.3262,-31.09309,10.15848994255066
1618821348.34182,-31.74533,10.174109935760498
1618821348.35745,-30.72455,10.18973994255066
1618821348.37307,-27.94255,10.205359935760498
1618821348.3887,-23.6414,10.22098994255066
1618821348.40433,-18.42342,10.23661994934082
1618821348.41995,-13.07573,10.25223994255066
1618821348.43558,-8.31839,10.26786994934082
1618821348.4512,-4.644501,10.28348994255066
1618821348.46683,-2.125443,10.29911994934082
1618821348.48245,-0.5612793,10.31473994255066
1618821348.49808,0.4346771,10.33036994934082
1618821348.51371,1.167633,10.345999956130981
1618821348.52933,1.864014,10.36161994934082
1618821348.54496,2.570847,10.377249956130981
1618821348.56058,3.304001,10.39286994934082
1618821348.57621,4.142883,10.408499956130981
1618821348.59183,5.183502,10.42411994934082
1618821348.60746,6.554367,10.439749956130981
1618821348.62309,8.202408,10.455379962921143
1618821348.63871,9.941406,10.470999956130981
1618821348.65434,11.35497,10.486629962921143
1618821348.66996,12.04425,10.502249956130981
1618821348.68559,11.69373,10.517879962921143
1618821348.70121,10.24652,10.533499956130981
1618821348.71684,7.892426,10.549129962921143
1618821348.73247,4.98143,10.564759969711304
1618821348.74809,1.938354,10.580379962921143
1618821348.76372,-0.9711609,10.596009969711304
1618821348.77934,-3.543839,10.611629962921143
1618821348.79497,-5.766937,10.627259969711304
1618821348.81059,-7.634033,10.642879962921143
1618821348.82622,-9.248276,10.658509969711304
1618821348.84185,-10.7361,10.674139976501465
1618821348.85747,-12.2473,10.689759969711304
1618821348.8731,-13.84686,10.705389976501465
1618821348.88872,-15.27089,10.721009969711304
1618821348.90435,-15.87985,10.736639976501465
1618821348.91998,-14.65086,10.752269983291626
1618821348.9356,-10.55777,10.767889976501465
1618821348.95123,-3.000885,10.783519983291626
1618821348.96685,7.83844,10.799139976501465
1618821348.98248,20.88589,10.814769983291626
1618821348.9981,34.40144,10.830389976501465
1618821349.01373,46.43938,10.846019983291626
1618821349.02936,55.40996,10.861649990081787
1618821349.04498,60.40913,10.877269983291626
1618821349.06061,61.29935,10.892899990081787
1618821349.07623,58.53519,10.908519983291626
1618821349.09186,52.85324,10.924149990081787
1618821349.10748,45.09512,10.939769983291626
1618821349.12311,36.14175,10.955399990081787
1618821349.13874,26.83612,10.971029996871948
1618821349.15436,17.98233,10.986649990081787
1618821349.16999,10.28055,11.002279996871948
1618821349.18561,4.270752,11.017899990081787
1618821349.20124,0.2211609,11.033529996871948
1618821349.21686,-1.886749,11.049149990081787
1618821349.23249,-2.348297,11.064779996871948
1618821349.24812,-1.621796,11.08041000366211
1618821349.26374,-0.2534485,11.096029996871948
1618821349.27937,1.256683,11.11166000366211
1618821349.29499,2.460999,11.127279996871948
1618821349.31062,3.061249,11.14291000366211
1618821349.32624,2.954102,11.158529996871948
1618821349.34187,2.181763,11.17416000366211
1618821349.3575,0.9580688,11.18979001045227
1618821349.37312,-0.472168,11.20541000366211
1618821349.38875,-1.840271,11.22104001045227
1618821349.40437,-2.932434,11.23666000366211
1618821349.42,-3.510529,11.25229001045227
1618821349.43562,-3.450745,11.26791000366211
1618821349.45125,-2.706635,11.28354001045227
1618821349.46688,-1.377106,11.299170017242432
1618821349.4825,0.2243042,11.31479001045227
1618821349.49813,1.720947,11.330420017242432
1618821349.51375,2.764923,11.34604001045227
1618821349.52938,3.305542,11.361670017242432
1618821349.545,3.588287,11.37729001045227
1618821349.56063,4.095367,11.392920017242432
1618821349.57626,5.279846,11.408550024032593
1618821349.59188,7.348419,11.424170017242432
1618821349.60751,10.19031,11.439800024032593
1618821349.62313,13.39578,11.455420017242432
1618821349.63876,16.51135,11.471050024032593
1618821349.65438,19.14325,11.486670017242432
1618821349.67001,21.04352,11.502300024032593
1618821349.68564,22.09421,11.517930030822754
1618821349.70126,22.20358,11.533550024032593
1618821349.71689,21.34262,11.549180030822754
1618821349.73251,19.55643,11.564800024032593
1618821349.74814,17.07547,11.580430030822754
1618821349.76376,14.20447,11.596050024032593
1618821349.77939,11.37601,11.611680030822754
1618821349.79502,8.977936,11.627310037612915
1618821349.81064,7.204193,11.642930030822754
1618821349.82627,6.155121,11.658560037612915
1618821349.84189,5.703369,11.674180030822754
1618821349.85752,5.623627,11.689810037612915
1618821349.87314,5.613068,11.705430030822754
1618821349.88877,5.340881,11.721060037612915
1618821349.9044,4.465088,11.736690044403076
1618821349.92002,2.802612,11.752310037612915
1618821349.93565,0.3801575,11.767940044403076
1618821349.95127,-2.628418,11.783560037612915
1618821349.9669,-5.850159,11.799190044403076
1618821349.98252,-8.954224,11.814810037612915
1618821349.99815,-11.75803,11.830440044403076
1618821350.01378,-14.37048,11.846070051193237
1618821350.0294,-17.08502,11.861690044403076
1618821350.04503,-20.24197,11.877320051193237
1618821350.06065,-24.0769,11.892940044403076
1618821350.07628,-28.6272,11.908570051193237
1618821350.0919,-33.79413,11.924190044403076
1618821350.10753,-39.26917,11.939820051193237
1618821350.12316,-44.63794,11.95544981956482
1618821350.13878,-49.41437,11.971070051193237
1618821350.15441,-53.12097,11.98669981956482
1618821350.17003,-55.36481,12.002320051193237
1618821350.18566,-55.89938,12.01794981956482
1618821350.20128,-54.72662,12.033570051193237
1618821350.21691,-52.03021,12.04919981956482
1618821350.23254,-48.17145,12.06482982635498
1618821350.24816,-43.39938,12.08044981956482
1618821350.26379,-37.90503,12.09607982635498
1618821350.27941,-31.76193,12.11169981956482
1618821350.29504,-25.06213,12.12732982635498
1618821350.31066,-18.11798,12.14294981956482
1618821350.32629,-11.4505,12.15857982635498
1618821350.34192,-5.7435,12.174209833145142
1618821350.35754,-1.515656,12.18982982635498
1618821350.37317,1.154694,12.205459833145142
1618821350.38879,2.806854,12.22107982635498
1618821350.40442,4.500519,12.236709833145142
1618821350.42004,7.375519,12.25232982635498
1618821350.43567,12.22214,12.267959833145142
1618821350.4513,18.99686,12.283589839935303
1618821350.46692,26.78735,12.299209833145142
1618821350.48255,34.12576,12.314839839935303
1618821350.49817,39.60672,12.330459833145142
1618821350.5138,42.39377,12.346089839935303
1618821350.52942,42.44223,12.361709833145142
1618821350.54505,40.40054,12.377339839935303
1618821350.56068,37.21335,12.392969846725464
1618821350.5763,33.70328,12.408589839935303
1618821350.59193,30.27655,12.424219846725464
1618821350.60755,26.88889,12.439839839935303
1618821350.62318,23.33624,12.455469846725464
1618821350.6388,19.42145,12.471089839935303
1618821350.65443,15.09698,12.486719846725464
1618821350.67006,10.43869,12.502349853515625
1618821350.68568,5.532745,12.517969846725464
1618821350.70131,0.4281006,12.533599853515625
1618821350.71693,-4.766296,12.549219846725464
1618821350.73256,-9.844971,12.564849853515625
1618821350.74818,-14.37308,12.580469846725464
1618821350.76381,-17.69687,12.596099853515625
1618821350.77944,-19.18356,12.611729860305786
1618821350.79506,-18.39777,12.627349853515625
1618821350.81069,-15.36118,12.642979860305786
1618821350.82631,-10.4856,12.658599853515625
1618821350.84194,-4.5896,12.674229860305786
1618821350.85756,1.472839,12.689849853515625
1618821350.87319,6.917084,12.705479860305786
1618821350.88882,11.2186,12.721109867095947
1618821350.90444,14.14462,12.736729860305786
1618821350.92007,15.71228,12.752359867095947
1618821350.93569,16.15701,12.767979860305786
1618821350.95132,15.84058,12.783609867095947
1618821350.96694,15.1673,12.799229860305786
1618821350.98257,14.44702,12.814859867095947
1618821350.9982,13.85394,12.830489873886108
1618821351.01382,13.40009,12.846109867095947
1618821351.02945,13.02646,12.861739873886108
1618821351.04507,12.63507,12.877359867095947
1618821351.0607,12.18341,12.892989873886108
1618821351.07632,11.70157,12.908609867095947
1618821351.09195,11.24088,12.924239873886108
1618821351.10758,10.85916,12.93986988067627
1618821351.1232,10.59332,12.955489873886108
1618821351.13883,10.4538,12.97111988067627
1618821351.15445,10.41684,12.986739873886108
1618821351.17008,10.47955,13.00236988067627
1618821351.1857,10.56799,13.017989873886108
1618821351.20133,10.61792,13.03361988067627
1618821351.21696,10.53116,13.04924988746643
1618821351.23258,10.16843,13.06486988067627
1618821351.24821,9.439667,13.08049988746643
1618821351.26383,8.282013,13.09611988067627
1618821351.27946,6.770172,13.11174988746643
1618821351.29508,5.163788,13.12736988067627
1618821351.31071,3.899353,13.14299988746643
1618821351.32634,3.526001,13.158629894256592
1618821351.34196,4.511505,13.17424988746643
1618821351.35759,7.074677,13.189879894256592
1618821351.37321,11.03238,13.20549988746643
1618821351.38884,15.89529,13.221129894256592
1618821351.40446,20.9155,13.23674988746643
1618821351.42009,25.39944,13.252379894256592
1618821351.43572,28.82486,13.268009901046753
1618821351.45134,30.92252,13.283629894256592
1618821351.46697,31.63705,13.299259901046753
1618821351.48259,31.07623,13.314879894256592
1618821351.49822,29.44473,13.330509901046753
1618821351.51384,27.02139,13.346129894256592
1618821351.52947,24.13602,13.361759901046753
1618821351.5451,21.10718,13.377389907836914
1618821351.56072,18.26959,13.393009901046753
1618821351.57635,15.94824,13.408639907836914
1618821351.59197,14.32437,13.424259901046753
1618821351.6076,13.44031,13.439889907836914
1618821351.62323,13.14801,13.455519914627075
1618821351.63885,13.12839,13.471139907836914
1618821351.65448,13.02209,13.486769914627075
1618821351.6701,12.54834,13.502389907836914
1618821351.68573,11.51343,13.518019914627075
1618821351.70135,9.89035,13.533639907836914
1618821351.71698,7.804596,13.549269914627075
1618821351.73261,5.349609,13.564899921417236
1618821351.74823,2.61731,13.580519914627075
1618821351.76386,-0.3168945,13.596149921417236
1618821351.77948,-3.420959,13.611769914627075
1618821351.79511,-6.632172,13.627399921417236
1618821351.81073,-9.861298,13.643019914627075
1618821351.82636,-13.1026,13.658649921417236
1618821351.84199,-16.34402,13.674279928207397
1618821351.85761,-19.55472,13.689899921417236
1618821351.87324,-22.54868,13.705529928207397
1618821351.88886,-24.93576,13.721149921417236
1618821351.90449,-26.19452,13.736779928207397
1618821351.92011,-25.85776,13.752399921417236
1618821351.93574,-23.71408,13.768029928207397
1618821351.95137,-19.95169,13.783659934997559
1618821351.96699,-15.06357,13.799279928207397
1618821351.98262,-9.686646,13.814909934997559
1618821351.99824,-4.413239,13.830529928207397
1618821352.01387,0.4277649,13.846159934997559
1618821352.02949,4.719879,13.861779928207397
1618821352.04512,8.393188,13.877409934997559
1618821352.06075,11.3577,13.89303994178772
1618821352.07637,13.45856,13.908659934997559
1618821352.092,14.47742,13.92428994178772
1618821352.10762,14.3591,13.939909934997559
1618821352.12325,13.30664,13.95553994178772
1618821352.13887,11.70035,13.971159934997559
1618821352.1545,10.03128,13.98678994178772
1618821352.17013,8.702789,14.00241994857788
1618821352.18575,7.849823,14.01803994178772
1618821352.20138,7.359772,14.03366994857788
1618821352.217,6.998734,14.04928994178772
1618821352.23263,6.468002,14.06491994857788
1618821352.24825,5.594437,14.08053994178772
1618821352.26388,4.384171,14.09616994857788
1618821352.27951,2.925629,14.111799955368042
1618821352.29513,1.351242,14.12741994857788
1618821352.31076,-0.2578583,14.143049955368042
1618821352.32638,-1.891113,14.15866994857788
1618821352.34201,-3.575211,14.174299955368042
1618821352.35763,-5.348892,14.18991994857788
1618821352.37326,-7.233231,14.205549955368042
1618821352.38889,-9.228302,14.221179962158203
1618821352.40451,-11.34865,14.236799955368042
1618821352.42014,-13.67487,14.252429962158203
1618821352.43576,-16.21938,14.268049955368042
1618821352.45139,-18.94365,14.283679962158203
1618821352.46701,-21.64098,14.299299955368042
1618821352.48264,-23.92813,14.314929962158203
1618821352.49827,-25.29027,14.330559968948364
1618821352.51389,-25.24187,14.346179962158203
1618821352.52952,-23.43959,14.361809968948364
1618821352.54514,-19.91841,14.377429962158203
1618821352.56077,-15.10139,14.393059968948364
1618821352.57639,-9.647141,14.408679962158203
1618821352.59202,-4.263748,14.424309968948364
1618821352.60765,0.5417633,14.439939975738525
1618821352.62327,4.529663,14.455559968948364
1618821352.6389,7.81311,14.471189975738525
1618821352.65452,10.54143,14.486809968948364
1618821352.67015,12.86404,14.502439975738525
1618821352.68577,14.70216,14.518059968948364
1618821352.7014,15.88408,14.533689975738525
1618821352.71703,16.28455,14.549319982528687
1618821352.73265,15.92928,14.564939975738525
1618821352.74828,15.09637,14.580569982528687
1618821352.7639,14.13391,14.596189975738525
1618821352.77953,13.38457,14.611819982528687
1618821352.79515,13.00415,14.627439975738525
1618821352.81078,12.94524,14.643069982528687
1618821352.82641,12.99017,14.658699989318848
1618821352.84203,12.8819,14.674319982528687
1618821352.85766,12.38062,14.689949989318848
1618821352.87328,11.37253,14.705569982528687
1618821352.88891,9.920532,14.721199989318848
1618821352.90453,8.217377,14.736819982528687
1618821352.92016,6.506668,14.752449989318848
1618821352.93579,4.957062,14.768079996109009
1618821352.95141,3.544403,14.783699989318848
1618821352.96704,2.058578,14.799329996109009
1618821352.98266,0.1991119,14.814949989318848
1618821352.99829,-2.278366,14.830579996109009
1618821353.01391,-5.390182,14.846199989318848
1618821353.02954,-8.898575,14.861829996109009
1618821353.04517,-12.43373,14.87746000289917
1618821353.06079,-15.55608,14.893079996109009
1618821353.07642,-17.93903,14.90871000289917
1618821353.09204,-19.36092,14.924329996109009
1618821353.10767,-19.60054,14.93996000289917
1618821353.12329,-18.4884,14.955579996109009
1618821353.13892,-15.89464,14.97121000289917
1618821353.15455,-11.85059,14.986840009689331
1618821353.17017,-6.674698,15.00246000289917
1618821353.1858,-0.970932,15.018090009689331
1618821353.20142,4.490631,15.03371000289917
1618821353.21705,9.043823,15.049340009689331
1618821353.23267,12.19052,15.06496000289917
1618821353.2483,13.82214,15.080590009689331
1618821353.26393,14.09523,15.096220016479492
1618821353.27955,13.3366,15.111840009689331
1618821353.29518,11.96255,15.127470016479492
1618821353.3108,10.29455,15.143090009689331
1618821353.32643,8.585808,15.158720016479492
1618821353.34205,7.016701,15.174340009689331
1618821353.35768,5.730408,15.189970016479492
1618821353.37331,4.81192,15.205600023269653
1618821353.38893,4.352852,15.221220016479492
1618821353.40456,4.353897,15.236850023269653
1618821353.42018,4.684616,15.252470016479492
1618821353.43581,5.196938,15.268100023269653
1618821353.45143,5.601051,15.283720016479492
1618821353.46706,5.654076,15.299350023269653
1618821353.48269,5.216629,15.314980030059814
1618821353.49831,4.285561,15.330600023269653
1618821353.51394,2.999474,15.346230030059814
1618821353.52956,1.545883,15.361850023269653
1618821353.54519,0.09117889,15.377480030059814
1618821353.56081,-1.320412,15.393100023269653
1618821353.57644,-2.666519,15.408730030059814
1618821353.59207,-3.999191,15.424360036849976
1618821353.60769,-5.386909,15.439980030059814
1618821353.62332,-6.886696,15.455610036849976
1618821353.63894,-8.580536,15.471230030059814
1618821353.65457,-10.52451,15.486860036849976
1618821353.67019,-12.74649,15.502480030059814
1618821353.68582,-15.10609,15.518110036849976
1618821353.70145,-17.33232,15.533740043640137
1618821353.71707,-18.98231,15.549360036849976
1618821353.7327,-19.57197,15.564990043640137
1618821353.74832,-18.79264,15.580610036849976
1618821353.76395,-16.56723,15.596240043640137
1618821353.77958,-13.1603,15.611870050430298
1618821353.7952,-9.043865,15.627490043640137
1618821353.81083,-4.781277,15.643120050430298
1618821353.82645,-0.8191757,15.658740043640137
1618821353.84208,2.510197,15.674370050430298
1618821353.8577,5.119274,15.689990043640137
1618821353.87333,7.070988,15.705620050430298
1618821353.88896,8.456036,15.72124981880188
1618821353.90458,9.429752,15.736870050430298
1618821353.92021,10.08212,15.75249981880188
1618821353.93583,10.47019,15.768120050430298
1618821353.95146,10.64521,15.78374981880188
1618821353.96708,10.67751,15.799370050430298
1618821353.98271,10.61728,15.81499981880188
1618821353.99834,10.52404,15.830629825592041
1618821354.01396,10.42887,15.84624981880188
1618821354.02959,10.26872,15.861879825592041
1618821354.04521,9.976027,15.87749981880188
1618821354.06084,9.471312,15.893129825592041
1618821354.07646,8.696656,15.90874981880188
1618821354.09209,7.663334,15.924379825592041
1618821354.10772,6.407626,15.940009832382202
1618821354.12334,4.977153,15.955629825592041
1618821354.13897,3.371977,15.971259832382202
1618821354.15459,1.589037,15.986879825592041
1618821354.17022,-0.4444094,16.002509832382202
1618821354.18584,-2.744831,16.01812982559204
1618821354.20147,-5.244755,16.033759832382202
1618821354.2171,-7.825731,16.049389839172363
1618821354.23272,-10.27209,16.065009832382202
1618821354.24835,-12.41603,16.080639839172363
1618821354.26397,-14.18315,16.096259832382202
1618821354.2796,-15.63231,16.111889839172363
1618821354.29522,-16.91061,16.127509832382202
1618821354.31085,-18.14129,16.143139839172363
1618821354.32648,-19.17101,16.158769845962524
1618821354.3421,-19.66266,16.174389839172363
1618821354.35773,-19.15059,16.190019845962524
1618821354.37335,-17.25898,16.205639839172363
1618821354.38898,-13.93041,16.221269845962524
1618821354.4046,-9.501064,16.236889839172363
1618821354.42023,-4.525085,16.252519845962524
1618821354.43586,0.2999229,16.268149852752686
1618821354.45148,4.389511,16.283769845962524
1618821354.46711,7.455143,16.299399852752686
1618821354.48273,9.441742,16.315019845962524
1618821354.49836,10.45949,16.330649852752686
1618821354.51398,10.7201,16.346269845962524
1618821354.52961,10.38736,16.361899852752686
1618821354.54524,9.571495,16.377529859542847
1618821354.56086,8.430008,16.393149852752686
1618821354.57649,7.062195,16.408779859542847
1618821354.59211,5.674103,16.424399852752686
1618821354.60774,4.495331,16.440029859542847
1618821354.62336,3.715355,16.455649852752686
1618821354.63899,3.436485,16.471279859542847
1618821354.65462,3.600922,16.486909866333008
1618821354.67024,3.928642,16.502529859542847
1618821354.68587,4.066292,16.518159866333008
1618821354.70149,3.721191,16.533779859542847
1618821354.71712,2.75473,16.549409866333008
1618821354.73274,1.279076,16.565029859542847
1618821354.74837,-0.4320755,16.580659866333008
1618821354.764,-2.047134,16.59628987312317
1618821354.77962,-3.34214,16.611909866333008
1618821354.79525,-4.241158,16.62753987312317
1618821354.81087,-4.913361,16.643159866333008
1618821354.8265,-5.566063,16.65878987312317
1618821354.84212,-6.396126,16.674409866333008
1618821354.85775,-7.504303,16.69003987312317
1618821354.87338,-8.889778,16.70566987991333
1618821354.889,-10.52737,16.72128987312317
1618821354.90463,-12.41711,16.73691987991333
1618821354.92025,-14.5034,16.75253987312317
1618821354.93588,-16.589,16.76816987991333
1618821354.9515,-18.38066,16.78378987312317
1618821354.96713,-19.36937,16.79941987991333
1618821354.98276,-19.06923,16.81504988670349
1618821354.99838,-17.24162,16.83066987991333
1618821355.01401,-13.98094,16.84629988670349
1618821355.02963,-9.796631,16.86191987991333
1618821355.04526,-5.408707,16.87754988670349
1618821355.06088,-1.46344,16.89316987991333
1618821355.07651,1.654037,16.90879988670349
1618821355.09214,3.82312,16.924429893493652
1618821355.10776,5.224152,16.94004988670349
1618821355.12339,6.062531,16.955679893493652
1618821355.13901,6.560684,16.97129988670349
1618821355.15464,6.859283,16.986929893493652
1618821355.17026,6.967148,17.00254988670349
1618821355.18589,6.913269,17.018179893493652
1618821355.20152,6.706848,17.033809900283813
1618821355.21714,6.408798,17.049429893493652
1618821355.23277,6.1306,17.065059900283813
1618821355.24839,5.981934,17.080679893493652
1618821355.26402,5.995667,17.096309900283813
1618821355.27964,6.063889,17.111929893493652
1618821355.29527,6.019928,17.127559900283813
1618821355.3109,5.549164,17.143189907073975
1618821355.32652,4.480835,17.158809900283813
1618821355.34215,2.797897,17.174439907073975
1618821355.35777,0.6915283,17.190059900283813
1618821355.3734,-1.536026,17.205689907073975
1618821355.38902,-3.592773,17.221309900283813
1618821355.40465,-5.350677,17.236939907073975
1618821355.42028,-6.858566,17.252569913864136
1618821355.4359,-8.231308,17.268189907073975
1618821355.45153,-9.642334,17.283819913864136
1618821355.46715,-11.16365,17.299439907073975
1618821355.48278,-12.85464,17.315069913864136
1618821355.4984,-14.80156,17.330689907073975
1618821355.51403,-17.0537,17.346319913864136
1618821355.52966,-19.59294,17.361949920654297
1618821355.54528,-22.20494,17.377569913864136
1618821355.56091,-24.4091,17.393199920654297
1618821355.57653,-25.45541,17.408819913864136
1618821355.59216,-24.65192,17.424449920654297
1618821355.60778,-21.491,17.440069913864136
1618821355.62341,-16.06314,17.455699920654297
1618821355.63904,-9.053299,17.471329927444458
1618821355.65466,-1.540909,17.486949920654297
1618821355.67029,5.288254,17.502579927444458
1618821355.68591,10.54256,17.518199920654297
1618821355.70154,13.80368,17.533829927444458
1618821355.71716,15.15686,17.549449920654297
1618821355.73279,14.94273,17.565079927444458
1618821355.74842,13.67955,17.58070993423462
1618821355.76404,11.80765,17.596329927444458
1618821355.77967,9.685852,17.61195993423462
1618821355.79529,7.677765,17.627579927444458
1618821355.81092,6.047165,17.64320993423462
1618821355.82654,5.002213,17.658829927444458
1618821355.84217,4.515732,17.67445993423462
1618821355.8578,4.425827,17.69008994102478
1618821355.87342,4.428497,17.70570993423462
1618821355.88905,4.366852,17.72133994102478
1618821355.90467,4.232407,17.73695993423462
1618821355.9203,4.190002,17.75258994102478
1618821355.93592,4.418655,17.76820993423462
1618821355.95155,4.933319,17.78383994102478
1618821355.96718,5.533051,17.79946994781494
1618821355.9828,5.881332,17.81508994102478
1618821355.99843,5.668045,17.83071994781494
1618821356.01405,4.729874,17.84633994102478
1618821356.02968,3.167877,17.86196994781494
1618821356.04531,1.180542,17.877599954605103
1618821356.06093,-0.9868927,17.89321994781494
1618821356.07656,-3.134949,17.908849954605103
1618821356.09218,-5.226974,17.92446994781494
1618821356.10781,-7.298386,17.940099954605103
1618821356.12343,-9.400482,17.95571994781494
1618821356.13906,-11.61002,17.971349954605103
1618821356.15469,-13.92982,17.986979961395264
1618821356.17031,-16.24667,18.002599954605103
1618821356.18594,-18.35852,18.018229961395264
1618821356.20156,-19.9584,18.033849954605103
1618821356.21719,-20.68687,18.049479961395264
1618821356.23281,-20.29295,18.065099954605103
1618821356.24844,-18.63947,18.080729961395264
1618821356.26407,-15.79221,18.096359968185425
1618821356.27969,-12.05205,18.111979961395264
1618821356.29532,-7.874161,18.127609968185425
1618821356.31094,-3.786713,18.143229961395264
1618821356.32657,-0.2715149,18.158859968185425
1618821356.34219,2.315552,18.174479961395264
1618821356.35782,3.842529,18.190109968185425
1618821356.37345,4.34613,18.205739974975586
1618821356.38907,4.079254,18.221359968185425
1618821356.4047,3.372406,18.236989974975586
1618821356.42032,2.55484,18.252609968185425
1618821356.43595,1.810516,18.268239974975586
1618821356.45157,1.155243,18.283859968185425
1618821356.4672,0.4382019,18.299489974975586
1618821356.48283,-0.4589844,18.315119981765747
1618821356.49845,-1.563751,18.330739974975586
1618821356.51408,-2.736023,18.346369981765747
1618821356.5297,-3.667938,18.361989974975586
1618821356.54533,-4.105316,18.377619981765747
1618821356.56095,-3.967834,18.393239974975586
1618821356.57658,-3.401367,18.408869981765747
1618821356.59221,-2.695862,18.424499988555908
1618821356.60783,-2.173279,18.440119981765747
1618821356.62346,-1.967743,18.455749988555908
1618821356.63908,-2.044434,18.471369981765747
1618821356.65471,-2.272644,18.486999988555908
1618821356.67033,-2.445862,18.502619981765747
1618821356.68596,-2.531128,18.518249988555908
1618821356.70159,-2.588531,18.53387999534607
1618821356.71721,-2.713898,18.549499988555908
1618821356.73284,-2.910126,18.56512999534607
1618821356.74846,-3.11264,18.580749988555908
1618821356.76409,-3.199921,18.59637999534607
1618821356.77971,-3.170715,18.611999988555908
1618821356.79534,-3.175354,18.62762999534607
1618821356.81097,-3.358246,18.64326000213623
1618821356.82659,-3.836121,18.65887999534607
1618821356.84222,-4.469025,18.67451000213623
1618821356.85784,-4.902649,18.69012999534607
1618821356.87347,-4.684967,18.70576000213623
1618821356.88909,-3.453369,18.72137999534607
1618821356.90472,-1.10968,18.73701000213623
1618821356.92035,2.141541,18.75264000892639
1618821356.93597,5.864105,18.76826000213623
1618821356.9516,9.617279,18.78389000892639
1618821356.96722,12.91428,18.79951000213623
1618821356.98285,15.45599,18.81514000892639
1618821356.99847,17.08752,18.83076000213623
1618821357.0141,17.77301,18.84639000892639
1618821357.02973,17.73294,18.862020015716553
1618821357.04535,17.28482,18.87764000892639
1618821357.06098,16.81998,18.893270015716553
1618821357.0766,16.67572,18.90889000892639
1618821357.09223,17.10574,18.924520015716553
1618821357.10785,17.80136,18.94014000892639
1618821357.12348,18.18527,18.955770015716553
1618821357.13911,17.70215,18.971400022506714
1618821357.15473,16.01321,18.987020015716553
1618821357.17036,13.37427,19.002650022506714
1618821357.18598,10.47897,19.018270015716553
1618821357.20161,8.156525,19.033900022506714
1618821357.21723,7.082001,19.049520015716553
1618821357.23286,7.562439,19.065150022506714
1618821357.24849,8.630951,19.080780029296875
1618821357.26411,8.845917,19.096400022506714
1618821357.27974,6.82608,19.112030029296875
1618821357.29536,1.862427,19.127650022506714
1618821357.31099,-5.4823,19.143280029296875
1618821357.32661,-13.65366,19.158900022506714
1618821357.34224,-20.68039,19.174530029296875
1618821357.35787,-24.83621,19.190160036087036
1618821357.37349,-25.11765,19.205780029296875
1618821357.38912,-22.74155,19.221410036087036
1618821357.40474,-19.96613,19.237030029296875
1618821357.42037,-19.24814,19.252660036087036
1618821357.43599,-22.25827,19.268280029296875
1618821357.45162,-28.98608,19.283910036087036
1618821357.46725,-38.17682,19.299540042877197
1618821357.48287,-48.29431,19.315160036087036
1618821357.4985,-58.24271,19.330790042877197
1618821357.51412,-67.6517,19.346410036087036
1618821357.52975,-78.23013,19.362040042877197
1618821357.54537,-92.20807,19.377660036087036
1618821357.561,-111.6661,19.393290042877197
1618821357.57663,-138.3608,19.40892004966736
1618821357.59225,-173.213,19.424540042877197
1618821357.60788,-216.8698,19.44017004966736
1618821357.6235,-269.7694,19.455790042877197
1618821357.63913,-331.3682,19.47142004966736
1618821357.65475,-388.3655,19.487040042877197
1618821357.67038,-424.9526,19.50267004966736
1618821357.68601,-426.383,19.51829981803894
1618821357.70163,-385.997,19.53392004966736
1618821357.71726,-309.2928,19.54954981803894
1618821357.73288,-209.7428,19.56517004966736
1618821357.74851,-102.4567,19.58079981803894
1618821357.76413,0.7931366,19.59642004966736
1618821357.77976,93.02467,19.61204981803894
1618821357.79539,171.3237,19.6276798248291
1618821357.81101,233.8357,19.64329981803894
1618821357.82664,279.8762,19.6589298248291
1618821357.84226,311.0776,19.67454981803894
1618821357.85789,330.0953,19.6901798248291
1618821357.87351,340.3959,19.70579981803894
1618821357.88914,344.9024,19.7214298248291
1618821357.90477,345.2294,19.737059831619263
1618821357.92039,341.3939,19.7526798248291
1618821357.93602,332.0046,19.768309831619263
1618821357.95164,313.6515,19.7839298248291
1618821357.96727,282.6017,19.799559831619263
1618821357.98289,236.5392,19.8151798248291
1618821357.99852,173.0303,19.830809831619263
1618821358.01415,98.62392,19.846439838409424
1618821358.02977,25.90303,19.862059831619263
1618821358.0454,-30.97198,19.877689838409424
1618821358.06102,-61.59904,19.893309831619263
1618821358.07665,-63.23405,19.908939838409424
1618821358.09227,-42.35095,19.924559831619263
1618821358.1079,-14.71272,19.940189838409424
1618821358.12353,7.857849,19.955819845199585
1618821358.13915,17.79736,19.971439838409424
1618821358.15478,13.74156,19.987069845199585
1618821358.1704,-0.9088287,20.002689838409424
1618821358.18603,-20.38993,20.018319845199585
1618821358.20165,-39.20092,20.033939838409424
1618821358.21728,-53.71053,20.049569845199585
1618821358.23291,-62.90848,20.065199851989746
1618821358.24853,-64.86156,20.080819845199585
1618821358.26416,-59.04501,20.096449851989746
1618821358.27978,-46.61002,20.112069845199585
1618821358.29541,-29.37881,20.127699851989746
1618821358.31103,-10.35925,20.143319845199585
1618821358.32666,6.542511,20.158949851989746
1618821358.34229,17.40487,20.174579858779907
1618821358.35791,19.54144,20.190199851989746
1618821358.37354,12.47292,20.205829858779907
1618821358.38916,-1.701439,20.221449851989746
1618821358.40479,-18.83585,20.237079858779907
1618821358.42041,-34.57729,20.252699851989746
1618821358.43604,-45.1016,20.268329858779907
1618821358.45167,-48.36519,20.28395986557007
1618821358.46729,-44.58562,20.299579858779907
1618821358.48292,-35.84254,20.31520986557007
1618821358.49854,-25.19278,20.330829858779907
1618821358.51417,-15.67915,20.34645986557007
1618821358.52979,-9.411232,20.362079858779907
1618821358.54542,-7.091484,20.37770986557007
1618821358.56105,-8.269875,20.39333987236023
1618821358.57667,-11.36127,20.40895986557007
1618821358.5923,-14.48451,20.42458987236023
1618821358.60792,-16.24466,20.44020986557007
1618821358.62355,-16.17036,20.45583987236023
1618821358.63918,-14.72386,20.47146987915039
1618821358.6548,-12.89521,20.48708987236023
1618821358.67043,-11.6095,20.50271987915039
1618821358.68605,-11.36815,20.51833987236023
1618821358.70168,-12.24765,20.53396987915039
1618821358.7173,-13.99429,20.54958987236023
1618821358.73293,-16.36214,20.56521987915039
1618821358.74856,-19.39402,20.58084988594055
1618821358.76418,-23.17403,20.59646987915039
1618821358.77981,-27.61468,20.61209988594055
1618821358.79543,-32.05669,20.62771987915039
1618821358.81106,-35.3287,20.64334988594055
1618821358.82668,-36.147,20.65896987915039
1618821358.84231,-33.76678,20.67459988594055
1618821358.85794,-28.36271,20.690229892730713
1618821358.87356,-20.9968,20.70584988594055
1618821358.88919,-13.28784,20.721479892730713
1618821358.90481,-6.672386,20.73709988594055
1618821358.92044,-1.979942,20.752729892730713
1618821358.93606,0.811367,20.76834988594055
1618821358.95169,2.291222,20.783979892730713
1618821358.96732,3.263893,20.799609899520874
1618821358.98294,4.384251,20.815229892730713
1618821358.99857,6.018696,20.830859899520874
1618821359.01419,8.346729,20.846479892730713
1618821359.02982,11.39144,20.862109899520874
1618821359.04544,15.14581,20.877729892730713
1618821359.06107,19.44216,20.893359899520874
1618821359.0767,23.9041,20.908989906311035
1618821359.09232,27.87879,20.924609899520874
1618821359.10795,30.66068,20.940239906311035
1618821359.12357,31.73251,20.955859899520874
1618821359.1392,30.94747,20.971489906311035
1618821359.15482,28.62243,20.987109899520874
1618821359.17045,25.2892,21.002739906311035
1618821359.18608,21.49653,21.018369913101196
1618821359.2017,17.52426,21.033989906311035
1618821359.21733,13.36874,21.049619913101196
1618821359.23295,8.897117,21.065239906311035
1618821359.24858,4.051928,21.080869913101196
1618821359.2642,-0.9369118,21.096489906311035
1618821359.27983,-5.574313,21.112119913101196
1618821359.29546,-9.271795,21.127749919891357
1618821359.31108,-11.61443,21.143369913101196
1618821359.32671,-12.53284,21.158999919891357
1618821359.34233,-12.38403,21.174619913101196
1618821359.35796,-11.86249,21.190249919891357
1618821359.37358,-11.6903,21.205869913101196
1618821359.38921,-12.45421,21.221499919891357
1618821359.40484,-14.41491,21.23712992668152
1618821359.42046,-17.49147,21.252749919891357
1618821359.43609,-21.30309,21.26837992668152
1618821359.45171,-25.27574,21.283999919891357
1618821359.46734,-28.71248,21.29962992668152
1618821359.48296,-30.84746,21.315249919891357
1618821359.49859,-30.98113,21.33087992668152
1618821359.51422,-28.61457,21.34650993347168
1618821359.52984,-23.633,21.36212992668152
1618821359.54547,-16.46702,21.37775993347168
1618821359.56109,-8.025841,21.39337992668152
1618821359.57672,0.5273666,21.40900993347168
1618821359.59234,8.157688,21.42462992668152
1618821359.60797,14.21928,21.44025993347168
1618821359.6236,18.62807,21.45588994026184
1618821359.63922,21.66592,21.47150993347168
1618821359.65485,23.78276,21.48713994026184
1618821359.67047,25.31812,21.50275993347168
1618821359.6861,26.3484,21.51838994026184
1618821359.70172,26.747,21.53400993347168
1618821359.71735,26.42447,21.54963994026184
1618821359.73298,25.49236,21.565269947052002
1618821359.7486,24.37279,21.58088994026184
1618821359.76423,23.6649,21.596519947052002
1618821359.77985,23.86488,21.61213994026184
1618821359.79548,25.13254,21.627769947052002
1618821359.8111,27.10477,21.64338994026184
1618821359.82673,28.99931,21.659019947052002
1618821359.84236,29.95096,21.674649953842163
1618821359.85798,29.28004,21.690269947052002
1618821359.87361,26.84907,21.705899953842163
1618821359.88923,23.06887,21.721519947052002
1618821359.90486,18.67256,21.737149953842163
1618821359.92048,14.45542,21.752769947052002
1618821359.93611,10.9362,21.768399953842163
1618821359.95174,8.202225,21.784029960632324
1618821359.96736,5.961082,21.799649953842163
1618821359.98299,3.769165,21.815279960632324
1618821359.99861,1.186707,21.830899953842163
1618821360.01424,-2.097893,21.846529960632324
1618821360.02986,-6.159462,21.862149953842163
1618821360.04549,-10.94307,21.877779960632324
1618821360.06112,-16.22701,21.893409967422485
1618821360.07674,-21.71048,21.909029960632324
1618821360.09237,-26.9281,21.924659967422485
1618821360.10799,-31.36177,21.940279960632324
1618821360.12362,-34.49019,21.955909967422485
1618821360.13924,-35.90425,21.971529960632324
1618821360.15487,-35.44958,21.987159967422485
1618821360.1705,-33.17065,22.002789974212646
1618821360.18612,-29.31271,22.018409967422485
1618821360.20175,-24.19174,22.034039974212646
1618821360.21737,-18.20651,22.049659967422485
1618821360.233,-11.75845,22.065289974212646
1618821360.24862,-5.332718,22.080909967422485
1618821360.26425,0.5711365,22.096539974212646
1618821360.27988,5.495636,22.112169981002808
1618821360.2955,9.133438,22.127789974212646
1618821360.31113,11.42818,22.143419981002808
1618821360.32675,12.60028,22.159039974212646
1618821360.34238,13.07674,22.174669981002808
1618821360.358,13.33287,22.190289974212646
1618821360.37363,13.76868,22.205919981002808
1618821360.38926,14.56119,22.22154998779297
1618821360.40488,15.68259,22.237169981002808
1618821360.42051,16.87772,22.25279998779297
1618821360.43613,17.82153,22.268419981002808
1618821360.45176,18.20581,22.28404998779297
1618821360.46738,17.86386,22.299669981002808
1618821360.48301,16.87619,22.31529998779297
1618821360.49864,15.50017,22.33092999458313
1618821360.51426,14.14581,22.34654998779297
1618821360.52989,13.14371,22.36217999458313
1618821360.54551,12.68854,22.37779998779297
1618821360.56114,12.8067,22.39342999458313
1618821360.57676,13.29308,22.40904998779297
1618821360.59239,13.83949,22.42467999458313
1618821360.60802,14.15855,22.44031000137329
1618821360.62364,13.99437,22.45592999458313
1618821360.63927,13.15387,22.47156000137329
1618821360.65489,11.61017,22.48717999458313
1618821360.67052,9.392548,22.50281000137329
1618821360.68614,6.697601,22.51842999458313
1618821360.70177,3.826508,22.53406000137329
1618821360.7174,1.096954,22.549690008163452
1618821360.73302,-1.305267,22.56531000137329
1618821360.74865,-3.348618,22.580940008163452
1618821360.76427,-5.277817,22.59656000137329
1618821360.7799,-7.501968,22.612190008163452
1618821360.79552,-10.30972,22.62781000137329
1618821360.81115,-13.76314,22.643440008163452
1618821360.82678,-17.48347,22.659070014953613
1618821360.8424,-20.69167,22.674690008163452
1618821360.85803,-22.38625,22.690320014953613
1618821360.87365,-21.73193,22.705940008163452
1618821360.88928,-18.41223,22.721570014953613
1618821360.90491,-12.75781,22.737200021743774
1618821360.92053,-5.803558,22.752820014953613
1618821360.93616,1.190048,22.768450021743774
1618821360.95178,7.027542,22.784070014953613
1618821360.96741,11.02432,22.799700021743774
1618821360.98303,13.1442,22.815320014953613
1618821360.99866,13.90025,22.830950021743774
1618821361.01429,14.06934,22.846580028533936
1618821361.02991,14.32802,22.862200021743774
1618821361.04554,15.06119,22.877830028533936
1618821361.06116,16.32762,22.893450021743774
1618821361.07679,17.99194,22.909080028533936
1618821361.09241,19.76208,22.924700021743774
1618821361.10804,21.3376,22.940330028533936
1618821361.12367,22.4189,22.955960035324097
1618821361.13929,22.75992,22.971580028533936
1618821361.15492,22.24548,22.987210035324097
1618821361.17054,20.95212,23.002830028533936
1618821361.18617,19.21475,23.018460035324097
1618821361.20179,17.49271,23.034080028533936
1618821361.21742,16.30061,23.049710035324097
1618821361.23305,15.83134,23.065340042114258
1618821361.24867,15.95107,23.080960035324097
1618821361.2643,16.15463,23.096590042114258
1618821361.27992,15.79916,23.112210035324097
1618821361.29555,14.41031,23.127840042114258
1618821361.31117,11.89349,23.143460035324097
1618821361.3268,8.518234,23.159090042114258
1618821361.34243,4.7388,23.17472004890442
1618821361.35805,1.069489,23.190340042114258
1618821361.37368,-2.149628,23.20597004890442
1618821361.3893,-4.799438,23.221590042114258
1618821361.40493,-6.965607,23.23722004890442
1618821361.42055,-8.945984,23.252840042114258
1618821361.43618,-11.15326,23.26847004890442
1618821361.45181,-13.96072,23.284099817276
1618821361.46743,-17.4863,23.29972004890442
1618821361.48306,-21.52808,23.315349817276
1618821361.49868,-25.32199,23.33097004890442
1618821361.51431,-27.85651,23.346599817276
1618821361.52993,-28.17688,23.36222004890442
1618821361.54556,-25.75708,23.377849817276
1618821361.56119,-20.74759,23.393479824066162
1618821361.57681,-13.90802,23.409099817276
1618821361.59244,-6.294403,23.424729824066162
1618821361.60806,1.132813,23.440349817276
1618821361.62369,7.659119,23.455979824066162
1618821361.63931,12.91949,23.471599817276
1618821361.65494,16.6958,23.487229824066162
1618821361.67057,18.86411,23.502859830856323
1618821361.68619,19.43646,23.518479824066162
1618821361.70182,18.64566,23.534109830856323
1618821361.71744,17.08246,23.549729824066162
1618821361.73307,15.59308,23.565359830856323
1618821361.74869,14.99344,23.580979824066162
1618821361.76432,15.72791,23.596609830856323
1618821361.77995,17.69821,23.612239837646484
1618821361.79557,20.19415,23.627859830856323
1618821361.8112,22.271,23.643489837646484
1618821361.82682,23.14069,23.659109830856323
1618821361.84245,22.46152,23.674739837646484
1618821361.85807,20.45914,23.690359830856323
1618821361.8737,17.69144,23.705989837646484
1618821361.88933,14.80603,23.721619844436646
1618821361.90495,12.29938,23.737239837646484
1618821361.92058,10.4111,23.752869844436646
1618821361.9362,9.033142,23.768489837646484
1618821361.95183,7.859009,23.784119844436646
1618821361.96745,6.466492,23.799739837646484
1618821361.98308,4.416077,23.815369844436646
1618821361.99871,1.478027,23.830999851226807
1618821362.01433,-2.322998,23.846619844436646
1618821362.02996,-6.652863,23.862249851226807
1618821362.04558,-10.97131,23.877869844436646
1618821362.06121,-14.70062,23.893499851226807
1618821362.07683,-17.50244,23.909119844436646
1618821362.09246,-19.42966,23.924749851226807
1618821362.10809,-20.86203,23.940379858016968
1618821362.12371,-22.29678,23.955999851226807
1618821362.13934,-24.08813,23.971629858016968
1618821362.15496,-26.22745,23.987249851226807
1618821362.17059,-28.35208,24.002879858016968
1618821362.18621,-29.8381,24.018499851226807
1618821362.20184,-30.10486,24.034129858016968
1618821362.21747,-28.78955,24.04975986480713
1618821362.23309,-25.83566,24.065379858016968
1618821362.24872,-21.5647,24.08100986480713
1618821362.26434,-16.5145,24.096629858016968
1618821362.27997,-11.2717,24.11225986480713
1618821362.29559,-6.384247,24.127879858016968
1618821362.31122,-2.271301,24.14350986480713
1618821362.32685,0.8666382,24.15913987159729
1618821362.34247,2.953278,24.17475986480713
1618821362.3581,4.073181,24.19038987159729
1618821362.37372,4.449036,24.20600986480713
1618821362.38935,4.339355,24.22163987159729
1618821362.40497,4.087402,24.23725986480713
1618821362.4206,4.048462,24.25288987159729
1618821362.43623,4.486847,24.26851987838745
1618821362.45185,5.486877,24.28413987159729
1618821362.46748,6.947632,24.29976987838745
1618821362.4831,8.531158,24.31538987159729
1618821362.49873,9.925049,24.33101987838745
1618821362.51435,10.94431,24.34663987159729
1618821362.52998,11.66187,24.36226987838745
1618821362.54561,12.43405,24.377899885177612
1618821362.56123,13.67804,24.39351987838745
1618821362.57686,15.64059,24.409149885177612
1618821362.59248,18.20929,24.42476987838745
1618821362.60811,20.84387,24.440399885177612
1618821362.62373,22.71317,24.45601987838745
1618821362.63936,23.07941,24.471649885177612
1618821362.65499,21.58652,24.487279891967773
1618821362.67061,18.39359,24.502899885177612
1618821362.68624,14.1207,24.518529891967773
1618821362.70186,9.540558,24.534149885177612
1618821362.71749,5.221252,24.549779891967773
1618821362.73311,1.500885,24.565399885177612
1618821362.74874,-1.62027,24.581029891967773
1618821362.76437,-4.25296,24.596659898757935
1618821362.77999,-6.509064,24.612279891967773
1618821362.79562,-8.453156,24.627909898757935
1618821362.81124,-10.17584,24.643529891967773
1618821362.82687,-11.75809,24.659159898757935
1618821362.84249,-13.22318,24.674779891967773
1618821362.85812,-14.34964,24.690409898757935
1618821362.87375,-14.43042,24.706039905548096
1618821362.88937,-12.52869,24.721659898757935
1618821362.905,-7.766479,24.737289905548096
1618821362.92062,0.2038879,24.752909898757935
1618821362.93625,10.89667,24.768539905548096
1618821362.95187,23.10373,24.784159898757935
1618821362.9675,35.29034,24.799789905548096
1618821362.98313,45.95914,24.815419912338257
1618821362.99875,54.18591,24.831039905548096
1618821363.01438,59.89523,24.846669912338257
1618821363.03,63.63358,24.862289905548096
1618821363.04563,66.31763,24.877919912338257
1618821363.06125,68.86075,24.893539905548096
1618821363.07688,71.99677,24.909169912338257
1618821363.09251,76.22923,24.924799919128418
1618821363.10813,81.71005,24.940419912338257
1618821363.12376,88.04939,24.956049919128418
1618821363.13938,94.42934,24.971669912338257
1618821363.15501,100.1324,24.987299919128418
1618821363.17063,104.8289,25.002919912338257
1618821363.18626,108.7534,25.018549919128418
1618821363.20189,112.4569,25.03417992591858
1618821363.21751,116.651,25.049799919128418
1618821363.23314,121.9649,25.06542992591858
1618821363.24876,128.4723,25.081049919128418
1618821363.26439,135.384,25.09667992591858
1618821363.28001,141.1588,25.112299919128418
1618821363.29564,144.276,25.12792992591858
1618821363.31127,143.7837,25.14355993270874
1618821363.32689,139.3296,25.15917992591858
1618821363.34252,130.9704,25.17480993270874
1618821363.35814,119.056,25.19042992591858
1618821363.37377,104.1481,25.20605993270874
1618821363.3894,86.43152,25.2216899394989
1618821363.40502,65.04333,25.23730993270874
1618821363.42065,37.9859,25.2529399394989
1618821363.43627,3.012718,25.26855993270874
1618821363.4519,-41.22809,25.2841899394989
1618821363.46752,-94.59505,25.29980993270874
1618821363.48315,-155.0283,25.3154399394989
1618821363.49878,-218.5051,25.331069946289062
1618821363.5144,-277.2767,25.3466899394989
1618821363.53003,-320.1853,25.362319946289062
1618821363.54565,-336.9482,25.3779399394989
1618821363.56128,-323.3884,25.393569946289062
1618821363.5769,-283.3473,25.4091899394989
1618821363.59253,-225.9192,25.424819946289062
1618821363.60816,-161.0667,25.440449953079224
1618821363.62378,-96.23296,25.456069946289062
1618821363.63941,-35.48451,25.471699953079224
1618821363.65503,19.67816,25.487319946289062
1618821363.67066,68.4867,25.502949953079224
1618821363.68628,111.3236,25.518569946289062
1618821363.70191,147.5548,25.534199953079224
1618821363.71754,175.6951,25.549829959869385
1618821363.73316,194.5729,25.565449953079224
1618821363.74879,203.3117,25.581079959869385
1618821363.76441,201.2079,25.596699953079224
1618821363.78004,187.503,25.612329959869385
1618821363.79566,161.5896,25.627949953079224
1618821363.81129,123.6031,25.643579959869385
1618821363.82692,75.27506,25.659209966659546
1618821363.84254,20.22996,25.674829959869385
1618821363.85817,-35.57949,25.690459966659546
1618821363.87379,-83.62959,25.706079959869385
1618821363.88942,-117.0761,25.721709966659546
1618821363.90504,-133.7593,25.737329959869385
1618821363.92067,-136.7285,25.752959966659546
1618821363.9363,-132.1885,25.768589973449707
1618821363.95192,-126.3602,25.784209966659546
1618821363.96755,-122.797,25.799839973449707
1618821363.98317,-121.7931,25.815459966659546
1618821363.9988,-121.2269,25.831089973449707
1618821364.01442,-118.7007,25.846709966659546
1618821364.03005,-113.5814,25.862339973449707
1618821364.04568,-107.2139,25.877969980239868
1618821364.0613,-101.4709,25.893589973449707
1618821364.07693,-97.21265,25.909219980239868
1618821364.09255,-93.70605,25.924839973449707
1618821364.10818,-89.26289,25.940469980239868
1618821364.1238,-82.80168,25.956089973449707
1618821364.13943,-74.57356,25.971719980239868
1618821364.15506,-66.1376,25.98734998703003
1618821364.17068,-59.94153,26.002969980239868
1618821364.18631,-57.92281,26.01859998703003
1618821364.20193,-60.39841,26.034219980239868
1618821364.21756,-65.8221,26.04984998703003
1618821364.23318,-71.50267,26.065469980239868
1618821364.24881,-74.84198,26.08109998703003
1618821364.26444,-74.44252,26.09672999382019
1618821364.28006,-70.43187,26.11234998703003
1618821364.29569,-63.91652,26.12797999382019
1618821364.31131,-56.32089,26.14359998703003
1618821364.32694,-48.61038,26.15922999382019
1618821364.34256,-40.96053,26.17484998703003
1618821364.35819,-33.02261,26.19047999382019
1618821364.37382,-24.46544,26.20611000061035
1618821364.38944,-15.2953,26.22172999382019
1618821364.40507,-5.975967,26.23736000061035
1618821364.42069,2.734528,26.25297999382019
1618821364.43632,10.14223,26.26861000061035
1618821364.45194,15.69557,26.28422999382019
1618821364.46757,19.10626,26.29986000061035
1618821364.4832,20.49464,26.315490007400513
1618821364.49882,20.33111,26.33111000061035
1618821364.51445,19.32918,26.346740007400513
1618821364.53007,18.33523,26.36236000061035
1618821364.5457,18.02485,26.377990007400513
1618821364.56132,18.58707,26.39361000061035
1618821364.57695,19.69226,26.409240007400513
1618821364.59258,20.56837,26.424870014190674
1618821364.6082,20.37611,26.440490007400513
1618821364.62383,18.74387,26.456120014190674
1618821364.63945,15.94816,26.471740007400513
1618821364.65508,12.8276,26.487370014190674
1618821364.6707,10.36191,26.502990007400513
1618821364.68633,9.189972,26.518620014190674
1618821364.70196,9.226036,26.534250020980835
1618821364.71758,9.816818,26.549870014190674
1618821364.73321,10.10181,26.565500020980835
1618821364.74883,9.258636,26.581120014190674
1618821364.76446,6.937111,26.596750020980835
1618821364.78008,3.039093,26.612370014190674
1618821364.79571,-2.271179,26.628000020980835
1618821364.81134,-8.83548,26.643630027770996
1618821364.82696,-16.50184,26.659250020980835
1618821364.84259,-25.01954,26.674880027770996
1618821364.85821,-33.89658,26.690500020980835
1618821364.87384,-42.2211,26.706130027770996
1618821364.88946,-48.88915,26.721750020980835
1618821364.90509,-52.72801,26.737380027770996
1618821364.92072,-52.93289,26.753010034561157
1618821364.93634,-49.20254,26.768630027770996
1618821364.95197,-41.91487,26.784260034561157
1618821364.96759,-31.97238,26.799880027770996
1618821364.98322,-20.56886,26.815510034561157
1618821364.99884,-8.985485,26.831130027770996
1618821365.01447,1.699757,26.846760034561157
1618821365.0301,10.64342,26.86239004135132
1618821365.04572,17.38263,26.878010034561157
1618821365.06135,21.8163,26.89364004135132
1618821365.07697,24.22044,26.909260034561157
1618821365.0926,25.08568,26.92489004135132
1618821365.10822,24.98306,26.940510034561157
1618821365.12385,24.38452,26.95614004135132
1618821365.13948,23.50858,26.97177004814148
1618821365.1551,22.40656,26.98739004135132
1618821365.17073,20.97547,27.00302004814148
1618821365.18635,19.26859,27.01864004135132
1618821365.20198,17.46481,27.03427004814148
1618821365.2176,15.91092,27.04989004135132
1618821365.23323,14.92655,27.06552004814148
1618821365.24886,14.62236,27.08114981651306
1618821365.26448,14.87735,27.09677004814148
1618821365.28011,15.30412,27.11239981651306
1618821365.29573,15.48377,27.12802004814148
1618821365.31136,15.03921,27.14364981651306
1618821365.32698,13.84275,27.15927004814148
1618821365.34261,11.93746,27.17489981651306
1618821365.35824,9.495651,27.190529823303223
1618821365.37386,6.734295,27.20614981651306
1618821365.38949,3.886845,27.221779823303223
1618821365.40511,1.203545,27.23739981651306
1618821365.42074,-1.236992,27.253029823303223
1618821365.43636,-3.420715,27.26864981651306
1618821365.45199,-5.595093,27.284279823303223
1618821365.46762,-8.170616,27.299909830093384
1618821365.48324,-11.52825,27.315529823303223
1618821365.49887,-15.76918,27.331159830093384
1618821365.51449,-20.55084,27.346779823303223
1618821365.53012,-24.99035,27.362409830093384
1618821365.54574,-27.95296,27.378029823303223
1618821365.56137,-28.5341,27.393659830093384
1618821365.577,-26.32557,27.409289836883545
1618821365.59262,-21.6721,27.424909830093384
1618821365.60825,-15.50221,27.440539836883545
1618821365.62387,-8.962311,27.456159830093384
1618821365.6395,-2.98436,27.471789836883545
1618821365.65512,1.902115,27.487409830093384
1618821365.67075,5.614914,27.503039836883545
1618821365.68638,8.3908,27.518669843673706
1618821365.702,10.49734,27.534289836883545
1618821365.71763,12.18973,27.549919843673706
1618821365.73325,13.65303,27.565539836883545
1618821365.74888,15.00877,27.581169843673706
1618821365.76451,16.36008,27.596799850463867
1618821365.78013,17.77156,27.612419843673706
1618821365.79576,19.15909,27.628049850463867
1618821365.81138,20.32568,27.643669843673706
1618821365.82701,20.99733,27.659299850463867
1618821365.84263,20.93771,27.674919843673706
1618821365.85826,20.07832,27.690549850463867
1618821365.87389,18.6098,27.70617985725403
1618821365.88951,16.87064,27.721799850463867
1618821365.90514,15.27231,27.73742985725403
1618821365.92076,14.04369,27.753049850463867
1618821365.93639,13.16441,27.76867985725403
1618821365.95201,12.3632,27.784299850463867
1618821365.96764,11.28276,27.79992985725403
1618821365.98327,9.554459,27.81555986404419
1618821365.99889,7.026276,27.83117985725403
1618821366.01452,3.807343,27.84680986404419
1618821366.03014,0.1895905,27.86242985725403
1618821366.04577,-3.403259,27.87805986404419
1618821366.06139,-6.680984,27.89367985725403
1618821366.07702,-9.508957,27.90930986404419
1618821366.09265,-12.04471,27.92493987083435
1618821366.10827,-14.61127,27.94055986404419
1618821366.1239,-17.65434,27.95618987083435
1618821366.13952,-21.46559,27.97180986404419
1618821366.15515,-25.98575,27.98743987083435
1618821366.17077,-30.67313,28.00305986404419
1618821366.1864,-34.52678,28.01868987083435
1618821366.20203,-36.35728,28.03431987762451
1618821366.21765,-35.23154,28.04993987083435
1618821366.23328,-30.84741,28.06556987762451
1618821366.2489,-23.70816,28.08118987083435
1618821366.26453,-15.02498,28.09681987762451
1618821366.28015,-6.243607,28.11243987083435
1618821366.29578,1.405731,28.12806987762451
1618821366.31141,7.242645,28.143699884414673
1618821366.32703,11.21317,28.15931987762451
1618821366.34266,13.77594,28.174949884414673
1618821366.35828,15.45044,28.19056987762451
1618821366.37391,16.72333,28.206199884414673
1618821366.38953,17.85934,28.22181987762451
1618821366.40516,18.9982,28.237449884414673
1618821366.42079,20.16818,28.253079891204834
1618821366.43641,21.36404,28.268699884414673
1618821366.45204,22.40622,28.284329891204834
1618821366.46766,23.0087,28.299949884414673
1618821366.48329,22.91577,28.315579891204834
1618821366.49891,21.92621,28.331199884414673
1618821366.51454,20.11746,28.346829891204834
1618821366.53017,17.82404,28.362459897994995
1618821366.54579,15.59201,28.378079891204834
1618821366.56142,13.85544,28.393709897994995
1618821366.57704,12.82153,28.409329891204834
1618821366.59267,12.3324,28.424959897994995
1618821366.60829,11.96191,28.440579891204834
1618821366.62392,11.29779,28.456209897994995
1618821366.63955,10.02539,28.471839904785156
1618821366.65517,8.071533,28.487459897994995
1618821366.6708,5.516815,28.503089904785156
1618821366.68642,2.489014,28.518709897994995
1618821366.70205,-0.910614,28.534339904785156
1618821366.71767,-4.610016,28.549959897994995
1618821366.7333,-8.465118,28.565589904785156
1618821366.74893,-12.30634,28.581219911575317
1618821366.76455,-15.89746,28.596839904785156
1618821366.78018,-19.24124,28.612469911575317
1618821366.7958,-22.495,28.628089904785156
1618821366.81143,-25.88959,28.643719911575317
1618821366.82705,-29.52448,28.659339904785156
1618821366.84268,-33.0137,28.674969911575317
1618821366.85831,-35.5376,28.69059991836548
1618821366.87393,-36.06909,28.706219911575317
1618821366.88956,-33.88058,28.72184991836548
1618821366.90518,-28.79761,28.737469911575317
1618821366.92081,-21.46869,28.75309991836548
1618821366.93643,-12.95544,28.768719911575317
1618821366.95206,-4.412903,28.78434991836548
1618821366.96769,3.219635,28.79997992515564
1618821366.98331,9.463501,28.81559991836548
1618821366.99894,14.2301,28.83122992515564
1618821367.01456,17.70425,28.84684991836548
1618821367.03019,20.09851,28.86247992515564
1618821367.04581,21.75504,28.87809991836548
1618821367.06144,22.92944,28.89372992515564
1618821367.07707,23.92548,28.9093599319458
1618821367.09269,24.99734,28.92497992515564
1618821367.10832,26.24457,28.9406099319458
1618821367.12394,27.66238,28.95622992515564
1618821367.13957,29.10184,28.9718599319458
1618821367.15519,30.3324,28.98747992515564
1618821367.17082,31.06961,29.0031099319458
1618821367.18645,31.09756,29.018739938735962
1618821367.20207,30.2811,29.0343599319458
1618821367.2177,28.64761,29.049989938735962
1618821367.23332,26.45676,29.0656099319458
1618821367.24895,24.00818,29.081239938735962
1618821367.26457,21.64789,29.0968599319458
1618821367.2802,19.51566,29.112489938735962
1618821367.29583,17.51666,29.128119945526123
1618821367.31145,15.41876,29.143739938735962
1618821367.32708,12.97522,29.159369945526123
1618821367.3427,10.02008,29.174989938735962
1618821367.35833,6.551392,29.190619945526123
1618821367.37395,2.769836,29.206239938735962
1618821367.38958,-1.157806,29.221869945526123
1618821367.40521,-5.039154,29.237499952316284
1618821367.42083,-8.801086,29.253119945526123
1618821367.43646,-12.40768,29.268749952316284
1618821367.45208,-15.87561,29.284369945526123
1618821367.46771,-19.16422,29.299999952316284
1618821367.48333,-22.34833,29.315619945526123
1618821367.49896,-25.55359,29.331249952316284
1618821367.51459,-28.8125,29.346879959106445
1618821367.53021,-32.05429,29.362499952316284
1618821367.54584,-34.76773,29.378129959106445
1618821367.56146,-36.14859,29.393749952316284
1618821367.57709,-35.23444,29.409379959106445
1618821367.59271,-31.40448,29.424999952316284
1618821367.60834,-24.61707,29.440629959106445
1618821367.62397,-15.61676,29.456259965896606
1618821367.63959,-5.721008,29.471879959106445
1618821367.65522,3.66272,29.487509965896606
1618821367.67084,11.43469,29.503129959106445
1618821367.68647,17.10901,29.518759965896606
1618821367.70209,20.73486,29.534379959106445
1618821367.71772,22.64069,29.550009965896606
1618821367.73335,23.19427,29.565639972686768
1618821367.74897,22.75085,29.581259965896606
1618821367.7646,21.63464,29.596889972686768
1618821367.78022,20.29846,29.612509965896606
1618821367.79585,19.2832,29.628139972686768
1618821367.81147,19.07129,29.643759965896606
1618821367.8271,19.88629,29.659389972686768
1618821367.84273,21.49866,29.67501997947693
1618821367.85835,23.33801,29.690639972686768
1618821367.87398,24.6615,29.70626997947693
1618821367.8896,24.94226,29.721889972686768
1618821367.90523,24.03387,29.73751997947693
1618821367.92085,22.25043,29.753139972686768
1618821367.93648,20.21918,29.76876997947693
1618821367.95211,18.50726,29.78439998626709
1618821367.96773,17.4646,29.80001997947693
1618821367.98336,17.04779,29.81564998626709
1618821367.99898,16.88159,29.83126997947693
1618821368.01461,16.44098,29.84689998626709
1618821368.03024,15.27795,29.86252999305725
1618821368.04586,13.2312,29.87814998626709
1618821368.06149,10.4339,29.89377999305725
1618821368.07711,7.238037,29.90939998626709
1618821368.09274,4.035645,29.92502999305725
1618821368.10836,1.1203,29.94064998626709
1618821368.12399,-1.425598,29.95627999305725
1618821368.13962,-3.706421,29.971909999847412
1618821368.15524,-5.968567,29.98752999305725
1618821368.17087,-8.527588,30.003159999847412
1618821368.18649,-11.58289,30.01877999305725
1618821368.20212,-15.08417,30.034409999847412
1618821368.21774,-18.59467,30.05002999305725
1618821368.23337,-21.34125,30.065659999847412
1618821368.249,-22.40601,30.081290006637573
1618821368.26462,-21.06409,30.096909999847412
1618821368.28025,-17.08746,30.112540006637573
1618821368.29587,-10.87671,30.128159999847412
1618821368.3115,-3.410095,30.143790006637573
1618821368.32712,4.144409,30.159409999847412
1618821368.34275,10.78851,30.175040006637573
1618821368.35838,16.04218,30.190670013427734
1618821368.374,19.95593,30.206290006637573
1618821368.38963,22.85651,30.221920013427734
1618821368.40525,25.13574,30.237540006637573
1618821368.42088,26.97919,30.253170013427734
1618821368.4365,28.46252,30.268790006637573
1618821368.45213,29.52686,30.284420013427734
1618821368.46776,30.16669,30.300050020217896
1618821368.48338,30.43457,30.315670013427734
1618821368.49901,30.42389,30.331300020217896
1618821368.51463,30.22498,30.346920013427734
1618821368.53026,29.80371,30.362550020217896
1618821368.54588,29.10883,30.378170013427734
1618821368.56151,28.07935,30.393800020217896
1618821368.57714,26.69879,30.409430027008057
1618821368.59276,25.03143,30.425050020217896
1618821368.60839,23.16248,30.440680027008057
1618821368.62401,21.11462,30.456300020217896
1618821368.63964,18.85895,30.471930027008057
1618821368.65526,16.36475,30.487550020217896
1618821368.67089,13.58655,30.503180027008057
1618821368.68652,10.59277,30.518810033798218
1618821368.70214,7.538147,30.534430027008057
1618821368.71777,4.553955,30.550060033798218
1618821368.73339,1.768982,30.565680027008057
1618821368.74902,-0.7767334,30.581310033798218
1618821368.76464,-3.194946,30.596930027008057
1618821368.78027,-5.648621,30.612560033798218
1618821368.7959,-8.213684,30.62819004058838
1618821368.81152,-10.8714,30.643810033798218
1618821368.82715,-13.54028,30.65944004058838
1618821368.84277,-16.10535,30.675060033798218
1618821368.8584,-18.57074,30.69069004058838
1618821368.87402,-20.9458,30.706310033798218
1618821368.88965,-23.20831,30.72194004058838
1618821368.90528,-25.09937,30.73757004737854
1618821368.9209,-26.19897,30.75319004058838
1618821368.93653,-25.91125,30.76882004737854
1618821368.95215,-23.79285,30.78444004058838
1618821368.96778,-19.81287,30.80007004737854
1618821368.9834,-14.38348,30.81569004058838
1618821368.99903,-8.343811,30.83132004737854
1618821369.01466,-2.535767,30.846949815750122
1618821369.03028,2.370178,30.86257004737854
1618821369.04591,6.126526,30.878199815750122
1618821369.06153,8.771606,30.89382004737854
1618821369.07716,10.49817,30.909449815750122
1618821369.09278,11.5625,30.92507004737854
1618821369.10841,12.21063,30.940699815750122
1618821369.12404,12.7417,30.956329822540283
1618821369.13966,13.43073,30.971949815750122
1618821369.15529,14.54816,30.987579822540283
1618821369.17091,16.22009,31.003199815750122
1618821369.18654,18.34692,31.018829822540283
1618821369.20216,20.64221,31.034449815750122
1618821369.21779,22.64996,31.050079822540283
1618821369.23342,23.9516,31.065709829330444
1618821369.24904,24.28986,31.081329822540283
1618821369.26467,23.66046,31.096959829330444
1618821369.28029,22.32123,31.112579822540283
1618821369.29592,20.67578,31.128209829330444
1618821369.31154,19.19373,31.143829822540283
1618821369.32717,18.10571,31.159459829330444
1618821369.3428,17.38177,31.175089836120605
1618821369.35842,16.68567,31.190709829330444
1618821369.37405,15.51825,31.206339836120605
1618821369.38967,13.43414,31.221959829330444
1618821369.4053,10.29962,31.237589836120605
1618821369.42092,6.32196,31.253209829330444
1618821369.43655,1.938843,31.268839836120605
1618821369.45218,-2.314575,31.284469842910767
1618821369.4678,-6.10614,31.300089836120605
1618821369.48343,-9.276123,31.315719842910767
1618821369.49905,-11.87274,31.331339836120605
1618821369.51468,-14.0332,31.346969842910767
1618821369.5303,-15.98999,31.362589836120605
1618821369.54593,-17.98706,31.378219842910767
1618821369.56156,-20.25696,31.393849849700928
1618821369.57718,-22.9325,31.409469842910767
1618821369.59281,-25.91455,31.425099849700928
1618821369.60843,-28.74432,31.440719842910767
1618821369.62406,-30.65521,31.456349849700928
1618821369.63968,-30.75812,31.471969842910767
1618821369.65531,-28.40454,31.487599849700928
1618821369.67094,-23.45209,31.50322985649109
1618821369.68656,-16.38702,31.518849849700928
1618821369.70219,-8.172302,31.53447985649109
1618821369.71781,0.04058838,31.550099849700928
1618821369.73344,7.318787,31.56572985649109
1618821369.74906,13.17413,31.581349849700928
1618821369.76469,17.48657,31.59697985649109
1618821369.78032,20.47754,31.61260986328125
1618821369.79594,22.38135,31.62822985649109
1618821369.81157,23.38873,31.64385986328125
1618821369.82719,23.61536,31.65947985649109
1618821369.84282,23.19666,31.67510986328125
1618821369.85844,22.29419,31.69072985649109
1618821369.87407,21.23724,31.70635986328125
1618821369.8897,20.33203,31.72198987007141
1618821369.90532,19.72778,31.73760986328125
1618821369.92095,19.41669,31.75323987007141
1618821369.93657,19.14984,31.76885986328125
1618821369.9522,18.63568,31.78448987007141
1618821369.96782,17.63721,31.80010986328125
1618821369.98345,16.125,31.81573987007141
1618821369.99908,14.25183,31.831369876861572
1618821370.0147,12.30432,31.84698987007141
1618821370.03033,10.56049,31.862619876861572
1618821370.04595,9.141907,31.87823987007141
1618821370.06158,8.021973,31.893869876861572
1618821370.0772,7.048584,31.90948987007141
1618821370.09283,6.020203,31.925119876861572
1618821370.10846,4.827271,31.940749883651733
1618821370.12408,3.424622,31.956369876861572
1618821370.13971,1.870361,31.971999883651733
1618821370.15533,0.2267456,31.987619876861572
1618821370.17096,-1.51593,32.00324988365173
1618821370.18658,-3.472473,32.01886987686157
1618821370.20221,-5.785034,32.03449988365173
1618821370.21784,-8.60437,32.050129890441895
1618821370.23346,-12.01062,32.06574988365173
1618821370.24909,-15.9339,32.081379890441895
1618821370.26471,-20.22162,32.09699988365173
1618821370.28034,-24.51068,32.112629890441895
1618821370.29596,-28.21149,32.12824988365173
1618821370.31159,-30.58807,32.143879890441895
1618821370.32722,-30.93604,32.159509897232056
1618821370.34284,-28.71753,32.175129890441895
1618821370.35847,-23.97089,32.190759897232056
1618821370.37409,-17.31958,32.206379890441895
1618821370.38972,-9.793152,32.222009897232056
1618821370.40534,-2.651672,32.237629890441895
1618821370.42097,3.178162,32.253259897232056
1618821370.4366,7.253906,32.26888990402222
1618821370.45222,9.684509,32.284509897232056
1618821370.46785,10.89655,32.30013990402222
1618821370.48347,11.42358,32.315759897232056
1618821370.4991,11.67102,32.33138990402222
1618821370.51472,11.86932,32.347009897232056
1618821370.53035,12.22784,32.36263990402222
1618821370.54598,12.84949,32.37826991081238
1618821370.5616,13.83649,32.39388990402222
1618821370.57723,15.13141,32.40951991081238
1618821370.59285,16.50275,32.42513990402222
1618821370.60848,17.60004,32.44076991081238
1618821370.62411,18.05383,32.45639991760254
1618821370.63973,17.67462,32.47201991081238
1618821370.65536,16.45825,32.48764991760254
1618821370.67098,14.70746,32.50326991081238
1618821370.68661,12.81476,32.51889991760254
1618821370.70223,11.16772,32.53451991081238
1618821370.71786,10.00574,32.55014991760254
1618821370.73349,9.35614,32.5657799243927
1618821370.74911,9.146362,32.58139991760254
1618821370.76474,9.131653,32.5970299243927
1618821370.78036,9.042053,32.61264991760254
1618821370.79599,8.554871,32.6282799243927
1618821370.81161,7.392273,32.64389991760254
1618821370.82724,5.323792,32.6595299243927
1618821370.84287,2.320831,32.67515993118286
1618821370.85849,-1.418701,32.6907799243927
1618821370.87412,-5.57608,32.70640993118286
1618821370.88974,-9.734711,32.7220299243927
1618821370.90537,-13.59164,32.73765993118286
1618821370.92099,-17.04492,32.7532799243927
1618821370.93662,-20.11594,32.76890993118286
1618821370.95225,-22.94266,32.78453993797302
1618821370.96787,-25.63144,32.80015993118286
1618821370.9835,-28.22336,32.81578993797302
1618821370.99912,-30.55151,32.83140993118286
1618821371.01475,-32.37488,32.84703993797302
1618821371.03037,-33.27567,32.86265993118286
1618821371.046,-32.82132,32.87828993797302
1618821371.06163,-30.59601,32.893919944763184
1618821371.07725,-26.41602,32.90953993797302
1618821371.09288,-20.49921,32.925169944763184
1618821371.1085,-13.44714,32.94078993797302
1618821371.12413,-6.182892,32.956419944763184
1618821371.13975,0.4411926,32.97203993797302
1618821371.15538,5.773621,32.987669944763184
1618821371.17101,9.634705,33.003299951553345
1618821371.18663,12.16479,33.018919944763184
1618821371.20226,13.74704,33.034549951553345
1618821371.21788,14.74301,33.050169944763184
1618821371.23351,15.40106,33.065799951553345
1618821371.24913,15.89056,33.081419944763184
1618821371.26476,16.28143,33.097049951553345
1618821371.28039,16.65298,33.112679958343506
1618821371.29601,16.99734,33.128299951553345
1618821371.31164,17.30035,33.143929958343506
1618821371.32726,17.36972,33.159549951553345
1618821371.34289,16.98019,33.175179958343506
1618821371.35851,15.99182,33.190799951553345
1618821371.37414,14.39899,33.206429958343506
1618821371.38977,12.44836,33.22205996513367
1618821371.40539,10.54608,33.237679958343506
1618821371.42102,9.082153,33.25330996513367
1618821371.43664,8.273407,33.268929958343506
1618821371.45227,8.055695,33.28455996513367
1618821371.46789,8.15274,33.300179958343506
1618821371.48352,8.12561,33.31580996513367
1618821371.49915,7.619141,33.33143997192383
1618821371.51477,6.370178,33.34705996513367
1618821371.5304,4.366852,33.36268997192383
1618821371.54602,1.713684,33.37830996513367
1618821371.56165,-1.32666,33.39393997192383
1618821371.57727,-4.409454,33.40955996513367
1618821371.5929,-7.220337,33.42518997192383
1618821371.60853,-9.520813,33.44081997871399
1618821371.62415,-11.24823,33.45643997192383
1618821371.63978,-12.51556,33.47206997871399
1618821371.6554,-13.61469,33.48768997192383
1618821371.67103,-14.86115,33.50331997871399
1618821371.68665,-16.56384,33.51893997192383
1618821371.70228,-18.86603,33.53456997871399
1618821371.71791,-21.69644,33.55019998550415
1618821371.73353,-24.72351,33.56581997871399
1618821371.74916,-27.33936,33.58144998550415
1618821371.76478,-28.77368,33.59706997871399
1618821371.78041,-28.34454,33.61269998550415
1618821371.79603,-25.76834,33.62831997871399
1618821371.81166,-21.21219,33.64394998550415
1618821371.82729,-15.37616,33.65957999229431
1618821371.84291,-9.203644,33.67519998550415
1618821371.85854,-3.540649,33.69082999229431
1618821371.87416,1.051697,33.70644998550415
1618821371.88979,4.459595,33.72207999229431
1618821371.90541,6.832031,33.73769998550415
1618821371.92104,8.389648,33.75332999229431
1618821371.93667,9.262451,33.76895999908447
1618821371.95229,9.533997,33.78457999229431
1618821371.96792,9.336395,33.80020999908447
1618821371.98354,8.943481,33.81582999229431
1618821371.99917,8.774506,33.83145999908447
1618821372.01479,9.224457,33.84707999229431
1618821372.03042,10.46045,33.86270999908447
1618821372.04605,12.25131,33.878340005874634
1618821372.06167,14.02219,33.89395999908447
1618821372.0773,15.10995,33.909590005874634
1618821372.09292,15.04532,33.92520999908447
1618821372.10855,13.77832,33.940840005874634
1618821372.12417,11.68802,33.95645999908447
1618821372.1398,9.413574,33.972090005874634
1618821372.15543,7.587494,33.987720012664795
1618821372.17105,6.580505,34.003340005874634
1618821372.18668,6.388672,34.018970012664795
1618821372.2023,6.658142,34.034590005874634
1618821372.21793,6.878784,34.050220012664795
1618821372.23355,6.674988,34.065840005874634
1618821372.24918,5.866852,34.081470012664795
1618821372.26481,4.527802,34.097100019454956
1618821372.28043,2.886719,34.112720012664795
1618821372.29606,1.142334,34.128350019454956
1618821372.31168,-0.6363525,34.143970012664795
1618821372.32731,-2.50766,34.159600019454956
1618821372.34293,-4.593475,34.175220012664795
1618821372.35856,-6.952942,34.190850019454956
1618821372.37419,-9.558563,34.20648002624512
1618821372.38981,-12.27591,34.222100019454956
1618821372.40544,-14.96442,34.23773002624512
1618821372.42106,-17.51724,34.253350019454956
1618821372.43669,-19.83975,34.26898002624512
1618821372.45231,-21.77521,34.284600019454956
1618821372.46794,-23.00381,34.30023002624512
1618821372.48357,-23.08548,34.31586003303528
1618821372.49919,-21.54898,34.33148002624512
1618821372.51482,-18.20584,34.34711003303528
1618821372.53044,-13.25674,34.36273002624512
1618821372.54607,-7.270538,34.37836003303528
1618821372.56169,-1.079865,34.39398002624512
1618821372.57732,4.465637,34.40961003303528
1618821372.59295,8.768341,34.42524003982544
1618821372.60857,11.60532,34.44086003303528
1618821372.6242,13.11612,34.45649003982544
1618821372.63982,13.65302,34.47211003303528
1618821372.65545,13.62738,34.48774003982544
1618821372.67107,13.36578,34.50336003303528
1618821372.6867,13.1604,34.51899003982544
1618821372.70233,13.22272,34.5346200466156
1618821372.71795,13.599,34.55024003982544
1618821372.73358,14.24017,34.5658700466156
1618821372.7492,14.95297,34.58149003982544
1618821372.76483,15.45148,34.5971200466156
1618821372.78045,15.45526,34.61274003982544
1618821372.79608,14.84705,34.6283700466156
1618821372.81171,13.67142,34.64399981498718
1618821372.82733,12.20825,34.6596200466156
1618821372.84296,10.78052,34.67524981498718
1618821372.85858,9.677124,34.6908700466156
1618821372.87421,9.004303,34.70649981498718
1618821372.88984,8.69339,34.722129821777344
1618821372.90546,8.52655,34.73774981498718
1618821372.92109,8.227875,34.753379821777344
1618821372.93671,7.559296,34.76899981498718
1618821372.95234,6.32193,34.784629821777344
1618821372.96796,4.485901,34.80024981498718
1618821372.98359,2.052277,34.815879821777344
1618821372.99922,-0.8435059,34.831509828567505
1618821373.01484,-4.015381,34.847129821777344
1618821373.03047,-7.283722,34.862759828567505
1618821373.04609,-10.38696,34.878379821777344
1618821373.06172,-13.10101,34.894009828567505
1618821373.07734,-15.20758,34.909629821777344
1618821373.09297,-16.62946,34.925259828567505
1618821373.1086,-17.4382,34.940889835357666
1618821373.12422,-17.92993,34.956509828567505
1618821373.13985,-18.57315,34.972139835357666
1618821373.15547,-19.82364,34.987759828567505
1618821373.1711,-21.97635,35.003389835357666
1618821373.18672,-24.89493,35.019009828567505
1618821373.20235,-28.04102,35.034639835357666
1618821373.21798,-30.58841,35.05026984214783
1618821373.2336,-31.74066,35.065889835357666
1618821373.24923,-30.95935,35.08151984214783
1618821373.26485,-28.14206,35.097139835357666
1618821373.28048,-23.58731,35.11276984214783
1618821373.2961,-17.84369,35.128389835357666
1618821373.31173,-11.55057,35.14401984214783
1618821373.32736,-5.300476,35.15964984893799
1618821373.34298,0.348938,35.17526984214783
1618821373.35861,4.947998,35.19089984893799
1618821373.37423,8.144867,35.20651984214783
1618821373.38986,9.807465,35.22214984893799
1618821373.40548,10.07428,35.23776984214783
1618821373.42111,9.398102,35.25339984893799
1618821373.43674,8.403595,35.26902985572815
1618821373.45236,7.710297,35.28464984893799
1618821373.46799,7.713745,35.30027985572815
1618821373.48361,8.432556,35.31589984893799
1618821373.49924,9.58429,35.33152985572815
1618821373.51486,10.75598,35.34714984893799
1618821373.53049,11.51563,35.36277985572815
1618821373.54612,11.6554,35.37840986251831
1618821373.56174,11.17227,35.39402985572815
1618821373.57737,10.22375,35.40965986251831
1618821373.59299,9.054962,35.42527985572815
1618821373.60862,7.951981,35.44090986251831
1618821373.62424,7.203201,35.45652985572815
1618821373.63987,7.006882,35.47215986251831
1618821373.6555,7.433456,35.48778986930847
1618821373.67112,8.301086,35.50340986251831
1618821373.68675,9.259064,35.51903986930847
1618821373.70237,9.842407,35.53465986251831
1618821373.718,9.647186,35.55028986930847
1618821373.73362,8.485596,35.56590986251831
1618821373.74925,6.48233,35.58153986930847
1618821373.76488,3.965851,35.59716987609863
1618821373.7805,1.31633,35.61278986930847
1618821373.79613,-1.184372,35.62841987609863
1618821373.81175,-3.458191,35.64403986930847
1618821373.82738,-5.522247,35.65966987609863
1618821373.843,-7.445724,35.67528986930847
1618821373.85863,-9.280777,35.69091987609863
1618821373.87426,-11.0845,35.706549882888794
1618821373.88988,-12.99477,35.72216987609863
1618821373.90551,-15.22665,35.737799882888794
1618821373.92113,-18.05083,35.75341987609863
1618821373.93676,-21.65417,35.769049882888794
1618821373.95238,-25.90468,35.78466987609863
1618821373.96801,-30.25244,35.800299882888794
1618821373.98364,-33.71642,35.815929889678955
1618821373.99926,-35.23331,35.831549882888794
1618821374.01489,-33.98457,35.847179889678955
1618821374.03051,-29.82669,35.862799882888794
1618821374.04614,-23.32799,35.878429889678955
1618821374.06176,-15.62338,35.894049882888794
1618821374.07739,-8.008636,35.909679889678955
1618821374.09302,-1.497849,35.925309896469116
1618821374.10864,3.489182,35.940929889678955
1618821374.12427,7.129532,35.956559896469116
1618821374.13989,9.908676,35.972179889678955
1618821374.15552,12.28555,35.987809896469116
1618821374.17114,14.43193,36.003429889678955
1618821374.18677,16.26421,36.019059896469116
1618821374.2024,17.62215,36.03468990325928
1618821374.21802,18.37982,36.050309896469116
1618821374.23365,18.55286,36.06593990325928
1618821374.24927,18.26709,36.081559896469116
1618821374.2649,17.69914,36.09718990325928
1618821374.28052,17.02292,36.112809896469116
1618821374.29615,16.43449,36.12843990325928
1618821374.31178,16.13768,36.14406991004944
1618821374.3274,16.38013,36.15968990325928
1618821374.34303,17.39891,36.17531991004944
1618821374.35865,19.19623,36.19093990325928
1618821374.37428,21.5493,36.20656991004944
1618821374.3899,24.1209,36.22218990325928
1618821374.40553,26.56125,36.23781991004944
1618821374.42116,28.72301,36.2534499168396
1618821374.43678,30.62779,36.26906991004944
1618821374.45241,32.34941,36.2846999168396
1618821374.46803,33.83826,36.30031991004944
1618821374.48366,34.95065,36.3159499168396
1618821374.49928,35.32538,36.33156991004944
1618821374.51491,34.59911,36.3471999168396
1618821374.53054,32.71866,36.36282992362976
1618821374.54616,30.0975,36.3784499168396
1618821374.56179,27.64977,36.39407992362976
1618821374.57741,26.34125,36.4096999168396
1618821374.59304,26.77631,36.42532992362976
1618821374.60866,28.92711,36.4409499168396
1618821374.62429,32.27299,36.45657992362976
1618821374.63992,35.83789,36.47220993041992
1618821374.65554,38.47133,36.48782992362976
1618821374.67117,39.37076,36.50345993041992
1618821374.68679,38.50259,36.51907992362976
1618821374.70242,36.78877,36.53470993041992
1618821374.71804,35.69919,36.55032992362976
1618821374.73367,36.69563,36.56595993041992
1618821374.7493,40.76751,36.58158993721008
1618821374.76492,48.24744,36.59720993041992
1618821374.78055,58.40685,36.61283993721008
1618821374.79617,69.57611,36.62845993041992
1618821374.8118,79.74332,36.64408993721008
1618821374.82742,87.45795,36.65970993041992
1618821374.84305,92.39666,36.67533993721008
1618821374.85868,95.06641,36.690969944000244
1618821374.8743,96.17168,36.70658993721008
1618821374.88993,95.99937,36.722219944000244
1618821374.90555,94.14926,36.73783993721008
1618821374.92118,88.88028,36.753469944000244
1618821374.9368,77.20487,36.76908993721008
1618821374.95243,55.69152,36.784719944000244
1618821374.96806,21.91126,36.800349950790405
1618821374.98368,-24.50368,36.815969944000244
1618821374.99931,-81.70688,36.831599950790405
1618821375.01493,-146.0534,36.847219944000244
1618821375.03056,-212.8082,36.862849950790405
1618821375.04619,-273.2596,36.878479957580566
1618821375.06181,-316.0472,36.894099950790405
1618821375.07744,-331.0792,36.909729957580566
1618821375.09306,-314.4201,36.925349950790405
1618821375.10869,-270.0266,36.940979957580566
1618821375.12431,-207.0192,36.956599950790405
1618821375.13994,-135.4201,36.972229957580566
1618821375.15557,-63.50797,36.98785996437073
1618821375.17119,2.681757,37.003479957580566
1618821375.18682,59.1162,37.01910996437073
1618821375.20244,103.5632,37.034729957580566
1618821375.21807,136.2299,37.05035996437073
1618821375.23369,157.8575,37.065979957580566
1618821375.24932,170.3338,37.08160996437073
1618821375.26495,176.4588,37.09723997116089
1618821375.28057,178.9724,37.11285996437073
1618821375.2962,179.6662,37.12848997116089
1618821375.31182,178.6601,37.14410996437073
1618821375.32745,174.532,37.15973997116089
1618821375.34307,164.3704,37.17535996437073
1618821375.3587,143.3285,37.19098997116089
1618821375.37433,108.6733,37.20661997795105
1618821375.38995,61.39733,37.22223997116089
1618821375.40558,7.075844,37.23786997795105
1618821375.4212,-45.40564,37.25348997116089
1618821375.43683,-86.6162,37.26911997795105
1618821375.45245,-110.0829,37.28473997116089
1618821375.46808,-114.4799,37.30036997795105
1618821375.48371,-104.0402,37.31599998474121
1618821375.49933,-86.66052,37.33161997795105
1618821375.51496,-70.47789,37.34724998474121
1618821375.53058,-60.88243,37.36286997795105
1618821375.54621,-59.17902,37.37849998474121
1618821375.56183,-63.67615,37.39411997795105
1618821375.57746,-71.54861,37.40974998474121
1618821375.59309,-80.64407,37.42537999153137
1618821375.60871,-89.84543,37.44099998474121
1618821375.62434,-98.61525,37.45662999153137
1618821375.63996,-106.3938,37.47224998474121
1618821375.65559,-112.097,37.48787999153137
1618821375.67121,-114.478,37.50349998474121
1618821375.68684,-112.5844,37.51912999153137
1618821375.70247,-106.4569,37.53475999832153
1618821375.71809,-97.07234,37.55037999153137
1618821375.73372,-86.33649,37.56600999832153
1618821375.74934,-76.27678,37.58162999153137
1618821375.76497,-68.45078,37.59725999832153
1618821375.78059,-63.50768,37.61287999153137
1618821375.79622,-60.9003,37.62850999832153
1618821375.81185,-59.27534,37.644140005111694
1618821375.82747,-56.99886,37.65975999832153
1618821375.8431,-52.9874,37.675390005111694
1618821375.85872,-47.00615,37.69100999832153
1618821375.87435,-39.7552,37.706640005111694
1618821375.88997,-32.4073,37.72225999832153
1618821375.9056,-26.00565,37.737890005111694
1618821375.92123,-21.05518,37.753520011901855
1618821375.93685,-17.36655,37.769140005111694
1618821375.95248,-14.4716,37.784770011901855
1618821375.9681,-12.00969,37.800390005111694
1618821375.98373,-10.03601,37.816020011901855
1618821375.99935,-8.910385,37.831640005111694
1618821376.01498,-9.012589,37.847270011901855
1618821376.03061,-10.51257,37.86290001869202
1618821376.04623,-13.1456,37.878520011901855
1618821376.06186,-16.31889,37.89415001869202
1618821376.07748,-19.38339,37.909770011901855
1618821376.09311,-21.88101,37.92540001869202
1618821376.10873,-23.70941,37.941020011901855
1618821376.12436,-25.13805,37.95665001869202
1618821376.13999,-26.61322,37.97228002548218
1618821376.15561,-28.43477,37.98790001869202
1618821376.17124,-30.63895,38.00353002548218
1618821376.18686,-32.74353,38.01915001869202
1618821376.20249,-33.92738,38.03478002548218
1618821376.21811,-33.35284,38.05040001869202
1618821376.23374,-30.47822,38.06603002548218
1618821376.24937,-25.33936,38.08166003227234
1618821376.26499,-18.5707,38.09728002548218
1618821376.28062,-11.18939,38.11291003227234
1618821376.29624,-4.15741,38.12853002548218
1618821376.31187,1.766983,38.14416003227234
1618821376.32749,6.375214,38.15978002548218
1618821376.34312,9.813911,38.17541003227234
1618821376.35875,12.40041,38.1910400390625
1618821376.37437,14.4396,38.20666003227234
1618821376.39,16.1123,38.2222900390625
1618821376.40562,17.47169,38.23791003227234
1618821376.42125,18.54993,38.2535400390625
1618821376.43687,19.48317,38.26916003227234
1618821376.4525,20.36841,38.2847900390625
1618821376.46813,21.29735,38.30042004585266
1618821376.48375,22.24404,38.3160400390625
1618821376.49938,22.98623,38.33167004585266
1618821376.515,23.32755,38.3472900390625
1618821376.53063,23.10501,38.36292004585266
1618821376.54625,22.30031,38.3785400390625
1618821376.56188,21.06736,38.39417004585266
1618821376.57751,19.62128,38.40980005264282
1618821376.59313,18.12274,38.42542004585266
1618821376.60876,16.64135,38.44105005264282
1618821376.62438,15.18451,38.45667004585266
1618821376.64001,13.60575,38.47230005264282
1618821376.65563,11.77423,38.48792004585266
1618821376.67126,9.51705,38.50355005264282
1618821376.68689,6.715016,38.519179821014404
1618821376.70251,3.288217,38.53480005264282
1618821376.71814,-0.7772675,38.550429821014404
1618821376.73376,-5.414743,38.56605005264282
1618821376.74939,-10.49592,38.581679821014404
1618821376.76501,-15.80891,38.59730005264282
1618821376.78064,-21.16935,38.612929821014404
1618821376.79627,-26.31728,38.628559827804565
1618821376.81189,-30.91346,38.644179821014404
1618821376.82752,-34.45447,38.659809827804565
1618821376.84314,-36.30728,38.675429821014404
1618821376.85877,-35.86393,38.691059827804565
1618821376.87439,-32.78976,38.706679821014404
1618821376.89002,-27.20496,38.722309827804565
1618821376.90565,-19.71892,38.73793983459473
1618821376.92127,-11.40928,38.753559827804565
1618821376.9369,-3.424866,38.76918983459473
1618821376.95252,3.267601,38.784809827804565
1618821376.96815,8.195374,38.80043983459473
1618821376.98377,11.41753,38.816059827804565
1618821376.9994,13.33398,38.83168983459473
1618821377.01503,14.42655,38.84731984138489
1618821377.03065,14.98158,38.86293983459473
1618821377.04628,15.14478,38.87856984138489
1618821377.0619,14.84792,38.89418983459473
1618821377.07753,14.07059,38.90981984138489
1618821377.09315,12.88898,38.92543983459473
1618821377.10878,11.49995,38.94106984138489
1618821377.12441,10.2025,38.95669984817505
1618821377.14003,9.269592,38.97231984138489
1618821377.15566,8.863724,38.98794984817505
1618821377.17128,8.914856,39.00356984138489
1618821377.18691,9.264771,39.01919984817505
1618821377.20253,9.562363,39.03481984138489
1618821377.21816,9.496735,39.05044984817505
1618821377.23379,8.878311,39.06607985496521
1618821377.24941,7.779129,39.08169984817505
1618821377.26504,6.490509,39.09732985496521
1618821377.28066,5.509872,39.11294984817505
1618821377.29629,5.255539,39.12857985496521
1618821377.31191,5.806335,39.14419984817505
1618821377.32754,6.823212,39.15982985496521
1618821377.34317,7.508011,39.17545986175537
1618821377.35879,6.886337,39.19107985496521
1618821377.37442,4.142624,39.20670986175537
1618821377.39004,-1.020279,39.22232985496521
1618821377.40567,-8.21846,39.23795986175537
1618821377.42129,-16.30408,39.25357985496521
1618821377.43692,-23.70976,39.26920986175537
1618821377.45255,-28.90273,39.28483986854553
1618821377.46817,-30.82675,39.30045986175537
1618821377.4838,-29.20525,39.31608986854553
1618821377.49942,-24.54425,39.33170986175537
1618821377.51505,-17.88132,39.34733986854553
1618821377.53067,-10.3922,39.36295986175537
1618821377.5463,-3.023651,39.37858986854553
1618821377.56193,3.702881,39.39421987533569
1618821377.57755,9.604828,39.40983986854553
1618821377.59318,14.70941,39.42546987533569
1618821377.6088,19.05148,39.44108986854553
1618821377.62443,22.63596,39.45671987533569
1618821377.64005,25.44846,39.47233986854553
1618821377.65568,27.43134,39.48796987533569
1618821377.67131,28.5174,39.503599882125854
1618821377.68693,28.67889,39.51921987533569
1618821377.70256,27.92502,39.534849882125854
1618821377.71818,26.34576,39.55046987533569
1618821377.73381,24.14703,39.566099882125854
1618821377.74944,21.68735,39.581729888916016
1618821377.76506,19.34293,39.597349882125854
1618821377.78069,17.38333,39.612979888916016
1618821377.79631,15.82703,39.628599882125854
1618821377.81194,14.45407,39.644229888916016
1618821377.82756,12.90512,39.659849882125854
1618821377.84319,10.91702,39.675479888916016
1618821377.85882,8.395996,39.69110989570618
1618821377.87444,5.433014,39.706729888916016
1618821377.89007,2.274506,39.72235989570618
1618821377.90569,-0.8979797,39.737979888916016
1618821377.92132,-4.018799,39.75360989570618
1618821377.93694,-7.162842,39.769229888916016
1618821377.95257,-10.42215,39.78485989570618
1618821377.9682,-13.9541,39.80048990249634
1618821377.98382,-17.8399,39.81610989570618
1618821377.99945,-22.07452,39.83173990249634
1618821378.01507,-26.50308,39.84735989570618
1618821378.0307,-30.72955,39.86298990249634
1618821378.04632,-34.14429,39.87860989570618
1618821378.06195,-35.974,39.89423990249634
1618821378.07758,-35.52069,39.9098699092865
1618821378.0932,-32.34372,39.92548990249634
1618821378.10883,-26.5528,39.9411199092865
1618821378.12445,-18.81067,39.95673990249634
1618821378.14008,-10.14474,39.9723699092865
1618821378.1557,-1.698517,39.98798990249634
1618821378.17133,5.674927,40.0036199092865
1618821378.18696,11.5509,40.01924991607666
1618821378.20258,16.03925,40.0348699092865
1618821378.21821,19.52621,40.05049991607666
1618821378.23383,22.51874,40.0661199092865
1618821378.24946,25.22659,40.08174991607666
1618821378.26508,27.5816,40.0973699092865
1618821378.28071,29.36328,40.11299991607666
1618821378.29634,30.36642,40.12862992286682
1618821378.31196,30.58411,40.14424991607666
1618821378.32759,30.18356,40.15987992286682
1618821378.34321,29.46164,40.17549991607666
1618821378.35884,28.62155,40.19112992286682
1618821378.37446,27.78687,40.20674991607666
1618821378.39009,26.88452,40.22237992286682
1618821378.40572,25.76859,40.23800992965698
1618821378.42134,24.27811,40.25362992286682
1618821378.43697,22.29929,40.26925992965698
1618821378.45259,19.83511,40.28487992286682
1618821378.46822,16.98367,40.30050992965698
1618821378.48384,14.00903,40.31612992286682
1618821378.49947,11.19778,40.33175992965698
1618821378.5151,8.747864,40.347389936447144
1618821378.53072,6.621399,40.36300992965698
1618821378.54635,4.486206,40.378639936447144
1618821378.56197,1.858154,40.39425992965698
1618821378.5776,-1.718994,40.409889936447144
1618821378.59322,-6.420349,40.42550992965698
1618821378.60885,-12.14441,40.441139936447144
1618821378.62448,-18.49469,40.456769943237305
1618821378.6401,-25.02502,40.472389936447144
1618821378.65573,-31.16406,40.488019943237305
1618821378.67135,-36.20593,40.503639936447144
1618821378.68698,-39.2937,40.519269943237305
1618821378.7026,-39.49286,40.534889936447144
1618821378.71823,-36.22113,40.550519943237305
1618821378.73386,-29.46948,40.566149950027466
1618821378.74948,-20.04816,40.581769943237305
1618821378.76511,-9.397888,40.597399950027466
1618821378.78073,0.7799072,40.613019943237305
1618821378.79636,9.192871,40.628649950027466
1618821378.81198,15.19928,40.644269943237305
1618821378.82761,18.86713,40.659899950027466
1618821378.84324,20.72272,40.67552995681763
1618821378.85886,21.34143,40.691149950027466
1618821378.87449,21.16907,40.70677995681763
1618821378.89011,20.42383,40.722399950027466
1618821378.90574,19.24445,40.73802995681763
1618821378.92136,17.75293,40.753649950027466
1618821378.93699,16.19476,40.76927995681763
1618821378.95262,14.80127,40.78490996360779
1618821378.96824,13.7702,40.80052995681763
1618821378.98387,13.18365,40.81615996360779
1618821378.99949,13.02142,40.83177995681763
1618821379.01512,13.2063,40.84740996360779
1618821379.03074,13.63013,40.86302995681763
1618821379.04637,14.22504,40.87865996360779
1618821379.062,14.83771,40.89428997039795
1618821379.07762,15.30096,40.90990996360779
1618821379.09325,15.33124,40.92553997039795
1618821379.10887,14.65253,40.94115996360779
1618821379.1245,13.09613,40.95678997039795
1618821379.14012,10.58624,40.97240996360779
1618821379.15575,7.257568,40.98803997039795
1618821379.17138,3.38562,41.00366997718811
1618821379.187,-0.7341919,41.01928997039795
1618821379.20263,-4.825378,41.03491997718811
1618821379.21825,-8.76709,41.05053997039795
1618821379.23388,-12.5907,41.06616997718811
1618821379.2495,-16.37518,41.08178997039795
1618821379.26513,-20.09204,41.09741997718811
1618821379.28076,-23.53979,41.11304998397827
1618821379.29638,-26.23242,41.12866997718811
1618821379.31201,-27.44745,41.14429998397827
1618821379.32763,-26.53369,41.15991997718811
1618821379.34326,-23.07996,41.17554998397827
1618821379.35888,-17.19586,41.19116997718811
1618821379.37451,-9.575134,41.20679998397827
1618821379.39014,-1.225464,41.22242999076843
1618821379.40576,6.807007,41.23804998397827
1618821379.42139,13.77362,41.25367999076843
1618821379.43701,19.36603,41.26929998397827
1618821379.45264,23.69836,41.28492999076843
1618821379.46826,26.99707,41.30054998397827
1618821379.48389,29.50092,41.31617999076843
1618821379.49952,31.23724,41.331809997558594
1618821379.51514,32.12305,41.34742999076843
1618821379.53077,32.11676,41.363059997558594
1618821379.54639,31.3194,41.37867999076843
1618821379.56202,29.9693,41.394309997558594
1618821379.57764,28.39417,41.40992999076843
1618821379.59327,26.84821,41.425559997558594
1618821379.6089,25.48248,41.441190004348755
1618821379.62452,24.34802,41.456809997558594
1618821379.64015,23.43774,41.472440004348755
1618821379.65577,22.63965,41.488059997558594
1618821379.6714,21.76611,41.503690004348755
1618821379.68702,20.58948,41.519309997558594
1618821379.70265,18.85883,41.534940004348755
1618821379.71828,16.4823,41.550570011138916
1618821379.7339,13.55981,41.566190004348755
1618821379.74953,10.31396,41.581820011138916
1618821379.76515,6.983032,41.597440004348755
1618821379.78078,3.653015,41.613070011138916
1618821379.7964,0.1610718,41.628690004348755
1618821379.81203,-3.767395,41.644320011138916
1618821379.82766,-8.379089,41.65995001792908
1618821379.84328,-13.73627,41.675570011138916
1618821379.85891,-19.57062,41.69120001792908
1618821379.87453,-25.45648,41.706820011138916
1618821379.89016,-30.82849,41.72245001792908
1618821379.90579,-35.12823,41.73808002471924
1618821379.92141,-37.81354,41.75370001792908
1618821379.93704,-38.38562,41.76933002471924
1618821379.95266,-36.45972,41.78495001792908
1618821379.96829,-31.91528,41.80058002471924
1618821379.98391,-24.96741,41.81620001792908
1618821379.99954,-16.29028,41.83183002471924
1618821380.01517,-6.875488,41.8474600315094
1618821380.03079,2.266052,41.86308002471924
1618821380.04642,10.42938,41.8787100315094
1618821380.06204,17.44891,41.89433002471924
1618821380.07767,23.66016,41.9099600315094
1618821380.09329,29.62415,41.92558002471924
1618821380.10892,35.7923,41.9412100315094
1618821380.12455,42.25989,41.95684003829956
1618821380.14017,48.66931,41.9724600315094
1618821380.1558,54.36298,41.98809003829956
1618821380.17142,58.64685,42.0037100315094
1618821380.18705,61.05585,42.01934003829956
1618821380.20267,61.48059,42.0349600315094
1618821380.2183,60.16675,42.05059003829956
1618821380.23393,57.58179,42.06622004508972
1618821380.24955,54.32831,42.08184003829956
1618821380.26518,51.09656,42.09747004508972
1618821380.2808,48.505,42.11309003829956
1618821380.29643,46.96301,42.12872004508972
1618821380.31205,46.61902,42.14434003829956
1618821380.32768,47.24646,42.15997004508972
1618821380.34331,48.44177,42.17560005187988
1618821380.35893,49.70709,42.19122004508972
1618821380.37456,50.67487,42.20685005187988
1618821380.39018,51.24323,42.22247004508972
1618821380.40581,51.94989,42.23810005187988
1618821380.42143,53.4032,42.25372004508972
1618821380.43706,56.04614,42.26935005187988
1618821380.45269,59.85712,42.284979820251465
1618821380.46831,64.22888,42.30060005187988
1618821380.48394,68.22565,42.316229820251465
1618821380.49956,70.96967,42.33185005187988
1618821380.51519,72.0675,42.347479820251465
1618821380.53081,71.89276,42.36310005187988
1618821380.54644,72.31366,42.378729820251465
1618821380.56207,75.4917,42.394359827041626
1618821380.57769,83.16925,42.409979820251465
1618821380.59332,95.94818,42.425609827041626
1618821380.60894,112.9186,42.441229820251465
1618821380.62457,132.06,42.456859827041626
1618821380.64019,151.0708,42.472479820251465
1618821380.65582,168.0812,42.488109827041626
1618821380.67145,182.1959,42.50373983383179
1618821380.68707,194.5176,42.519359827041626
1618821380.7027,206.2869,42.53498983383179
1618821380.71832,218.2588,42.550609827041626
1618821380.73395,230.1498,42.56623983383179
1618821380.74957,240.8956,42.581859827041626
1618821380.7652,249.3278,42.59748983383179
1618821380.78083,254.5788,42.61311984062195
1618821380.79645,255.7397,42.62873983383179
1618821380.81208,251.251,42.64436984062195
1618821380.8277,240.0352,42.65998983383179
1618821380.84333,220.4779,42.67561984062195
1618821380.85895,191.8243,42.69123983383179
1618821380.87458,154.9778,42.70686984062195
1618821380.89021,112.9169,42.72249984741211
1618821380.90583,70.03854,42.73811984062195
1618821380.92146,30.56876,42.75374984741211
1618821380.93708,-2.984619,42.76936984062195
1618821380.95271,-38.18582,42.78499984741211
1618821380.96833,-79.35168,42.80061984062195
1618821380.98396,-126.6956,42.81624984741211
1618821380.99959,-174.4687,42.83187985420227
1618821381.01521,-214.0116,42.84749984741211
1618821381.03084,-238.6705,42.86312985420227
1618821381.04646,-246.7645,42.87874984741211
1618821381.06209,-240.7415,42.89437985420227
1618821381.07771,-224.5686,42.90999984741211
1618821381.09334,-201.7783,42.92562985420227
1618821381.10897,-172.4001,42.94125986099243
1618821381.12459,-137.095,42.95687985420227
1618821381.14022,-97.90465,42.97250986099243
1618821381.15584,-59.36618,42.98812985420227
1618821381.17147,-27.29611,43.00375986099243
1618821381.18709,-6.960022,43.01937985420227
1618821381.20272,-1.514488,43.03500986099243
1618821381.21835,-11.20862,43.05063986778259
1618821381.23397,-33.18921,43.06625986099243
1618821381.2496,-60.88647,43.08188986778259
1618821381.26522,-87.84589,43.09750986099243
1618821381.28085,-107.0065,43.11313986778259
1618821381.29647,-114.9589,43.12875986099243
1618821381.3121,-114.4192,43.14438986778259
1618821381.32773,-113.8253,43.160019874572754
1618821381.34335,-123.598,43.17563986778259
1618821381.35898,-150.6414,43.191269874572754
1618821381.3746,-193.9223,43.20688986778259
1618821381.39023,-243.0009,43.222519874572754
1618821381.40585,-282.7764,43.23813986778259
1618821381.42148,-299.6731,43.253769874572754
1618821381.43711,-287.8872,43.269399881362915
1618821381.45273,-251.1845,43.285019874572754
1618821381.46836,-200.1587,43.300649881362915
1618821381.48398,-147.1146,43.316269874572754
1618821381.49961,-101.4012,43.331899881362915
1618821381.51523,-67.54043,43.347519874572754
1618821381.53086,-45.63284,43.363149881362915
1618821381.54649,-33.86491,43.378779888153076
1618821381.56211,-30.02906,43.394399881362915
1618821381.57774,-32.30038,43.410029888153076
1618821381.59336,-38.98925,43.425649881362915
1618821381.60899,-47.89275,43.441279888153076
1618821381.62461,-56.36501,43.456899881362915
1618821381.64024,-61.83183,43.472529888153076
1618821381.65587,-62.67509,43.48815989494324
1618821381.67149,-58.64307,43.503779888153076
1618821381.68712,-51.01071,43.51940989494324
1618821381.70274,-42.08809,43.535029888153076
1618821381.71837,-34.46912,43.55065989494324
1618821381.73399,-30.16418,43.566279888153076
1618821381.74962,-29.75018,43.58190989494324
1618821381.76525,-32.29127,43.5975399017334
1618821381.78087,-35.70599,43.61315989494324
1618821381.7965,-37.79277,43.6287899017334
1618821381.81212,-37.18632,43.64440989494324
1618821381.82775,-34.03569,43.6600399017334
1618821381.84337,-29.85754,43.67565989494324
1618821381.859,-26.86507,43.6912899017334
1618821381.87463,-26.83193,43.70691990852356
1618821381.89025,-30.08085,43.7225399017334
1618821381.90588,-35.21021,43.73816990852356
1618821381.9215,-39.50969,43.7537899017334
1618821381.93713,-40.14812,43.76941990852356
1618821381.95275,-35.32654,43.7850399017334
1618821381.96838,-25.03089,43.80066990852356
1618821381.98401,-11.01534,43.81629991531372
1618821381.99963,3.93383,43.83191990852356
1618821382.01526,17.0705,43.84754991531372
1618821382.03088,26.59862,43.86316990852356
1618821382.04651,32.04266,43.87879991531372
1618821382.06213,34.11285,43.89441990852356
1618821382.07776,34.0216,43.91004991531372
