timestamp,value,norm_ts
1619377432.89212,-28.88206,5.235849857330322
1619377432.90775,-31.20673,5.251479864120483
1619377432.92338,-34.02834,5.2671098709106445
1619377432.939,-37.43689,5.282729864120483
1619377432.95463,-41.37994,5.2983598709106445
1619377432.97025,-45.60983,5.313979864120483
1619377432.98588,-49.62373,5.3296098709106445
1619377433.0015,-52.71886,5.345229864120483
1619377433.01713,-54.05728,5.3608598709106445
1619377433.03276,-52.86659,5.376489877700806
1619377433.04838,-48.79301,5.3921098709106445
1619377433.06401,-42.06738,5.407739877700806
1619377433.07963,-33.45134,5.4233598709106445
1619377433.09526,-24.07095,5.438989877700806
1619377433.11088,-14.97792,5.4546098709106445
1619377433.12651,-6.868988,5.470239877700806
1619377433.14214,0.01042175,5.485869884490967
1619377433.15776,5.82164,5.501489877700806
1619377433.17339,10.97409,5.517119884490967
1619377433.18901,15.80008,5.532739877700806
1619377433.20464,20.44633,5.548369884490967
1619377433.22026,24.8661,5.563989877700806
1619377433.23589,28.80186,5.579619884490967
1619377433.25152,32.01122,5.595249891281128
1619377433.26714,34.30574,5.610869884490967
1619377433.28277,35.58937,5.626499891281128
1619377433.29839,35.9274,5.642119884490967
1619377433.31402,35.51166,5.657749891281128
1619377433.32964,34.57083,5.673369884490967
1619377433.34527,33.34517,5.688999891281128
1619377433.3609,31.98575,5.704629898071289
1619377433.37652,30.53412,5.720249891281128
1619377433.39215,28.97209,5.735879898071289
1619377433.40777,27.36221,5.751499891281128
1619377433.4234,25.78535,5.767129898071289
1619377433.43902,24.42592,5.782749891281128
1619377433.45465,23.42702,5.798379898071289
1619377433.47028,22.77237,5.81400990486145
1619377433.4859,22.23419,5.829629898071289
1619377433.50153,21.46906,5.84525990486145
1619377433.51715,20.14902,5.860879898071289
1619377433.53278,18.19943,5.87650990486145
1619377433.5484,15.85973,5.892129898071289
1619377433.56403,13.4494,5.90775990486145
1619377433.57966,11.28354,5.923389911651611
1619377433.59528,9.399582,5.93900990486145
1619377433.61091,7.582169,5.954639911651611
1619377433.62653,5.579361,5.97025990486145
1619377433.64216,3.241974,5.985889911651611
1619377433.65778,0.5828552,6.00150990486145
1619377433.67341,-2.234451,6.017139911651611
1619377433.68904,-5.052963,6.0327699184417725
1619377433.70466,-7.866882,6.048389911651611
1619377433.72029,-10.69063,6.0640199184417725
1619377433.73591,-13.58305,6.079639911651611
1619377433.75154,-16.49783,6.0952699184417725
1619377433.76716,-19.27263,6.110889911651611
1619377433.78279,-21.78242,6.1265199184417725
1619377433.79842,-24.04257,6.142149925231934
1619377433.81404,-26.26758,6.1577699184417725
1619377433.82967,-28.79689,6.173399925231934
1619377433.84529,-31.93985,6.1890199184417725
1619377433.86092,-35.76375,6.204649925231934
1619377433.87654,-40.03415,6.2202699184417725
1619377433.89217,-44.28526,6.235899925231934
1619377433.9078,-47.87204,6.251529932022095
1619377433.92342,-50.164,6.267149925231934
1619377433.93905,-50.64474,6.282779932022095
1619377433.95467,-48.97795,6.298399925231934
1619377433.9703,-45.06847,6.314029932022095
1619377433.98592,-39.12819,6.329649925231934
1619377434.00155,-31.59705,6.345279932022095
1619377434.01718,-23.14453,6.360909938812256
1619377434.0328,-14.52733,6.376529932022095
1619377434.04843,-6.355774,6.392159938812256
1619377434.06405,0.9692535,6.407779932022095
1619377434.07968,7.351257,6.423409938812256
1619377434.0953,12.93295,6.439029932022095
1619377434.11093,17.91492,6.454659938812256
1619377434.12656,22.36522,6.470289945602417
1619377434.14218,26.19011,6.485909938812256
1619377434.15781,29.15215,6.501539945602417
1619377434.17343,31.02975,6.517159938812256
1619377434.18906,31.76979,6.532789945602417
1619377434.20468,31.51513,6.548409938812256
1619377434.22031,30.63477,6.564039945602417
1619377434.23594,29.48949,6.579669952392578
1619377434.25156,28.40754,6.595289945602417
1619377434.26719,27.53493,6.610919952392578
1619377434.28281,26.92311,6.626539945602417
1619377434.29844,26.59969,6.642169952392578
1619377434.31406,26.62544,6.657789945602417
1619377434.32969,27.02068,6.673419952392578
1619377434.34532,27.65565,6.689049959182739
1619377434.36094,28.22096,6.704669952392578
1619377434.37657,28.29859,6.720299959182739
1619377434.39219,27.54692,6.735919952392578
1619377434.40782,25.87248,6.751549959182739
1619377434.42344,23.5146,6.767169952392578
1619377434.43907,20.89272,6.782799959182739
1619377434.4547,18.40396,6.7984299659729
1619377434.47032,16.20219,6.814049959182739
1619377434.48595,14.13947,6.8296799659729
1619377434.50157,11.93618,6.845299959182739
1619377434.5172,9.467873,6.8609299659729
1619377434.53282,6.86795,6.876549959182739
1619377434.54845,4.419769,6.8921799659729
1619377434.56408,2.395973,6.9078099727630615
1619377434.5797,0.7861557,6.9234299659729
1619377434.59533,-0.7296524,6.9390599727630615
1619377434.61095,-2.537781,6.9546799659729
1619377434.62658,-4.935806,6.9703099727630615
1619377434.64221,-7.899666,6.985939979553223
1619377434.65783,-11.16072,7.0015599727630615
1619377434.67346,-14.3207,7.017189979553223
1619377434.68908,-17.10938,7.0328099727630615
1619377434.70471,-19.49825,7.048439979553223
1619377434.72033,-21.68018,7.0640599727630615
1619377434.73596,-23.95422,7.079689979553223
1619377434.75159,-26.56269,7.095319986343384
1619377434.76721,-29.67268,7.110939979553223
1619377434.78284,-33.36537,7.126569986343384
1619377434.79846,-37.61749,7.142189979553223
1619377434.81409,-42.25604,7.157819986343384
1619377434.82971,-46.85769,7.173439979553223
1619377434.84534,-50.69817,7.189069986343384
1619377434.86097,-52.92353,7.204699993133545
1619377434.87659,-52.74432,7.220319986343384
1619377434.89222,-49.7542,7.235949993133545
1619377434.90784,-44.08052,7.251569986343384
1619377434.92347,-36.37395,7.267199993133545
1619377434.93909,-27.55692,7.282819986343384
1619377434.95472,-18.55383,7.298449993133545
1619377434.97035,-10.03719,7.314079999923706
1619377434.98597,-2.298813,7.329699993133545
1619377435.0016,4.601379,7.345329999923706
1619377435.01722,10.71935,7.360949993133545
1619377435.03285,16.06281,7.376579999923706
1619377435.04847,20.53786,7.392199993133545
1619377435.0641,23.90477,7.407829999923706
1619377435.07973,26.03044,7.423460006713867
1619377435.09535,26.90958,7.439079999923706
1619377435.11098,26.72518,7.454710006713867
1619377435.1266,25.8446,7.470329999923706
1619377435.14223,24.70088,7.485960006713867
1619377435.15785,23.63953,7.501579999923706
1619377435.17348,22.84206,7.517210006713867
1619377435.18911,22.32858,7.532840013504028
1619377435.20473,21.98946,7.548460006713867
1619377435.22036,21.72785,7.564090013504028
1619377435.23598,21.52934,7.579710006713867
1619377435.25161,21.41859,7.595340013504028
1619377435.26723,21.441,7.610960006713867
1619377435.28286,21.56483,7.626590013504028
1619377435.29849,21.70241,7.6422200202941895
1619377435.31411,21.6839,7.657840013504028
1619377435.32974,21.32816,7.6734700202941895
1619377435.34536,20.45465,7.689090013504028
1619377435.36099,18.99689,7.7047200202941895
1619377435.37661,16.90284,7.720340013504028
1619377435.39224,14.2863,7.7359700202941895
1619377435.40787,11.30026,7.751600027084351
1619377435.42349,8.164581,7.7672200202941895
1619377435.43912,5.09317,7.782850027084351
1619377435.45474,2.212326,7.7984700202941895
1619377435.47037,-0.4556503,7.814100027084351
1619377435.48599,-3.062313,7.8297200202941895
1619377435.50162,-5.80246,7.845350027084351
1619377435.51725,-8.909248,7.860980033874512
1619377435.53287,-12.48635,7.876600027084351
1619377435.5485,-16.44226,7.892230033874512
1619377435.56412,-20.55294,7.907850027084351
1619377435.57975,-24.56722,7.923480033874512
1619377435.59537,-28.30286,7.939100027084351
1619377435.611,-31.71996,7.954730033874512
1619377435.62663,-34.98308,7.970360040664673
1619377435.64225,-38.34254,7.985980033874512
1619377435.65788,-42.04486,8.001610040664673
1619377435.6735,-46.19832,8.017230033874512
1619377435.68913,-50.7156,8.032860040664673
1619377435.70475,-55.26738,8.048480033874512
1619377435.72038,-59.31147,8.064110040664673
1619377435.73601,-62.08184,8.079740047454834
1619377435.75163,-62.77698,8.095360040664673
1619377435.76726,-60.75488,8.110990047454834
1619377435.78288,-55.73545,8.126610040664673
1619377435.79851,-47.9576,8.142240047454834
1619377435.81413,-38.18061,8.157860040664673
1619377435.82976,-27.4537,8.173490047454834
1619377435.84539,-16.89001,8.189120054244995
1619377435.86101,-7.26548,8.204740047454834
1619377435.87664,1.049059,8.220370054244995
1619377435.89226,8.076782,8.235990047454834
1619377435.90789,13.9946,8.251620054244995
1619377435.92351,19.01403,8.267240047454834
1619377435.93914,23.22826,8.282870054244995
1619377435.95477,26.65946,8.298500061035156
1619377435.97039,29.32456,8.314120054244995
1619377435.98602,31.27797,8.329750061035156
1619377436.00164,32.62504,8.345370054244995
1619377436.01727,33.53249,8.361000061035156
1619377436.03289,34.15985,8.376620054244995
1619377436.04852,34.63146,8.392250061035156
1619377436.06415,35.02298,8.407880067825317
1619377436.07977,35.32162,8.423500061035156
1619377436.0954,35.48755,8.439130067825317
1619377436.11102,35.51939,8.454750061035156
1619377436.12665,35.44598,8.470380067825317
1619377436.14227,35.33942,8.486000061035156
1619377436.1579,35.20713,8.501630067825317
1619377436.17353,34.95808,8.517260074615479
1619377436.18915,34.36189,8.532880067825317
1619377436.20478,33.15451,8.548510074615479
1619377436.2204,31.14882,8.564130067825317
1619377436.23603,28.35896,8.579760074615479
1619377436.25165,25.03109,8.595380067825317
1619377436.26728,21.53094,8.611010074615479
1619377436.28291,18.23217,8.62664008140564
1619377436.29853,15.28434,8.642260074615479
1619377436.31416,12.64955,8.65789008140564
1619377436.32978,10.16422,8.673510074615479
1619377436.34541,7.578838,8.68914008140564
1619377436.36103,4.6968,8.704760074615479
1619377436.37666,1.421131,8.72039008140564
1619377436.39229,-2.179592,8.7360200881958
1619377436.40791,-5.988846,8.75164008140564
1619377436.42354,-9.771721,8.7672700881958
1619377436.43916,-13.39353,8.78289008140564
1619377436.45479,-16.76804,8.7985200881958
1619377436.47041,-19.90176,8.81414008140564
1619377436.48604,-22.9138,8.8297700881958
1619377436.50167,-26.03568,8.845399856567383
1619377436.51729,-29.45649,8.8610200881958
1619377436.53292,-33.32586,8.876649856567383
1619377436.54854,-37.73275,8.8922700881958
1619377436.56417,-42.60089,8.907899856567383
1619377436.57979,-47.69574,8.9235200881958
1619377436.59542,-52.46751,8.939149856567383
1619377436.61105,-56.11545,8.954779863357544
1619377436.62667,-57.76305,8.970399856567383
1619377436.6423,-56.69965,8.986029863357544
1619377436.65792,-52.63811,9.001649856567383
1619377436.67355,-45.88514,9.017279863357544
1619377436.68917,-37.25854,9.032899856567383
1619377436.7048,-27.80328,9.048529863357544
1619377436.72043,-18.36302,9.064159870147705
1619377436.73605,-9.383095,9.079779863357544
1619377436.75168,-0.8916321,9.095409870147705
1619377436.7673,7.225754,9.111029863357544
1619377436.78293,14.99123,9.126659870147705
1619377436.79855,22.15554,9.142279863357544
1619377436.81418,28.1814,9.157909870147705
1619377436.82981,32.57957,9.173539876937866
1619377436.84543,35.09339,9.189159870147705
1619377436.86106,35.93528,9.204789876937866
1619377436.87668,35.62098,9.220409870147705
1619377436.89231,34.85813,9.236039876937866
1619377436.90794,34.18612,9.251669883728027
1619377436.92356,33.94901,9.267289876937866
1619377436.93919,34.20053,9.282919883728027
1619377436.95481,34.77191,9.298539876937866
1619377436.97044,35.45808,9.314169883728027
1619377436.98606,36.05304,9.329789876937866
1619377437.00169,36.39909,9.345419883728027
1619377437.01732,36.39747,9.361049890518188
1619377437.03294,35.97881,9.376669883728027
1619377437.04857,35.11994,9.392299890518188
1619377437.06419,33.85298,9.407919883728027
1619377437.07982,32.24168,9.423549890518188
1619377437.09544,30.33273,9.439169883728027
1619377437.11107,28.25739,9.454799890518188
1619377437.1267,26.11478,9.47042989730835
1619377437.14232,23.98048,9.486049890518188
1619377437.15795,21.90524,9.50167989730835
1619377437.17357,19.8206,9.517299890518188
1619377437.1892,17.67953,9.53292989730835
1619377437.20482,15.32027,9.548549890518188
1619377437.22045,12.58534,9.56417989730835
1619377437.23608,9.333664,9.57980990409851
1619377437.2517,5.559708,9.59542989730835
1619377437.26733,1.364517,9.61105990409851
1619377437.28295,-3.050842,9.62667989730835
1619377437.29858,-7.397263,9.64230990409851
1619377437.3142,-11.52676,9.65792989730835
1619377437.32983,-15.31084,9.67355990409851
1619377437.34546,-18.84401,9.689189910888672
1619377437.36108,-22.239,9.70480990409851
1619377437.37671,-25.68489,9.720439910888672
1619377437.39233,-29.33389,9.73605990409851
1619377437.40796,-33.373,9.751689910888672
1619377437.42358,-37.95084,9.76730990409851
1619377437.43921,-43.08214,9.782939910888672
1619377437.45484,-48.62718,9.798569917678833
1619377437.47046,-54.04173,9.814189910888672
1619377437.48609,-58.46101,9.829819917678833
1619377437.50171,-60.82761,9.845439910888672
1619377437.51734,-60.23886,9.861069917678833
1619377437.53296,-56.20853,9.876689910888672
1619377437.54859,-48.88037,9.892319917678833
1619377437.56422,-38.91534,9.907949924468994
1619377437.57984,-27.26093,9.923569917678833
1619377437.59547,-14.99838,9.939199924468994
1619377437.61109,-3.026413,9.954819917678833
1619377437.62672,7.852371,9.970449924468994
1619377437.64234,17.09911,9.986069917678833
1619377437.65797,24.37999,10.001699924468994
1619377437.6736,29.55606,10.017329931259155
1619377437.68922,32.76598,10.032949924468994
1619377437.70485,34.37436,10.048579931259155
1619377437.72047,34.8519,10.064199924468994
1619377437.7361,34.64513,10.079829931259155
1619377437.75172,34.1516,10.095449924468994
1619377437.76735,33.63866,10.111079931259155
1619377437.78298,33.33664,10.126709938049316
1619377437.7986,33.45851,10.142329931259155
1619377437.81423,34.06418,10.157959938049316
1619377437.82985,35.12285,10.173579931259155
1619377437.84548,36.40121,10.189209938049316
1619377437.8611,37.51291,10.204829931259155
1619377437.87673,38.04692,10.220459938049316
1619377437.89236,37.71449,10.236089944839478
1619377437.90798,36.427,10.251709938049316
1619377437.92361,34.32527,10.267339944839478
1619377437.93923,31.71486,10.282959938049316
1619377437.95486,28.88879,10.298589944839478
1619377437.97048,26.01917,10.314209938049316
1619377437.98611,23.09729,10.329839944839478
1619377438.00174,20.04541,10.345469951629639
1619377438.01736,16.80716,10.361089944839478
1619377438.03299,13.44109,10.376719951629639
1619377438.04861,10.12665,10.392339944839478
1619377438.06424,7.101379,10.407969951629639
1619377438.07986,4.503922,10.423589944839478
1619377438.09549,2.302216,10.439219951629639
1619377438.11112,0.3269196,10.4548499584198
1619377438.12674,-1.781982,10.470469951629639
1619377438.14237,-4.292297,10.4860999584198
1619377438.15799,-7.333771,10.501719951629639
1619377438.17362,-10.79378,10.5173499584198
1619377438.18924,-14.43069,10.532969951629639
1619377438.20487,-17.92815,10.5485999584198
1619377438.2205,-21.07632,10.564229965209961
1619377438.23612,-23.81317,10.5798499584198
1619377438.25175,-26.23604,10.595479965209961
1619377438.26737,-28.64453,10.6110999584198
1619377438.283,-31.40753,10.626729965209961
1619377438.29862,-34.83223,10.6423499584198
1619377438.31425,-39.03401,10.657979965209961
1619377438.32988,-43.89528,10.673609972000122
1619377438.3455,-48.91443,10.689229965209961
1619377438.36113,-53.34645,10.704859972000122
1619377438.37675,-56.22183,10.720479965209961
1619377438.39238,-56.61086,10.736109972000122
1619377438.408,-53.86749,10.751729965209961
1619377438.42363,-47.80394,10.767359972000122
1619377438.43926,-38.81804,10.782989978790283
1619377438.45488,-27.81462,10.798609972000122
1619377438.47051,-15.97835,10.814239978790283
1619377438.48613,-4.48378,10.829859972000122
1619377438.50176,5.751968,10.845489978790283
1619377438.51738,14.23068,10.861109972000122
1619377438.53301,20.83417,10.876739978790283
1619377438.54864,25.66068,10.892369985580444
1619377438.56426,28.92094,10.907989978790283
1619377438.57989,30.72519,10.923619985580444
1619377438.59551,31.20764,10.939239978790283
1619377438.61114,30.64272,10.954869985580444
1619377438.62676,29.46928,10.970489978790283
1619377438.64239,28.2652,10.986119985580444
1619377438.65802,27.5621,11.001749992370605
1619377438.67364,27.66028,11.017369985580444
1619377438.68927,28.39114,11.032999992370605
1619377438.70489,29.38425,11.048619985580444
1619377438.72052,30.09531,11.064249992370605
1619377438.73614,30.13712,11.079869985580444
1619377438.75177,29.43568,11.095499992370605
1619377438.7674,28.22197,11.111129999160767
1619377438.78302,26.7924,11.126749992370605
1619377438.79865,25.3222,11.142379999160767
1619377438.81427,23.80244,11.157999992370605
1619377438.8299,22.03186,11.173629999160767
1619377438.84552,19.85461,11.189249992370605
1619377438.86115,17.19159,11.204879999160767
1619377438.87678,14.12105,11.220510005950928
1619377438.8924,10.75967,11.236129999160767
1619377438.90803,7.210175,11.251760005950928
1619377438.92365,3.477844,11.267379999160767
1619377438.93928,-0.4712067,11.283010005950928
1619377438.9549,-4.688599,11.298629999160767
1619377438.97053,-9.12114,11.314260005950928
1619377438.98616,-13.68219,11.329890012741089
1619377439.00178,-18.25262,11.345510005950928
1619377439.01741,-22.76758,11.361140012741089
1619377439.03303,-27.26071,11.376760005950928
1619377439.04866,-31.84201,11.392390012741089
1619377439.06429,-36.64148,11.40802001953125
1619377439.07991,-41.78552,11.423640012741089
1619377439.09554,-47.39261,11.43927001953125
1619377439.11116,-53.42752,11.454890012741089
1619377439.12679,-59.67313,11.47052001953125
1619377439.14241,-65.62961,11.486140012741089
1619377439.15804,-70.55682,11.50177001953125
1619377439.17367,-73.56116,11.517400026321411
1619377439.18929,-73.92358,11.53302001953125
1619377439.20492,-71.27039,11.548650026321411
1619377439.22054,-65.69809,11.56427001953125
1619377439.23617,-57.76129,11.579900026321411
1619377439.25179,-48.27933,11.59552001953125
1619377439.26742,-38.10361,11.611150026321411
1619377439.28305,-27.8735,11.626780033111572
1619377439.29867,-18.008,11.642400026321411
1619377439.3143,-8.682617,11.658030033111572
1619377439.32992,0.02334595,11.673650026321411
1619377439.34555,7.977997,11.689280033111572
1619377439.36117,14.94724,11.704900026321411
1619377439.3768,20.61774,11.720530033111572
1619377439.39243,24.7067,11.736160039901733
1619377439.40805,27.12039,11.751780033111572
1619377439.42368,28.10611,11.767410039901733
1619377439.4393,28.19089,11.783030033111572
1619377439.45493,28.01111,11.798660039901733
1619377439.47055,28.08557,11.814280033111572
1619377439.48618,28.61523,11.829910039901733
1619377439.50181,29.47543,11.845540046691895
1619377439.51743,30.29587,11.861160039901733
1619377439.53306,30.77625,11.876790046691895
1619377439.54868,30.79404,11.892410039901733
1619377439.56431,30.51505,11.908040046691895
1619377439.57993,30.19421,11.923660039901733
1619377439.59556,29.95718,11.939290046691895
1619377439.61119,29.65854,11.954920053482056
1619377439.62681,28.91263,11.970540046691895
1619377439.64244,27.34256,11.986170053482056
1619377439.65806,24.7291,12.001790046691895
1619377439.67369,21.13065,12.017420053482056
1619377439.68931,16.85565,12.033040046691895
1619377439.70494,12.34604,12.048670053482056
1619377439.72057,7.886871,12.064300060272217
1619377439.73619,3.555695,12.079920053482056
1619377439.75182,-0.7576904,12.095550060272217
1619377439.76744,-5.332916,12.111170053482056
1619377439.78307,-10.35223,12.126800060272217
1619377439.79869,-15.86298,12.142420053482056
1619377439.81432,-21.68311,12.158050060272217
1619377439.82995,-27.48874,12.173680067062378
1619377439.84557,-32.86667,12.189300060272217
1619377439.8612,-37.45514,12.204930067062378
1619377439.87682,-41.18277,12.220550060272217
1619377439.89245,-44.17102,12.236180067062378
1619377439.90807,-46.82745,12.251800060272217
1619377439.9237,-49.617,12.267430067062378
1619377439.93933,-52.90314,12.283060073852539
1619377439.95495,-56.67496,12.298680067062378
1619377439.97058,-60.58636,12.314310073852539
1619377439.9862,-63.92065,12.329930067062378
1619377440.00183,-65.73883,12.345560073852539
1619377440.01745,-65.18362,12.361180067062378
1619377440.03308,-61.66422,12.376810073852539
1619377440.04871,-55.06296,12.3924400806427
1619377440.06433,-45.73184,12.408060073852539
1619377440.07996,-34.42197,12.4236900806427
1619377440.09558,-21.93927,12.439310073852539
1619377440.11121,-9.029175,12.4549400806427
1619377440.12683,3.716766,12.470560073852539
1619377440.14246,15.87299,12.4861900806427
1619377440.15809,27.11469,12.501820087432861
1619377440.17371,37.11176,12.5174400806427
1619377440.18934,45.5426,12.533070087432861
1619377440.20496,52.22806,12.5486900806427
1619377440.22059,57.14795,12.564320087432861
1619377440.23621,60.48703,12.5799400806427
1619377440.25184,62.54785,12.595570087432861
1619377440.26747,63.63217,12.611199855804443
1619377440.28309,64.0025,12.626820087432861
1619377440.29872,63.79962,12.642449855804443
1619377440.31434,63.11206,12.658070087432861
1619377440.32997,61.95703,12.673699855804443
1619377440.34559,60.32312,12.689320087432861
1619377440.36122,58.28424,12.704949855804443
1619377440.37685,55.92523,12.720579862594604
1619377440.39247,53.42432,12.736199855804443
1619377440.4081,51.05035,12.751829862594604
1619377440.42372,49.11145,12.767449855804443
1619377440.43935,47.74713,12.783079862594604
1619377440.45497,46.89142,12.798699855804443
1619377440.4706,46.17297,12.814329862594604
1619377440.48623,45.05853,12.829959869384766
1619377440.50185,43.04266,12.845579862594604
1619377440.51748,39.87183,12.861209869384766
1619377440.5331,35.67566,12.876829862594604
1619377440.54873,30.86261,12.892459869384766
1619377440.56435,25.87671,12.908079862594604
1619377440.57998,20.93573,12.923709869384766
1619377440.59561,15.89758,12.939339876174927
1619377440.61123,10.41699,12.954959869384766
1619377440.62686,4.189087,12.970589876174927
1619377440.64248,-2.818237,12.986209869384766
1619377440.65811,-10.31042,13.001839876174927
1619377440.67373,-17.77087,13.017459869384766
1619377440.68936,-24.75592,13.033089876174927
1619377440.70499,-31.08173,13.048719882965088
1619377440.72061,-36.82837,13.064339876174927
1619377440.73624,-42.3186,13.079969882965088
1619377440.75186,-47.81531,13.095589876174927
1619377440.76749,-53.51959,13.111219882965088
1619377440.78311,-59.43762,13.126839876174927
1619377440.79874,-65.48877,13.142469882965088
1619377440.81437,-71.41571,13.158099889755249
1619377440.82999,-76.71625,13.173719882965088
1619377440.84562,-80.57318,13.189349889755249
1619377440.86124,-81.91327,13.204969882965088
1619377440.87687,-79.71454,13.220599889755249
1619377440.89249,-73.35437,13.236219882965088
1619377440.90812,-63.04272,13.251849889755249
1619377440.92375,-49.7724,13.26747989654541
1619377440.93937,-35.09253,13.283099889755249
1619377440.955,-20.57935,13.29872989654541
1619377440.97062,-7.34845,13.314349889755249
1619377440.98625,4.171753,13.32997989654541
1619377441.00187,14.12836,13.345599889755249
1619377441.0175,22.89917,13.36122989654541
1619377441.03313,30.70819,13.376859903335571
1619377441.04875,37.51813,13.39247989654541
1619377441.06438,43.11432,13.408109903335571
1619377441.08,47.341,13.42372989654541
1619377441.09563,50.25037,13.439359903335571
1619377441.11125,52.0824,13.45497989654541
1619377441.12688,53.18719,13.470609903335571
1619377441.14251,53.88672,13.486239910125732
1619377441.15813,54.30316,13.501859903335571
1619377441.17376,54.35754,13.517489910125732
1619377441.18938,53.9295,13.533109903335571
1619377441.20501,52.96368,13.548739910125732
1619377441.22063,51.60419,13.564359903335571
1619377441.23626,50.13251,13.579989910125732
1619377441.25189,48.86017,13.595619916915894
1619377441.26751,47.92914,13.611239910125732
1619377441.28314,47.2373,13.626869916915894
1619377441.29876,46.45453,13.642489910125732
1619377441.31439,45.15106,13.658119916915894
1619377441.33001,43.01666,13.673739910125732
1619377441.34564,40.00824,13.689369916915894
1619377441.36127,36.36273,13.704999923706055
1619377441.37689,32.48322,13.720619916915894
1619377441.39252,28.75079,13.736249923706055
1619377441.40814,25.37299,13.751869916915894
1619377441.42377,22.32404,13.767499923706055
1619377441.43939,19.41638,13.783119916915894
1619377441.45502,16.39154,13.798749923706055
1619377441.47065,13.02448,13.814379930496216
1619377441.48627,9.215759,13.829999923706055
1619377441.5019,4.901123,13.845629930496216
1619377441.51752,0.177063,13.861249923706055
1619377441.53315,-4.790039,13.876879930496216
1619377441.54877,-9.809509,13.892499923706055
1619377441.5644,-14.68701,13.908129930496216
1619377441.58003,-19.28516,13.923759937286377
1619377441.59565,-23.57025,13.939379930496216
1619377441.61128,-27.64813,13.955009937286377
1619377441.6269,-31.76794,13.970629930496216
1619377441.64253,-36.24286,13.986259937286377
1619377441.65815,-41.29742,14.001879930496216
1619377441.67378,-46.91711,14.017509937286377
1619377441.68941,-52.73016,14.033139944076538
1619377441.70503,-57.92578,14.048759937286377
1619377441.72066,-61.35883,14.064389944076538
1619377441.73628,-61.86566,14.080009937286377
1619377441.75191,-58.67224,14.095639944076538
1619377441.76754,-51.65125,14.1112699508667
1619377441.78316,-41.41779,14.126889944076538
1619377441.79879,-29.11267,14.1425199508667
1619377441.81441,-16.05243,14.158139944076538
1619377441.83004,-3.325439,14.1737699508667
1619377441.84566,8.32843,14.189389944076538
1619377441.86129,18.61639,14.2050199508667
1619377441.87692,27.46045,14.22064995765686
1619377441.89254,34.76117,14.2362699508667
1619377441.90817,40.41376,14.25189995765686
1619377441.92379,44.27209,14.2675199508667
1619377441.93942,46.34662,14.28314995765686
1619377441.95504,46.91089,14.2987699508667
1619377441.97067,46.5094,14.31439995765686
1619377441.9863,45.84241,14.330029964447021
1619377442.00192,45.48572,14.34564995765686
1619377442.01755,45.70789,14.361279964447021
1619377442.03317,46.45508,14.37689995765686
1619377442.0488,47.40155,14.392529964447021
1619377442.06442,48.16223,14.40814995765686
1619377442.08005,48.53162,14.423779964447021
1619377442.09568,48.48767,14.439409971237183
1619377442.1113,48.10211,14.455029964447021
1619377442.12693,47.39301,14.470659971237183
1619377442.14255,46.20117,14.486279964447021
1619377442.15818,44.24243,14.501909971237183
1619377442.1738,41.34955,14.517529964447021
1619377442.18943,37.56287,14.533159971237183
1619377442.20506,33.15509,14.548789978027344
1619377442.22068,28.57813,14.564409971237183
1619377442.23631,24.19849,14.580039978027344
1619377442.25193,20.16211,14.595659971237183
1619377442.26756,16.37006,14.611289978027344
1619377442.28318,12.64972,14.626909971237183
1619377442.29881,8.928528,14.642539978027344
1619377442.31444,5.306458,14.658169984817505
1619377442.33006,2.007263,14.673789978027344
1619377442.34569,-0.8616943,14.689419984817505
1619377442.36131,-3.383545,14.705039978027344
1619377442.37694,-5.834595,14.720669984817505
1619377442.39256,-8.603882,14.736289978027344
1619377442.40819,-11.9494,14.751919984817505
1619377442.42382,-15.84106,14.767549991607666
1619377442.43944,-20.02258,14.783169984817505
1619377442.45507,-24.1012,14.798799991607666
1619377442.47069,-27.80383,14.814419984817505
1619377442.48632,-31.11182,14.830049991607666
1619377442.50194,-34.24658,14.845669984817505
1619377442.51757,-37.58972,14.861299991607666
1619377442.5332,-41.46716,14.876929998397827
1619377442.54882,-45.95929,14.892549991607666
1619377442.56445,-50.86584,14.908179998397827
1619377442.58007,-55.76276,14.923799991607666
1619377442.5957,-59.96985,14.939429998397827
1619377442.61132,-62.68201,14.955049991607666
1619377442.62695,-63.07806,14.970679998397827
1619377442.64258,-60.4491,14.986310005187988
1619377442.6582,-54.51324,15.001929998397827
1619377442.67383,-45.52344,15.017560005187988
1619377442.68945,-34.28339,15.033179998397827
1619377442.70508,-22.00555,15.048810005187988
1619377442.7207,-9.936829,15.064429998397827
1619377442.73633,0.9549561,15.080060005187988
1619377442.75196,10.17603,15.09569001197815
1619377442.76758,17.71173,15.111310005187988
1619377442.78321,23.72186,15.12694001197815
1619377442.79883,28.33087,15.142560005187988
1619377442.81446,31.5318,15.15819001197815
1619377442.83008,33.2381,15.173810005187988
1619377442.84571,33.51733,15.18944001197815
1619377442.86134,32.64838,15.20507001876831
1619377442.87696,31.17371,15.22069001197815
1619377442.89259,29.70856,15.23632001876831
1619377442.90821,28.71381,15.25194001197815
1619377442.92384,28.37347,15.26757001876831
1619377442.93946,28.5274,15.28319001197815
1619377442.95509,28.84967,15.29882001876831
1619377442.97072,28.987,15.314450025558472
1619377442.98634,28.73895,15.33007001876831
1619377443.00197,28.09528,15.345700025558472
1619377443.01759,27.14545,15.36132001876831
1619377443.03322,25.99146,15.376950025558472
1619377443.04884,24.55957,15.39257001876831
1619377443.06447,22.70612,15.408200025558472
1619377443.0801,20.18262,15.423830032348633
1619377443.09572,16.85327,15.439450025558472
1619377443.11135,12.80707,15.455080032348633
1619377443.12697,8.346069,15.470700025558472
1619377443.1426,3.954163,15.486330032348633
1619377443.15822,0.03643799,15.501950025558472
1619377443.17385,-3.130859,15.517580032348633
1619377443.18948,-5.642395,15.533210039138794
1619377443.2051,-7.806396,15.548830032348633
1619377443.22073,-10.02692,15.564460039138794
1619377443.23635,-12.62396,15.580080032348633
1619377443.25198,-15.66656,15.595710039138794
1619377443.2676,-18.95013,15.611330032348633
1619377443.28323,-22.07697,15.626960039138794
1619377443.29886,-24.74463,15.642590045928955
1619377443.31448,-26.76617,15.658210039138794
1619377443.33011,-28.32257,15.673840045928955
1619377443.34573,-29.784,15.689460039138794
1619377443.36136,-31.60681,15.705090045928955
1619377443.37698,-34.21423,15.720710039138794
1619377443.39261,-37.81525,15.736340045928955
1619377443.40824,-42.32684,15.751970052719116
1619377443.42386,-47.31976,15.767590045928955
1619377443.43949,-52.0509,15.783220052719116
1619377443.45511,-55.49493,15.798840045928955
1619377443.47074,-56.6445,15.814470052719116
1619377443.48636,-54.70395,15.830090045928955
1619377443.50199,-49.36755,15.845720052719116
1619377443.51762,-40.992,15.861350059509277
1619377443.53324,-30.53287,15.876970052719116
1619377443.54887,-19.28125,15.892600059509277
1619377443.56449,-8.470825,15.908220052719116
1619377443.58012,1.096619,15.923850059509277
1619377443.59574,9.240082,15.939470052719116
1619377443.61137,16.19211,15.955100059509277
1619377443.627,22.31161,15.970730066299438
1619377443.64262,27.827,15.986350059509277
1619377443.65825,32.58316,16.00198006629944
1619377443.67387,36.22928,16.017600059509277
1619377443.6895,38.3978,16.03323006629944
1619377443.70512,38.96396,16.048850059509277
1619377443.72075,38.13669,16.06448006629944
1619377443.73638,36.42557,16.0801100730896
1619377443.752,34.33206,16.09573006629944
1619377443.76763,32.2114,16.1113600730896
1619377443.78325,30.23264,16.12698006629944
1619377443.79888,28.37787,16.1426100730896
1619377443.8145,26.66443,16.15823006629944
1619377443.83013,25.23007,16.1738600730896
1619377443.84576,24.23352,16.18949007987976
1619377443.86138,23.81967,16.2051100730896
1619377443.87701,23.93674,16.22074007987976
1619377443.89263,24.23929,16.2363600730896
1619377443.90826,24.26938,16.25199007987976
1619377443.92389,23.53192,16.267620086669922
1619377443.93951,21.70044,16.28324007987976
1619377443.95514,18.77881,16.298870086669922
1619377443.97076,15.13565,16.31449007987976
1619377443.98639,11.36691,16.330120086669922
1619377444.00201,8.114716,16.34574007987976
1619377444.01764,5.79187,16.361370086669922
1619377444.03327,4.375336,16.376999855041504
1619377444.04889,3.480042,16.392620086669922
1619377444.06452,2.458923,16.408249855041504
1619377444.08014,0.6868286,16.423870086669922
1619377444.09577,-2.162933,16.439499855041504
1619377444.11139,-6.006348,16.455120086669922
1619377444.12702,-10.52197,16.470749855041504
1619377444.14265,-15.241,16.486379861831665
1619377444.15827,-19.78879,16.501999855041504
1619377444.1739,-23.98166,16.517629861831665
1619377444.18952,-27.79645,16.533249855041504
1619377444.20515,-31.36539,16.548879861831665
1619377444.22077,-34.91373,16.564499855041504
1619377444.2364,-38.70313,16.580129861831665
1619377444.25203,-42.95395,16.595759868621826
1619377444.26765,-47.7355,16.611379861831665
1619377444.28328,-52.80838,16.627009868621826
1619377444.2989,-57.52078,16.642629861831665
1619377444.31453,-60.95111,16.658259868621826
1619377444.33015,-62.06354,16.673879861831665
1619377444.34578,-60.10318,16.689509868621826
1619377444.36141,-54.82715,16.705139875411987
1619377444.37703,-46.60367,16.720759868621826
1619377444.39266,-36.26056,16.736389875411987
1619377444.40828,-24.79123,16.752009868621826
1619377444.42391,-13.17389,16.767639875411987
1619377444.43953,-2.067139,16.783259868621826
1619377444.45516,8.067841,16.798889875411987
1619377444.47079,17.0101,16.81451988220215
1619377444.48641,24.57202,16.830139875411987
1619377444.50204,30.65863,16.84576988220215
1619377444.51766,35.22144,16.861389875411987
1619377444.53329,38.33057,16.87701988220215
1619377444.54891,40.22339,16.892639875411987
1619377444.56454,41.13739,16.90826988220215
1619377444.58017,41.36395,16.92389988899231
1619377444.59579,41.07214,16.93951988220215
1619377444.61142,40.48282,16.95514988899231
1619377444.62704,39.79657,16.97076988220215
1619377444.64267,39.19644,16.98639988899231
1619377444.65829,38.82947,17.00201988220215
1619377444.67392,38.71164,17.01764988899231
1619377444.68955,38.78348,17.03327989578247
1619377444.70517,38.84814,17.04889988899231
1619377444.7208,38.77402,17.06452989578247
1619377444.73642,38.40326,17.08014988899231
1619377444.75205,37.6832,17.09577989578247
1619377444.76767,36.49057,17.11139988899231
1619377444.7833,34.69681,17.12702989578247
1619377444.79893,32.22647,17.142659902572632
1619377444.81455,29.05136,17.15827989578247
1619377444.83018,25.37222,17.173909902572632
1619377444.8458,21.45242,17.18952989578247
1619377444.86143,17.63788,17.205159902572632
1619377444.87705,14.13123,17.22077989578247
1619377444.89268,10.96768,17.236409902572632
1619377444.90831,8.047638,17.252039909362793
1619377444.92393,5.181427,17.267659902572632
1619377444.93956,2.241547,17.283289909362793
1619377444.95518,-0.9417725,17.298909902572632
1619377444.97081,-4.430328,17.314539909362793
1619377444.98643,-8.245697,17.330159902572632
1619377445.00206,-12.25113,17.345789909362793
1619377445.01769,-16.19391,17.361419916152954
1619377445.03331,-19.78632,17.377039909362793
1619377445.04894,-22.88226,17.392669916152954
1619377445.06456,-25.59778,17.408289909362793
1619377445.08019,-28.20743,17.423919916152954
1619377445.09581,-31.16843,17.439539909362793
1619377445.11144,-34.77872,17.455169916152954
1619377445.12707,-39.12906,17.470799922943115
1619377445.14269,-44.03345,17.486419916152954
1619377445.15832,-49.06003,17.502049922943115
1619377445.17394,-53.51151,17.517669916152954
1619377445.18957,-56.51233,17.533299922943115
1619377445.20519,-57.11594,17.548919916152954
1619377445.22082,-54.47012,17.564549922943115
1619377445.23645,-48.25607,17.580179929733276
1619377445.25207,-38.7774,17.595799922943115
1619377445.2677,-27.11313,17.611429929733276
1619377445.28332,-14.7612,17.627049922943115
1619377445.29895,-3.17865,17.642679929733276
1619377445.31457,6.609863,17.658299922943115
1619377445.3302,14.24774,17.673929929733276
1619377445.34583,19.8942,17.689559936523438
1619377445.36145,23.97314,17.705179929733276
1619377445.37708,26.82529,17.720809936523438
1619377445.3927,28.65762,17.736429929733276
1619377445.40833,29.51694,17.752059936523438
1619377445.42395,29.44955,17.767679929733276
1619377445.43958,28.6181,17.783309936523438
1619377445.45521,27.33844,17.7989399433136
1619377445.47083,26.00528,17.814559936523438
1619377445.48646,24.93085,17.8301899433136
1619377445.50208,24.26404,17.845809936523438
1619377445.51771,23.90997,17.8614399433136
1619377445.53333,23.69809,17.877059936523438
1619377445.54896,23.45807,17.8926899433136
1619377445.56459,23.1225,17.90831995010376
1619377445.58021,22.7713,17.9239399433136
1619377445.59584,22.58704,17.93956995010376
1619377445.61146,22.59708,17.9551899433136
1619377445.62709,22.66812,17.97081995010376
1619377445.64271,22.54041,17.9864399433136
1619377445.65834,21.85922,18.00206995010376
1619377445.67397,20.48865,18.01769995689392
1619377445.68959,18.48755,18.03331995010376
1619377445.70522,16.07224,18.04894995689392
1619377445.72084,13.56259,18.06456995010376
1619377445.73647,11.24136,18.08019995689392
1619377445.75209,9.238373,18.09581995010376
1619377445.76772,7.566193,18.11144995689392
1619377445.78335,6.071045,18.127079963684082
1619377445.79897,4.442322,18.14269995689392
1619377445.8146,2.332062,18.158329963684082
1619377445.83022,-0.5673828,18.17394995689392
1619377445.84585,-4.386627,18.189579963684082
1619377445.86147,-8.90509,18.20519995689392
1619377445.8771,-13.58234,18.220829963684082
1619377445.89273,-17.78464,18.236459970474243
1619377445.90835,-21.01071,18.252079963684082
1619377445.92398,-23.07468,18.267709970474243
1619377445.9396,-24.267,18.283329963684082
1619377445.95523,-25.12405,18.298959970474243
1619377445.97085,-26.20874,18.314579963684082
1619377445.98648,-27.93219,18.330209970474243
1619377446.00211,-30.46167,18.345839977264404
1619377446.01773,-33.60312,18.361459970474243
1619377446.03336,-36.90295,18.377089977264404
1619377446.04898,-39.62024,18.392709970474243
1619377446.06461,-40.83551,18.408339977264404
1619377446.08023,-39.78043,18.423959970474243
1619377446.09586,-35.93365,18.439589977264404
1619377446.11149,-29.32721,18.455219984054565
1619377446.12711,-20.58379,18.470839977264404
1619377446.14274,-10.79495,18.486469984054565
1619377446.15836,-1.220474,18.502089977264404
1619377446.17399,7.063919,18.517719984054565
1619377446.18962,13.40504,18.533349990844727
1619377446.20524,17.67934,18.548969984054565
1619377446.22087,20.1561,18.564599990844727
1619377446.23649,21.38245,18.580219984054565
1619377446.25212,21.8425,18.595849990844727
1619377446.26774,21.89955,18.611469984054565
1619377446.28337,21.70424,18.627099990844727
1619377446.299,21.22893,18.642729997634888
1619377446.31462,20.44994,18.658349990844727
1619377446.33025,19.44153,18.673979997634888
1619377446.34587,18.47093,18.689599990844727
1619377446.3615,17.8148,18.705229997634888
1619377446.37712,17.63319,18.720849990844727
1619377446.39275,17.76357,18.736479997634888
1619377446.40838,17.78532,18.75211000442505
1619377446.424,17.31236,18.767729997634888
1619377446.43963,16.24814,18.78336000442505
1619377446.45525,14.87447,18.798979997634888
1619377446.47088,13.756,18.81461000442505
1619377446.4865,13.40599,18.830229997634888
1619377446.50213,13.91304,18.84586000442505
1619377446.51776,14.89784,18.86149001121521
1619377446.53338,15.64249,18.87711000442505
1619377446.54901,15.49518,18.89274001121521
1619377446.56463,14.18822,18.90836000442505
1619377446.58026,11.90097,18.92399001121521
1619377446.59588,9.052277,18.93961000442505
1619377446.61151,6.057877,18.95524001121521
1619377446.62714,3.110794,18.97087001800537
1619377446.64276,0.150116,18.98649001121521
1619377446.65839,-3.016861,19.00212001800537
1619377446.67401,-6.478729,19.01774001121521
1619377446.68964,-10.10919,19.03337001800537
1619377446.70526,-13.68454,19.04899001121521
1619377446.72089,-16.92044,19.06462001800537
1619377446.73652,-19.67314,19.080250024795532
1619377446.75214,-21.92931,19.09587001800537
1619377446.76777,-23.82089,19.111500024795532
1619377446.78339,-25.51347,19.12712001800537
1619377446.79902,-27.16699,19.142750024795532
1619377446.81464,-28.86986,19.15837001800537
1619377446.83027,-30.72459,19.174000024795532
1619377446.8459,-32.85039,19.189630031585693
1619377446.86152,-35.41058,19.205250024795532
1619377446.87715,-38.50784,19.220880031585693
1619377446.89277,-42.04205,19.236500024795532
1619377446.9084,-45.66357,19.252130031585693
1619377446.92402,-48.68867,19.267750024795532
1619377446.93965,-50.24751,19.283380031585693
1619377446.95528,-49.50213,19.299010038375854
1619377446.9709,-45.97606,19.314630031585693
1619377446.98653,-39.7847,19.330260038375854
1619377447.00215,-31.58205,19.345880031585693
1619377447.01778,-22.40205,19.361510038375854
1619377447.0334,-13.3781,19.377130031585693
1619377447.04903,-5.346947,19.392760038375854
1619377447.06466,1.228149,19.408390045166016
1619377447.08028,6.306763,19.424010038375854
1619377447.09591,10.12984,19.439640045166016
1619377447.11153,12.96786,19.455260038375854
1619377447.12716,15.00127,19.470890045166016
1619377447.14278,16.3736,19.486510038375854
1619377447.15841,17.16599,19.502140045166016
1619377447.17404,17.52764,19.517770051956177
1619377447.18966,17.68287,19.533390045166016
1619377447.20529,17.86637,19.549020051956177
1619377447.22091,18.28252,19.564640045166016
1619377447.23654,18.98067,19.580270051956177
1619377447.25216,19.84648,19.595890045166016
1619377447.26779,20.66852,19.611520051956177
1619377447.28342,21.1294,19.627150058746338
1619377447.29904,20.92167,19.642770051956177
1619377447.31467,19.85758,19.658400058746338
1619377447.33029,17.91546,19.674020051956177
1619377447.34592,15.31255,19.689650058746338
1619377447.36154,12.43063,19.705270051956177
1619377447.37717,9.705406,19.720900058746338
1619377447.3928,7.432831,19.7365300655365
1619377447.40842,5.700134,19.752150058746338
1619377447.42405,4.348946,19.7677800655365
1619377447.43967,3.050331,19.783400058746338
1619377447.4553,1.556458,19.7990300655365
1619377447.47092,-0.2128372,19.814650058746338
1619377447.48655,-2.25985,19.8302800655365
1619377447.50218,-4.573265,19.84591007232666
1619377447.5178,-7.25441,19.8615300655365
1619377447.53343,-10.52275,19.87716007232666
1619377447.54905,-14.51968,19.8927800655365
1619377447.56468,-19.18217,19.90841007232666
1619377447.5803,-24.2651,19.9240300655365
1619377447.59593,-29.41436,19.93966007232666
1619377447.61156,-34.34895,19.95529007911682
1619377447.62718,-39.02827,19.97091007232666
1619377447.64281,-43.53987,19.98654007911682
1619377447.65843,-47.83245,20.00216007232666
1619377447.67406,-51.50601,20.01779007911682
1619377447.68968,-53.7514,20.03341007232666
1619377447.70531,-53.61671,20.04904007911682
1619377447.72094,-50.42547,20.064670085906982
1619377447.73656,-44.06793,20.08029007911682
1619377447.75219,-35.17171,20.095920085906982
1619377447.76781,-24.83556,20.11154007911682
1619377447.78344,-14.34474,20.127170085906982
1619377447.79906,-4.781685,20.14279007911682
1619377447.81469,3.222992,20.158420085906982
1619377447.83032,9.490463,20.174049854278564
1619377447.84594,14.24883,20.189670085906982
1619377447.86157,17.90289,20.205299854278564
1619377447.87719,20.86259,20.220920085906982
1619377447.89282,23.34136,20.236549854278564
1619377447.90844,25.4176,20.252170085906982
1619377447.92407,26.9481,20.267799854278564
1619377447.9397,27.78557,20.283429861068726
1619377447.95532,27.85877,20.299049854278564
1619377447.97095,27.26675,20.314679861068726
1619377447.98657,26.28229,20.330299854278564
1619377448.0022,25.25904,20.345929861068726
1619377448.01782,24.48097,20.361549854278564
1619377448.03345,24.08608,20.377179861068726
1619377448.04908,24.09998,20.392809867858887
1619377448.0647,24.44318,20.408429861068726
1619377448.08033,25.01823,20.424059867858887
1619377448.09595,25.65613,20.439679861068726
1619377448.11158,26.13517,20.455309867858887
1619377448.1272,26.216,20.470929861068726
1619377448.14283,25.69212,20.486559867858887
1619377448.15846,24.51172,20.502189874649048
1619377448.17408,22.76522,20.517809867858887
1619377448.18971,20.69963,20.533439874649048
1619377448.20533,18.50834,20.549059867858887
1619377448.22096,16.24557,20.564689874649048
1619377448.23658,13.82035,20.580309867858887
1619377448.25221,11.00655,20.595939874649048
1619377448.26784,7.640064,20.61156988143921
1619377448.28346,3.719044,20.627189874649048
1619377448.29909,-0.5944939,20.64281988143921
1619377448.31471,-5.049446,20.658439874649048
1619377448.33034,-9.322128,20.67406988143921
1619377448.34596,-13.24033,20.689689874649048
1619377448.36159,-16.74969,20.70531988143921
1619377448.37722,-19.9313,20.72094988822937
1619377448.39284,-23.0195,20.73656988143921
1619377448.40847,-26.30265,20.75219988822937
1619377448.42409,-30.02447,20.76781988143921
1619377448.43972,-34.25954,20.78344988822937
1619377448.45534,-38.91227,20.79906988143921
1619377448.47097,-43.5512,20.81469988822937
1619377448.4866,-47.58497,20.83032989501953
1619377448.50222,-50.25257,20.84594988822937
1619377448.51785,-50.82478,20.86157989501953
1619377448.53347,-48.79465,20.87719988822937
1619377448.5491,-44.04769,20.89282989501953
1619377448.56472,-36.85979,20.90844988822937
1619377448.58035,-27.84583,20.92407989501953
1619377448.59598,-17.80306,20.939709901809692
1619377448.6116,-7.529713,20.95532989501953
1619377448.62723,2.285419,20.970959901809692
1619377448.64285,11.19208,20.98657989501953
1619377448.65848,18.99346,21.002209901809692
1619377448.6741,25.68906,21.01782989501953
1619377448.68973,31.41452,21.033459901809692
1619377448.70536,36.26693,21.049089908599854
1619377448.72098,40.2374,21.064709901809692
1619377448.73661,43.22004,21.080339908599854
1619377448.75223,45.03652,21.095959901809692
1619377448.76786,45.55226,21.111589908599854
1619377448.78349,44.89143,21.127219915390015
1619377448.79911,43.48677,21.142839908599854
1619377448.81474,41.90551,21.158469915390015
1619377448.83036,40.72026,21.174089908599854
1619377448.84599,40.25696,21.189719915390015
1619377448.86161,40.4725,21.205339908599854
1619377448.87724,41.1291,21.220969915390015
1619377448.89287,41.99447,21.236599922180176
1619377448.90849,42.91938,21.252219915390015
1619377448.92412,43.81779,21.267849922180176
1619377448.93974,44.55557,21.283469915390015
1619377448.95537,44.77113,21.299099922180176
1619377448.97099,43.92872,21.314719915390015
1619377448.98662,41.55072,21.330349922180176
1619377449.00225,37.36441,21.345979928970337
1619377449.01787,31.55938,21.361599922180176
1619377449.0335,24.80744,21.377229928970337
1619377449.04912,18.00741,21.392849922180176
1619377449.06475,11.92139,21.408479928970337
1619377449.08037,6.867947,21.424099922180176
1619377449.096,2.783463,21.439729928970337
1619377449.11163,-0.5742855,21.455359935760498
1619377449.12725,-3.337435,21.470979928970337
1619377449.14288,-5.45129,21.486609935760498
1619377449.1585,-6.774685,21.502229928970337
1619377449.17413,-7.435886,21.517859935760498
1619377449.18975,-7.974682,21.533479928970337
1619377449.20538,-9.210102,21.549109935760498
1619377449.22101,-11.8105,21.56473994255066
1619377449.23663,-15.73132,21.580359935760498
1619377449.25226,-19.99954,21.59598994255066
1619377449.26788,-23.00721,21.611609935760498
1619377449.28351,-23.20594,21.62723994255066
1619377449.29913,-19.72999,21.642859935760498
1619377449.31476,-12.82106,21.65848994255066
1619377449.33039,-3.789803,21.67411994934082
1619377449.34601,5.534691,21.68973994255066
1619377449.36164,13.40792,21.70536994934082
1619377449.37726,18.72668,21.72098994255066
1619377449.39289,21.31125,21.73661994934082
1619377449.40851,21.82684,21.75223994255066
1619377449.42414,21.3232,21.76786994934082
1619377449.43977,20.58282,21.78349995613098
1619377449.45539,19.70739,21.79911994934082
1619377449.47102,17.88938,21.81474995613098
1619377449.48664,14.00034,21.83036994934082
1619377449.50227,7.178993,21.84599995613098
1619377449.51789,-2.504272,21.86161994934082
1619377449.53352,-13.96563,21.87724995613098
1619377449.54915,-25.52377,21.892879962921143
1619377449.56477,-35.6212,21.90849995613098
1619377449.5804,-43.42452,21.924129962921143
1619377449.59602,-48.86723,21.93974995613098
1619377449.61165,-52.34457,21.955379962921143
1619377449.62727,-54.07024,21.97099995613098
1619377449.6429,-54.06648,21.986629962921143
1619377449.65853,-52.16565,22.002259969711304
1619377449.67415,-48.46486,22.017879962921143
1619377449.68978,-43.51245,22.033509969711304
1619377449.7054,-38.20023,22.049129962921143
1619377449.72103,-33.44333,22.064759969711304
1619377449.73665,-29.79907,22.080379962921143
1619377449.75228,-27.40895,22.096009969711304
1619377449.76791,-25.96082,22.111639976501465
1619377449.78353,-25.06964,22.127259969711304
1619377449.79916,-24.38898,22.142889976501465
1619377449.81478,-23.83301,22.158509969711304
1619377449.83041,-23.4455,22.174139976501465
1619377449.84603,-23.41864,22.189759969711304
1619377449.86166,-23.91368,22.205389976501465
1619377449.87729,-25.00931,22.221019983291626
1619377449.89291,-26.66289,22.236639976501465
1619377449.90854,-28.70009,22.252269983291626
1619377449.92416,-30.9373,22.267889976501465
1619377449.93979,-33.21478,22.283519983291626
1619377449.95541,-35.41356,22.299139976501465
1619377449.97104,-37.48723,22.314769983291626
1619377449.98667,-39.48994,22.330399990081787
1619377450.00229,-41.58891,22.346019983291626
1619377450.01792,-44.03027,22.361649990081787
1619377450.03354,-46.99141,22.377269983291626
1619377450.04917,-50.35315,22.392899990081787
1619377450.06479,-53.58971,22.408519983291626
1619377450.08042,-55.78995,22.424149990081787
1619377450.09605,-55.88919,22.43977999687195
1619377450.11167,-53.06456,22.455399990081787
1619377450.1273,-47.03691,22.47102999687195
1619377450.14292,-38.2225,22.486649990081787
1619377450.15855,-27.56612,22.50227999687195
1619377450.17417,-16.23293,22.517899990081787
1619377450.1898,-5.26236,22.53352999687195
1619377450.20543,4.658722,22.54916000366211
1619377450.22105,13.14122,22.56477999687195
1619377450.23668,20.0182,22.58041000366211
1619377450.2523,25.17574,22.59602999687195
1619377450.26793,28.5461,22.61166000366211
1619377450.28355,30.14693,22.62727999687195
1619377450.29918,30.21988,22.64291000366211
1619377450.31481,29.19086,22.65854001045227
1619377450.33043,27.64452,22.67416000366211
1619377450.34606,26.13577,22.68979001045227
1619377450.36168,25.12064,22.70541000366211
1619377450.37731,24.77747,22.72104001045227
1619377450.39293,25.03474,22.73666000366211
1619377450.40856,25.63371,22.75229001045227
1619377450.42419,26.22205,22.76792001724243
1619377450.43981,26.50928,22.78354001045227
1619377450.45544,26.27949,22.79917001724243
1619377450.47106,25.45438,22.81479001045227
1619377450.48669,23.99988,22.83042001724243
1619377450.50231,21.95955,22.84604001045227
1619377450.51794,19.42883,22.86167001724243
1619377450.53357,16.51272,22.877300024032593
1619377450.54919,13.35576,22.89292001724243
1619377450.56482,10.08731,22.908550024032593
1619377450.58044,6.84259,22.92417001724243
1619377450.59607,3.671555,22.939800024032593
1619377450.61169,0.6266479,22.95542001724243
1619377450.62732,-2.292419,22.971050024032593
1619377450.64295,-5.131622,22.986680030822754
1619377450.65857,-8.006416,23.002300024032593
1619377450.6742,-11.10318,23.017930030822754
1619377450.68982,-14.58759,23.033550024032593
1619377450.70545,-18.57039,23.049180030822754
1619377450.72107,-22.96939,23.064800024032593
1619377450.7367,-27.57674,23.080430030822754
1619377450.75233,-32.13721,23.096060037612915
1619377450.76795,-36.46278,23.111680030822754
1619377450.78358,-40.53428,23.127310037612915
1619377450.7992,-44.5521,23.142930030822754
1619377450.81483,-48.79665,23.158560037612915
1619377450.83045,-53.31037,23.174180030822754
1619377450.84608,-57.89249,23.189810037612915
1619377450.86171,-61.90465,23.205440044403076
1619377450.87733,-64.43381,23.221060037612915
1619377450.89296,-64.55679,23.236690044403076
1619377450.90858,-61.59435,23.252310037612915
1619377450.92421,-55.38965,23.267940044403076
1619377450.93983,-46.45894,23.283560037612915
1619377450.95546,-35.82929,23.299190044403076
1619377450.97109,-24.62609,23.314820051193237
1619377450.98671,-13.86961,23.330440044403076
1619377451.00234,-4.163322,23.346070051193237
1619377451.01796,4.30051,23.361690044403076
1619377451.03359,11.6174,23.377320051193237
1619377451.04922,17.94605,23.3929500579834
1619377451.06484,23.40219,23.408570051193237
1619377451.08047,27.98036,23.4242000579834
1619377451.09609,31.64128,23.439820051193237
1619377451.11172,34.39235,23.4554500579834
1619377451.12734,36.26981,23.471070051193237
1619377451.14297,37.40166,23.4867000579834
1619377451.1586,37.93618,23.50233006477356
1619377451.17422,38.03582,23.5179500579834
1619377451.18985,37.87749,23.53358006477356
1619377451.20547,37.61576,23.5492000579834
1619377451.2211,37.35591,23.56483006477356
1619377451.23672,37.17623,23.5804500579834
1619377451.25235,37.08881,23.59608006477356
1619377451.26798,37.03285,23.61171007156372
1619377451.2836,36.96313,23.62733006477356
1619377451.29923,36.79644,23.64296007156372
1619377451.31485,36.35759,23.65858006477356
1619377451.33048,35.44901,23.67421007156372
1619377451.3461,33.88767,23.68983006477356
1619377451.36173,31.56866,23.70546007156372
1619377451.37736,28.53229,23.721090078353882
1619377451.39298,24.91821,23.73671007156372
1619377451.40861,20.8672,23.752340078353882
1619377451.42423,16.54737,23.76796007156372
1619377451.43986,12.1079,23.783590078353882
1619377451.45548,7.671732,23.79921007156372
1619377451.47111,3.399582,23.814840078353882
1619377451.48674,-0.5575943,23.830470085144043
1619377451.50236,-4.083603,23.846090078353882
1619377451.51799,-7.214233,23.861720085144043
1619377451.53361,-10.05019,23.877340078353882
1619377451.54924,-12.77891,23.892970085144043
1619377451.56486,-15.4966,23.908590078353882
1619377451.58049,-18.25537,23.924220085144043
1619377451.59612,-21.08492,23.939850091934204
1619377451.61174,-24.14214,23.955470085144043
1619377451.62737,-27.68124,23.971100091934204
1619377451.64299,-31.95533,23.986720085144043
1619377451.65862,-37.04248,24.002350091934204
1619377451.67424,-42.48717,24.017970085144043
1619377451.68987,-47.37735,24.033600091934204
1619377451.7055,-50.46878,24.049229860305786
1619377451.72112,-50.66475,24.064850091934204
1619377451.73675,-47.39882,24.080479860305786
1619377451.75237,-40.86288,24.096100091934204
1619377451.768,-31.84888,24.111729860305786
1619377451.78362,-21.4841,24.127350091934204
1619377451.79925,-10.88052,24.142979860305786
1619377451.81488,-0.7959747,24.158609867095947
1619377451.8305,8.362473,24.174229860305786
1619377451.84613,16.45327,24.189859867095947
1619377451.86175,23.48053,24.205479860305786
1619377451.87738,29.39627,24.221109867095947
1619377451.893,34.14338,24.236729860305786
1619377451.90863,37.65186,24.252359867095947
1619377451.92426,39.84549,24.26798987388611
1619377451.93988,40.70092,24.283609867095947
1619377451.95551,40.38577,24.29923987388611
1619377451.97113,39.24457,24.314859867095947
1619377451.98676,37.78508,24.33048987388611
1619377452.00238,36.61981,24.346109867095947
1619377452.01801,36.14577,24.36173987388611
1619377452.03364,36.44986,24.37736988067627
1619377452.04926,37.23843,24.39298987388611
1619377452.06489,37.98612,24.40861988067627
1619377452.08051,38.14146,24.42423987388611
1619377452.09614,37.48741,24.43986988067627
1619377452.11176,36.08091,24.45548987388611
1619377452.12739,34.17996,24.47111988067627
1619377452.14302,32.16933,24.48674988746643
1619377452.15864,30.21368,24.50236988067627
1619377452.17427,28.25301,24.51799988746643
1619377452.18989,26.10355,24.53361988067627
1619377452.20552,23.5922,24.54924988746643
1619377452.22114,20.75424,24.56486988067627
1619377452.23677,17.8811,24.58049988746643
1619377452.2524,15.30428,24.596129894256592
1619377452.26802,13.19506,24.61174988746643
1619377452.28365,11.46344,24.627379894256592
1619377452.29927,9.66539,24.64299988746643
1619377452.3149,7.322662,24.658629894256592
1619377452.33052,4.141663,24.67424988746643
1619377452.34615,0.1818619,24.689879894256592
1619377452.36178,-4.105576,24.705509901046753
1619377452.3774,-8.22583,24.721129894256592
1619377452.39303,-11.90128,24.736759901046753
1619377452.40865,-15.1007,24.752379894256592
1619377452.42428,-18.12572,24.768009901046753
1619377452.4399,-21.39021,24.783629894256592
1619377452.45553,-25.18118,24.799259901046753
1619377452.47116,-29.61075,24.814889907836914
1619377452.48678,-34.58896,24.830509901046753
1619377452.50241,-39.73544,24.846139907836914
1619377452.51803,-44.45182,24.861759901046753
1619377452.53366,-47.95964,24.877389907836914
1619377452.54928,-49.30067,24.893009901046753
1619377452.56491,-47.65814,24.908639907836914
1619377452.58054,-42.6832,24.924269914627075
1619377452.59616,-34.52818,24.939889907836914
1619377452.61179,-23.90278,24.955519914627075
1619377452.62741,-11.88173,24.971139907836914
1619377452.64304,0.4628983,24.986769914627075
1619377452.65866,12.30872,25.002389907836914
1619377452.67429,23.15913,25.018019914627075
1619377452.68992,32.88274,25.033649921417236
1619377452.70554,41.42181,25.049269914627075
1619377452.72117,48.72189,25.064899921417236
1619377452.73679,54.68956,25.080519914627075
1619377452.75242,59.23144,25.096149921417236
1619377452.76804,62.25739,25.111769914627075
1619377452.78367,63.86364,25.127399921417236
1619377452.7993,64.26719,25.143029928207397
1619377452.81492,63.82391,25.158649921417236
1619377452.83055,62.96039,25.174279928207397
1619377452.84617,62.00147,25.189899921417236
1619377452.8618,61.10851,25.205529928207397
1619377452.87742,60.22068,25.221149921417236
1619377452.89305,59.09967,25.236779928207397
1619377452.90868,57.51854,25.25240993499756
1619377452.9243,55.39133,25.268029928207397
1619377452.93993,52.8245,25.28365993499756
1619377452.95555,50.09747,25.299279928207397
1619377452.97118,47.5216,25.31490993499756
1619377452.9868,45.23196,25.330529928207397
1619377453.00243,43.09428,25.34615993499756
1619377453.01806,40.71378,25.36178994178772
1619377453.03368,37.50035,25.37740993499756
1619377453.04931,33.00037,25.39303994178772
1619377453.06493,27.10163,25.40865993499756
1619377453.08056,20.08126,25.42428994178772
1619377453.09618,12.53833,25.43990993499756
1619377453.11181,5.211769,25.45553994178772
1619377453.12744,-1.404552,25.47116994857788
1619377453.14306,-7.217545,25.48678994178772
1619377453.15869,-12.57923,25.50241994857788
1619377453.17431,-18.18599,25.51803994178772
1619377453.18994,-24.71467,25.53366994857788
1619377453.20556,-32.50375,25.54928994178772
1619377453.22119,-41.46295,25.56491994857788
1619377453.23682,-51.13556,25.580549955368042
1619377453.25244,-60.87231,25.59616994857788
1619377453.26807,-70.16906,25.611799955368042
1619377453.28369,-78.78178,25.62741994857788
1619377453.29932,-86.60889,25.643049955368042
1619377453.31494,-93.63747,25.65866994857788
1619377453.33057,-99.76343,25.674299955368042
1619377453.3462,-104.7801,25.689929962158203
1619377453.36182,-108.4639,25.705549955368042
1619377453.37745,-110.6057,25.721179962158203
1619377453.39307,-110.9614,25.736799955368042
1619377453.4087,-109.2616,25.752429962158203
1619377453.42432,-105.1613,25.768049955368042
1619377453.43995,-98.29967,25.783679962158203
1619377453.45558,-88.52596,25.799309968948364
1619377453.4712,-76.06956,25.814929962158203
1619377453.48683,-61.62057,25.830559968948364
1619377453.50245,-46.19403,25.846179962158203
1619377453.51808,-30.87069,25.861809968948364
1619377453.53371,-16.50263,25.877439975738525
1619377453.54933,-3.631943,25.893059968948364
1619377453.56496,7.539928,25.908689975738525
1619377453.58058,17.10714,25.924309968948364
1619377453.59621,25.16354,25.939939975738525
1619377453.61183,31.84908,25.955559968948364
1619377453.62746,37.15458,25.971189975738525
1619377453.64309,41.10063,25.986819982528687
1619377453.65871,43.75317,26.002439975738525
1619377453.67434,45.30203,26.018069982528687
1619377453.68996,46.03462,26.033689975738525
1619377453.70559,46.23771,26.049319982528687
1619377453.72121,46.17234,26.064939975738525
1619377453.73684,45.9377,26.080569982528687
1619377453.75247,45.57118,26.096199989318848
1619377453.76809,45.03925,26.111819982528687
1619377453.78372,44.29224,26.127449989318848
1619377453.79934,43.33586,26.143069982528687
1619377453.81497,42.14607,26.158699989318848
1619377453.83059,40.74951,26.174319982528687
1619377453.84622,39.17015,26.189949989318848
1619377453.86185,37.43962,26.20557999610901
1619377453.87747,35.57578,26.221199989318848
1619377453.8931,33.57393,26.23682999610901
1619377453.90872,31.39874,26.252449989318848
1619377453.92435,28.97445,26.26807999610901
1619377453.93997,26.21933,26.283699989318848
1619377453.9556,23.07412,26.29932999610901
1619377453.97123,19.5696,26.31496000289917
1619377453.98685,15.75067,26.33057999610901
1619377454.00248,11.68859,26.34621000289917
1619377454.0181,7.430531,26.36182999610901
1619377454.03373,3.050426,26.37746000289917
1619377454.04935,-1.278004,26.39307999610901
1619377454.06498,-5.368332,26.40871000289917
1619377454.08061,-8.971966,26.42434000968933
1619377454.09623,-12.00746,26.43996000289917
1619377454.11186,-14.46856,26.45559000968933
1619377454.12748,-16.51642,26.47121000289917
1619377454.14311,-18.33201,26.48684000968933
1619377454.15873,-20.03297,26.50246000289917
1619377454.17436,-21.73555,26.51809000968933
1619377454.18999,-23.49036,26.533720016479492
1619377454.20561,-25.41543,26.54934000968933
1619377454.22124,-27.5819,26.564970016479492
1619377454.23686,-30.11229,26.58059000968933
1619377454.25249,-32.9476,26.596220016479492
1619377454.26811,-35.87555,26.61184000968933
1619377454.28374,-38.50126,26.627470016479492
1619377454.29937,-40.23762,26.643100023269653
1619377454.31499,-40.4438,26.658720016479492
1619377454.33062,-38.48962,26.674350023269653
1619377454.34624,-33.92618,26.689970016479492
1619377454.36187,-26.63576,26.705600023269653
1619377454.37749,-16.93889,26.721220016479492
1619377454.39312,-5.645229,26.736850023269653
1619377454.40875,6.235281,26.752480030059814
1619377454.42437,17.65281,26.768100023269653
1619377454.44,27.84818,26.783730030059814
1619377454.45562,36.42834,26.799350023269653
1619377454.47125,43.36023,26.814980030059814
1619377454.48687,48.74545,26.830600023269653
1619377454.5025,52.64753,26.846230030059814
1619377454.51813,55.12986,26.861860036849976
1619377454.53375,56.2606,26.877480030059814
1619377454.54938,56.24887,26.893110036849976
1619377454.565,55.44284,26.908730030059814
1619377454.58063,54.2819,26.924360036849976
1619377454.59625,53.18184,26.939980030059814
1619377454.61188,52.44464,26.955610036849976
1619377454.62751,52.19429,26.971240043640137
1619377454.64313,52.44886,26.986860036849976
1619377454.65876,53.26554,27.002490043640137
1619377454.67438,54.68695,27.018110036849976
1619377454.69001,56.77151,27.033740043640137
1619377454.70563,59.34845,27.049360036849976
1619377454.72126,61.95506,27.064990043640137
1619377454.73689,63.99449,27.080620050430298
1619377454.75251,64.88253,27.096240043640137
1619377454.76814,64.35504,27.111870050430298
1619377454.78376,62.64425,27.127490043640137
1619377454.79939,60.43304,27.143120050430298
1619377454.81501,58.488,27.158740043640137
1619377454.83064,57.34128,27.174370050430298
1619377454.84627,56.97237,27.19000005722046
1619377454.86189,56.85236,27.205620050430298
1619377454.87752,56.30811,27.22125005722046
1619377454.89314,54.71293,27.236870050430298
1619377454.90877,51.75364,27.25250005722046
1619377454.92439,47.33588,27.268120050430298
1619377454.94002,41.46964,27.28375005722046
1619377454.95565,34.08263,27.29938006401062
1619377454.97127,25.15778,27.31500005722046
1619377454.9869,14.88143,27.33063006401062
1619377455.00252,3.688919,27.34625005722046
1619377455.01815,-7.72258,27.36188006401062
1619377455.03377,-18.81863,27.37750005722046
1619377455.0494,-29.4159,27.39313006401062
1619377455.06503,-39.75847,27.40876007080078
1619377455.08065,-50.2698,27.42438006401062
1619377455.09628,-61.09882,27.44001007080078
1619377455.1119,-71.72423,27.45563006401062
1619377455.12753,-81.02194,27.47126007080078
1619377455.14315,-87.55571,27.48688006401062
1619377455.15878,-90.05745,27.50251007080078
1619377455.17441,-87.93968,27.518140077590942
1619377455.19003,-81.37363,27.53376007080078
1619377455.20566,-71.1577,27.549390077590942
1619377455.22128,-58.63115,27.56501007080078
1619377455.23691,-45.50334,27.580640077590942
1619377455.25253,-33.65746,27.59626007080078
1619377455.26816,-24.99562,27.611890077590942
1619377455.28379,-20.99101,27.627520084381104
1619377455.29941,-22.15919,27.643140077590942
1619377455.31504,-27.76395,27.658770084381104
1619377455.33066,-35.79521,27.674390077590942
1619377455.34629,-43.58946,27.690020084381104
1619377455.36191,-48.7424,27.705640077590942
1619377455.37754,-49.94418,27.721270084381104
1619377455.39317,-47.27925,27.736900091171265
1619377455.40879,-42.08975,27.752520084381104
1619377455.42442,-36.24153,27.768150091171265
1619377455.44004,-31.35135,27.783770084381104
1619377455.45567,-28.39607,27.799400091171265
1619377455.47129,-27.48653,27.815020084381104
1619377455.48692,-28.11005,27.830650091171265
1619377455.50255,-29.47627,27.846279859542847
1619377455.51817,-30.82613,27.861900091171265
1619377455.5338,-31.59943,27.877529859542847
1619377455.54942,-31.54851,27.893150091171265
1619377455.56505,-30.66522,27.908779859542847
1619377455.58067,-29.05998,27.924400091171265
1619377455.5963,-26.96356,27.940029859542847
1619377455.61193,-24.53909,27.955659866333008
1619377455.62755,-21.95743,27.971279859542847
1619377455.64318,-19.3333,27.986909866333008
1619377455.6588,-16.87903,28.002529859542847
1619377455.67443,-14.832,28.018159866333008
1619377455.69005,-13.39967,28.033779859542847
1619377455.70568,-12.60817,28.049409866333008
1619377455.72131,-12.20154,28.06503987312317
1619377455.73693,-11.795,28.080659866333008
1619377455.75256,-10.97447,28.09628987312317
1619377455.76818,-9.569397,28.111909866333008
1619377455.78381,-7.709625,28.12753987312317
1619377455.79943,-5.825989,28.143159866333008
1619377455.81506,-4.388184,28.15878987312317
1619377455.83069,-3.689178,28.17441987991333
1619377455.84631,-3.805939,28.19003987312317
1619377455.86194,-4.570648,28.20566987991333
1619377455.87756,-5.837936,28.22128987312317
1619377455.89319,-7.502762,28.23691987991333
1619377455.90882,-9.521805,28.25254988670349
1619377455.92444,-11.90222,28.26816987991333
1619377455.94007,-14.54854,28.28379988670349
1619377455.95569,-17.27065,28.29941987991333
1619377455.97132,-19.91736,28.31504988670349
1619377455.98694,-22.48204,28.33066987991333
1619377456.00257,-25.09352,28.34629988670349
1619377456.0182,-27.96819,28.361929893493652
1619377456.03382,-31.1958,28.37754988670349
1619377456.04945,-34.78423,28.393179893493652
1619377456.06507,-38.62895,28.40879988670349
1619377456.0807,-42.54955,28.424429893493652
1619377456.09632,-46.18414,28.44004988670349
1619377456.11195,-48.9982,28.455679893493652
1619377456.12758,-50.33891,28.471309900283813
1619377456.1432,-49.36569,28.486929893493652
1619377456.15883,-45.4514,28.502559900283813
1619377456.17445,-38.45232,28.518179893493652
1619377456.19008,-28.84021,28.533809900283813
1619377456.2057,-17.68401,28.549429893493652
1619377456.22133,-6.240463,28.565059900283813
1619377456.23696,4.451431,28.580689907073975
1619377456.25258,13.80626,28.596309900283813
1619377456.26821,21.70047,28.611939907073975
1619377456.28383,28.40549,28.627559900283813
1619377456.29946,34.22562,28.643189907073975
1619377456.31508,39.27121,28.658809900283813
1619377456.33071,43.49321,28.674439907073975
1619377456.34634,46.70967,28.690069913864136
1619377456.36196,48.79497,28.705689907073975
1619377456.37759,49.78497,28.721319913864136
1619377456.39321,49.89665,28.736939907073975
1619377456.40884,49.4921,28.752569913864136
1619377456.42446,48.97168,28.768189907073975
1619377456.44009,48.50182,28.783819913864136
1619377456.45572,47.93994,28.799449920654297
1619377456.47134,46.89262,28.815069913864136
1619377456.48697,44.91893,28.830699920654297
1619377456.50259,41.8056,28.846319913864136
1619377456.51822,37.73505,28.861949920654297
1619377456.53384,33.30743,28.877569913864136
1619377456.54947,29.2662,28.893199920654297
1619377456.5651,26.26897,28.908829927444458
1619377456.58072,24.49091,28.924449920654297
1619377456.59635,23.73091,28.940079927444458
1619377456.61197,23.47134,28.955699920654297
1619377456.6276,23.12703,28.971329927444458
1619377456.64322,22.32431,28.986949920654297
1619377456.65885,20.95134,29.002579927444458
1619377456.67448,19.07932,29.01820993423462
1619377456.6901,16.84395,29.033829927444458
1619377456.70573,14.34895,29.04945993423462
1619377456.72135,11.56242,29.065079927444458
1619377456.73698,8.398132,29.08070993423462
1619377456.7526,4.782059,29.096329927444458
1619377456.76823,0.6355591,29.11195993423462
1619377456.78386,-4.001572,29.12758994102478
1619377456.79948,-8.897339,29.14320993423462
1619377456.81511,-13.72018,29.15883994102478
1619377456.83073,-18.05716,29.17445993423462
1619377456.84636,-21.5569,29.19008994102478
1619377456.86198,-24.09122,29.20570993423462
1619377456.87761,-25.81239,29.22133994102478
1619377456.89324,-27.10686,29.23696994781494
1619377456.90886,-28.41605,29.25258994102478
1619377456.92449,-30.06674,29.26821994781494
1619377456.94011,-32.08775,29.28383994102478
1619377456.95574,-34.37668,29.29946994781494
1619377456.97136,-36.81152,29.31508994102478
1619377456.98699,-39.34872,29.33071994781494
1619377457.00262,-42.02811,29.346349954605103
1619377457.01824,-44.73857,29.36196994781494
1619377457.03387,-46.92361,29.377599954605103
1619377457.04949,-47.6248,29.39321994781494
1619377457.06512,-45.68944,29.408849954605103
1619377457.08074,-40.35019,29.42446994781494
1619377457.09637,-31.56027,29.440099954605103
1619377457.112,-20.1003,29.455729961395264
1619377457.12762,-7.202744,29.471349954605103
1619377457.14325,6.009262,29.486979961395264
1619377457.15887,18.88437,29.502599954605103
1619377457.1745,31.22514,29.518229961395264
1619377457.19012,42.88339,29.533849954605103
1619377457.20575,53.33089,29.549479961395264
1619377457.22138,61.48111,29.565109968185425
1619377457.237,66.05676,29.580729961395264
1619377457.25263,66.19388,29.596359968185425
1619377457.26825,61.89641,29.611979961395264
1619377457.28388,54.21013,29.627609968185425
1619377457.2995,44.67056,29.643229961395264
1619377457.31513,34.74918,29.658859968185425
1619377457.33076,25.33826,29.674489974975586
1619377457.34638,16.64478,29.690109968185425
1619377457.36201,8.426926,29.705739974975586
1619377457.37763,0.4239655,29.721359968185425
1619377457.39326,-7.27066,29.736989974975586
1619377457.40888,-14.16733,29.752609968185425
1619377457.42451,-19.5441,29.768239974975586
1619377457.44014,-22.80429,29.783869981765747
1619377457.45576,-23.76082,29.799489974975586
1619377457.47139,-22.76195,29.815119981765747
1619377457.48701,-20.52765,29.830739974975586
1619377457.50264,-17.88126,29.846369981765747
1619377457.51826,-15.43239,29.861989974975586
1619377457.53389,-13.36549,29.877619981765747
1619377457.54952,-11.56778,29.893249988555908
1619377457.56514,-9.753143,29.908869981765747
1619377457.58077,-7.851883,29.924499988555908
1619377457.59639,-6.046997,29.940119981765747
1619377457.61202,-4.688782,29.955749988555908
1619377457.62764,-4.080307,29.971369981765747
1619377457.64327,-4.254486,29.986999988555908
1619377457.6589,-4.999146,30.00262999534607
1619377457.67452,-5.984726,30.018249988555908
1619377457.69015,-7.031219,30.03387999534607
1619377457.70577,-8.130569,30.049499988555908
1619377457.7214,-9.482025,30.06512999534607
1619377457.73702,-11.27234,30.080749988555908
1619377457.75265,-13.50121,30.09637999534607
1619377457.76828,-16.00346,30.11201000213623
1619377457.7839,-18.49347,30.12762999534607
1619377457.79953,-20.82219,30.14326000213623
1619377457.81515,-23.06232,30.15887999534607
1619377457.83078,-25.52832,30.17451000213623
1619377457.8464,-28.49194,30.19012999534607
1619377457.86203,-32.00543,30.20576000213623
1619377457.87766,-35.71196,30.22139000892639
1619377457.89328,-38.85295,30.23701000213623
1619377457.90891,-40.5092,30.25264000892639
1619377457.92453,-39.85616,30.26826000213623
1619377457.94016,-36.51321,30.28389000892639
1619377457.95578,-30.61395,30.29951000213623
1619377457.97141,-22.86893,30.31514000892639
1619377457.98704,-14.22354,30.330770015716553
1619377458.00266,-5.615662,30.34639000892639
1619377458.01829,2.206833,30.362020015716553
1619377458.03391,8.862671,30.37764000892639
1619377458.04954,14.18904,30.393270015716553
1619377458.06516,18.26851,30.40889000892639
1619377458.08079,21.22009,30.424520015716553
1619377458.09642,23.17267,30.440150022506714
1619377458.11204,24.1974,30.455770015716553
1619377458.12767,24.33423,30.471400022506714
1619377458.14329,23.61479,30.487020015716553
1619377458.15892,22.17635,30.502650022506714
1619377458.17455,20.32338,30.518280029296875
1619377458.19017,18.44525,30.533900022506714
1619377458.2058,16.96841,30.549530029296875
1619377458.22142,16.12216,30.565150022506714
1619377458.23705,15.9059,30.580780029296875
1619377458.25267,16.06267,30.596400022506714
1619377458.2683,16.30557,30.612030029296875
1619377458.28393,16.47697,30.627660036087036
1619377458.29955,16.64568,30.643280029296875
1619377458.31518,17.07437,30.658910036087036
1619377458.3308,17.92409,30.674530029296875
1619377458.34643,19.14497,30.690160036087036
1619377458.36205,20.38654,30.705780029296875
1619377458.37768,21.15152,30.721410036087036
1619377458.39331,21.00613,30.737040042877197
1619377458.40893,19.84338,30.752660036087036
1619377458.42456,17.8409,30.768290042877197
1619377458.44018,15.41476,30.783910036087036
1619377458.45581,12.98422,30.799540042877197
1619377458.47143,10.67781,30.815160036087036
1619377458.48706,8.336472,30.830790042877197
1619377458.50269,5.560104,30.84642004966736
1619377458.51831,1.886124,30.862040042877197
1619377458.53394,-2.884964,30.87767004966736
1619377458.54956,-8.608337,30.893290042877197
1619377458.56519,-14.75563,30.90892004966736
1619377458.58081,-20.55487,30.924540042877197
1619377458.59644,-25.32182,30.94017004966736
1619377458.61207,-28.65254,30.95580005645752
1619377458.62769,-30.52992,30.97142004966736
1619377458.64332,-31.34532,30.98705005645752
1619377458.65894,-31.70525,31.00267004966736
1619377458.67457,-32.2495,31.01830005645752
1619377458.69019,-33.42519,31.03392004966736
1619377458.70582,-35.33176,31.04955005645752
1619377458.72145,-37.66525,31.06518006324768
1619377458.73707,-39.79785,31.08080005645752
1619377458.7527,-40.93954,31.09643006324768
1619377458.76832,-40.32629,31.11205005645752
1619377458.78395,-37.48949,31.12768006324768
1619377458.79957,-32.46947,31.14330005645752
1619377458.8152,-25.79132,31.15893006324768
1619377458.83083,-18.32817,31.174560070037842
1619377458.84645,-11.02154,31.19018006324768
1619377458.86208,-4.505913,31.205810070037842
1619377458.8777,1.09391,31.22143006324768
1619377458.89333,6.066406,31.237060070037842
1619377458.90895,10.91317,31.25268006324768
1619377458.92458,15.91382,31.268310070037842
1619377458.94021,20.92218,31.283940076828003
1619377458.95583,25.43584,31.299560070037842
1619377458.97146,28.89369,31.315190076828003
1619377458.98708,30.97694,31.330810070037842
1619377459.00271,31.82031,31.346440076828003
1619377459.01833,31.87498,31.362060070037842
1619377459.03396,31.70349,31.377690076828003
1619377459.04959,31.67483,31.393320083618164
1619377459.06521,31.90809,31.408940076828003
1619377459.08084,32.34132,31.424570083618164
1619377459.09646,32.7947,31.440190076828003
1619377459.11209,33.15259,31.455820083618164
1619377459.12771,33.38202,31.471440076828003
1619377459.14334,33.45871,31.487070083618164
1619377459.15897,33.27756,31.502700090408325
1619377459.17459,32.64989,31.518320083618164
1619377459.19022,31.30301,31.533950090408325
1619377459.20584,29.12614,31.549570083618164
1619377459.22147,26.20467,31.565200090408325
1619377459.23709,22.88439,31.580820083618164
1619377459.25272,19.60528,31.596450090408325
1619377459.26835,16.76688,31.612079858779907
1619377459.28397,14.50406,31.627700090408325
1619377459.2996,12.5904,31.643329858779907
1619377459.31522,10.59456,31.658950090408325
1619377459.33085,8.049034,31.674579858779907
1619377459.34647,4.717461,31.690200090408325
1619377459.3621,0.6922836,31.705829858779907
1619377459.37773,-3.676941,31.72145986557007
1619377459.39335,-7.973961,31.737079858779907
1619377459.40898,-11.99541,31.75270986557007
1619377459.4246,-15.71812,31.768329858779907
1619377459.44023,-19.27667,31.78395986557007
1619377459.45585,-22.84744,31.799579858779907
1619377459.47148,-26.48946,31.81520986557007
1619377459.48711,-30.19098,31.83083987236023
1619377459.50273,-33.90096,31.84645986557007
1619377459.51836,-37.57666,31.86208987236023
1619377459.53398,-41.02751,31.87770986557007
1619377459.54961,-43.86023,31.89333987236023
1619377459.56523,-45.34435,31.90895986557007
1619377459.58086,-44.566,31.92458987236023
1619377459.59649,-40.83482,31.94021987915039
1619377459.61211,-34.05811,31.95583987236023
1619377459.62774,-24.92735,31.97146987915039
1619377459.64336,-14.78305,31.98708987236023
1619377459.65899,-5.102905,32.00271987915039
1619377459.67461,3.057571,32.01833987236023
1619377459.69024,9.292816,32.03396987915039
1619377459.70587,13.92407,32.04959988594055
1619377459.72149,17.47013,32.06521987915039
1619377459.73712,20.29424,32.08084988594055
1619377459.75274,22.34007,32.09646987915039
1619377459.76837,23.23066,32.11209988594055
1619377459.78399,22.66113,32.12771987915039
1619377459.79962,20.70277,32.14334988594055
1619377459.81525,17.92716,32.15897989273071
1619377459.83087,15.19261,32.17459988594055
1619377459.8465,13.29309,32.19022989273071
1619377459.86212,12.61899,32.20584988594055
1619377459.87775,13.01395,32.22147989273071
1619377459.89337,13.9705,32.23709988594055
1619377459.909,14.84024,32.25272989273071
1619377459.92463,15.2308,32.268359899520874
1619377459.94025,15.08623,32.28397989273071
1619377459.95588,14.59286,32.299609899520874
1619377459.9715,14.01212,32.31522989273071
1619377459.98713,13.39174,32.330859899520874
1619377460.00275,12.58564,32.34647989273071
1619377460.01838,11.32667,32.362109899520874
1619377460.03401,9.379776,32.377739906311035
1619377460.04963,6.698196,32.393359899520874
1619377460.06526,3.451393,32.408989906311035
1619377460.08088,-0.01547241,32.424609899520874
1619377460.09651,-3.333244,32.440239906311035
1619377460.11213,-6.294281,32.455859899520874
1619377460.12776,-8.792206,32.471489906311035
1619377460.14339,-10.93747,32.487119913101196
1619377460.15901,-12.90332,32.502739906311035
1619377460.17464,-14.84828,32.518369913101196
1619377460.19026,-16.94614,32.533989906311035
1619377460.20589,-19.28455,32.549619913101196
1619377460.22151,-21.96893,32.565239906311035
1619377460.23714,-25.13647,32.580869913101196
1619377460.25277,-28.89967,32.59649991989136
1619377460.26839,-33.26406,32.612119913101196
1619377460.28402,-37.95568,32.62774991989136
1619377460.29964,-42.2808,32.643369913101196
1619377460.31527,-45.16299,32.65899991989136
1619377460.33089,-45.55449,32.674619913101196
1619377460.34652,-42.81517,32.69024991989136
1619377460.36215,-37.0139,32.70587992668152
1619377460.37777,-28.96113,32.72149991989136
1619377460.3934,-19.83018,32.73712992668152
1619377460.40902,-10.71848,32.75274991989136
1619377460.42465,-2.369015,32.76837992668152
1619377460.44027,4.99659,32.78399991989136
1619377460.4559,11.42036,32.79962992668152
1619377460.47153,17.01191,32.81525993347168
1619377460.48715,21.7094,32.83087992668152
1619377460.50278,25.32515,32.84650993347168
1619377460.5184,27.6823,32.86212992668152
1619377460.53403,28.79588,32.87775993347168
1619377460.54965,28.98455,32.89337992668152
1619377460.56528,28.7398,32.90900993347168
1619377460.58091,28.54721,32.92463994026184
1619377460.59653,28.76118,32.94025993347168
1619377460.61216,29.45549,32.95588994026184
1619377460.62778,30.44997,32.97150993347168
1619377460.64341,31.4707,32.98713994026184
1619377460.65903,32.23981,33.00275993347168
1619377460.67466,32.59005,33.01838994026184
1619377460.69029,32.52038,33.034019947052
1619377460.70591,32.07375,33.04963994026184
1619377460.72154,31.23402,33.065269947052
1619377460.73716,29.92521,33.08088994026184
1619377460.75279,28.04832,33.096519947052
1619377460.76842,25.55643,33.11214995384216
1619377460.78404,22.54449,33.127769947052
1619377460.79967,19.1833,33.14339995384216
1619377460.81529,15.65014,33.159019947052
1619377460.83092,12.05453,33.17464995384216
1619377460.84654,8.416302,33.190269947052
1619377460.86217,4.717796,33.20589995384216
1619377460.8778,0.9739075,33.221529960632324
1619377460.89342,-2.797783,33.23714995384216
1619377460.90905,-6.545887,33.252779960632324
1619377460.92467,-10.20284,33.26839995384216
1619377460.9403,-13.7237,33.284029960632324
1619377460.95592,-17.06433,33.29964995384216
1619377460.97155,-20.16329,33.315279960632324
1619377460.98718,-22.95376,33.330909967422485
1619377461.0028,-25.41969,33.346529960632324
1619377461.01843,-27.6892,33.362159967422485
1619377461.03405,-30.1289,33.377779960632324
1619377461.04968,-33.18304,33.393409967422485
1619377461.0653,-37.17909,33.409029960632324
1619377461.08093,-42.11002,33.424659967422485
1619377461.09656,-47.48126,33.44028997421265
1619377461.11218,-52.26843,33.455909967422485
1619377461.12781,-55.27883,33.47153997421265
1619377461.14343,-55.47232,33.487159967422485
1619377461.15906,-52.32082,33.50278997421265
1619377461.17468,-46.00536,33.518409967422485
1619377461.19031,-37.31089,33.53403997421265
1619377461.20594,-27.32786,33.54966998100281
1619377461.22156,-17.09641,33.56528997421265
1619377461.23719,-7.389017,33.58091998100281
1619377461.25281,1.481743,33.59653997421265
1619377461.26844,9.431335,33.61216998100281
1619377461.28406,16.49887,33.62778997421265
1619377461.29969,22.60781,33.64341998100281
1619377461.31532,27.5825,33.65904998779297
1619377461.33094,31.14191,33.67466998100281
1619377461.34657,33.10111,33.69029998779297
1619377461.36219,33.49033,33.70591998100281
1619377461.37782,32.58121,33.72154998779297
1619377461.39344,30.88819,33.73716998100281
1619377461.40907,28.93393,33.75279998779297
1619377461.4247,27.16927,33.76842999458313
1619377461.44032,25.82696,33.78404998779297
1619377461.45595,24.9746,33.79967999458313
1619377461.47157,24.53595,33.81529998779297
1619377461.4872,24.41578,33.83092999458313
1619377461.50282,24.5625,33.84654998779297
1619377461.51845,24.96613,33.86217999458313
1619377461.53408,25.53885,33.87781000137329
1619377461.5497,26.09834,33.89342999458313
1619377461.56533,26.32508,33.90906000137329
1619377461.58095,25.92533,33.92467999458313
1619377461.59658,24.74292,33.94031000137329
1619377461.6122,22.84183,33.95592999458313
1619377461.62783,20.47346,33.97156000137329
1619377461.64346,17.91956,33.98719000816345
1619377461.65908,15.36164,34.00281000137329
1619377461.67471,12.7522,34.01844000816345
1619377461.69033,9.938929,34.03406000137329
1619377461.70596,6.756057,34.04969000816345
1619377461.72158,3.168807,34.06531000137329
1619377461.73721,-0.642169,34.08094000816345
1619377461.75284,-4.405159,34.09657001495361
1619377461.76846,-7.935537,34.11219000816345
1619377461.78409,-11.21161,34.12782001495361
1619377461.79971,-14.41034,34.14344000816345
1619377461.81534,-17.76973,34.15907001495361
1619377461.83096,-21.50486,34.17469000816345
1619377461.84659,-25.68718,34.19032001495361
1619377461.86222,-30.27877,34.205950021743774
1619377461.87784,-35.25554,34.22157001495361
1619377461.89347,-40.56711,34.237200021743774
1619377461.90909,-46.13106,34.25282001495361
1619377461.92472,-51.53358,34.268450021743774
1619377461.94034,-56.02396,34.28407001495361
1619377461.95597,-58.50206,34.299700021743774
1619377461.9716,-57.92151,34.315330028533936
1619377461.98722,-53.67286,34.330950021743774
1619377462.00285,-45.92287,34.346580028533936
1619377462.01847,-35.57775,34.362200021743774
1619377462.0341,-24.03778,34.377830028533936
1619377462.04972,-12.65115,34.393450021743774
1619377462.06535,-2.332094,34.409080028533936
1619377462.08098,6.536627,34.4247100353241
1619377462.0966,14.05286,34.440330028533936
1619377462.11223,20.41585,34.4559600353241
1619377462.12785,25.81613,34.471580028533936
1619377462.14348,30.21276,34.4872100353241
1619377462.1591,33.5085,34.502830028533936
1619377462.17473,35.5173,34.5184600353241
1619377462.19036,36.24111,34.53409004211426
1619377462.20598,35.88423,34.5497100353241
1619377462.22161,34.8344,34.56534004211426
1619377462.23723,33.59943,34.5809600353241
1619377462.25286,32.56822,34.59659004211426
1619377462.26848,31.90466,34.6122100353241
1619377462.28411,31.42546,34.62784004211426
1619377462.29974,30.78905,34.64347004890442
1619377462.31536,29.71751,34.65909004211426
1619377462.33099,28.15479,34.67472004890442
1619377462.34661,26.30926,34.69034004211426
1619377462.36224,24.48022,34.70597004890442
1619377462.37786,22.84649,34.72159004211426
1619377462.39349,21.3398,34.73722004890442
1619377462.40912,19.74891,34.75285005569458
1619377462.42474,17.85928,34.76847004890442
1619377462.44037,15.61982,34.78410005569458
1619377462.45599,13.20059,34.79972004890442
1619377462.47162,10.76117,34.81535005569458
1619377462.48724,8.352646,34.83097004890442
1619377462.50287,5.820896,34.84660005569458
1619377462.5185,2.968243,34.86223006248474
1619377462.53412,-0.3386726,34.87785005569458
1619377462.54975,-4.04858,34.89348006248474
1619377462.56537,-7.963684,34.90910005569458
1619377462.581,-11.87896,34.92473006248474
1619377462.59662,-15.6335,34.94035005569458
1619377462.61225,-19.24488,34.95598006248474
1619377462.62788,-22.81261,34.9716100692749
1619377462.6435,-26.52218,34.98723006248474
1619377462.65913,-30.59158,35.0028600692749
1619377462.67475,-35.27993,35.01848006248474
1619377462.69038,-40.70278,35.0341100692749
1619377462.706,-46.70995,35.04973006248474
1619377462.72163,-52.67997,35.0653600692749
1619377462.73726,-57.53381,35.08099007606506
1619377462.75288,-60.04665,35.0966100692749
1619377462.76851,-59.26976,35.11224007606506
1619377462.78413,-54.89992,35.1278600692749
1619377462.79976,-47.47536,35.14349007606506
1619377462.81538,-38.16504,35.1591100692749
1619377462.83101,-28.22255,35.17474007606506
1619377462.84664,-18.67943,35.190370082855225
1619377462.86226,-10.04121,35.20599007606506
1619377462.87789,-2.338726,35.221620082855225
1619377462.89351,4.547058,35.23724007606506
1619377462.90914,10.69785,35.252870082855225
1619377462.92476,16.08226,35.26849007606506
1619377462.94039,20.57064,35.284120082855225
1619377462.95602,24.0696,35.299750089645386
1619377462.97164,26.70071,35.315370082855225
1619377462.98727,28.70055,35.331000089645386
1619377463.00289,30.43372,35.346620082855225
1619377463.01852,32.20731,35.362250089645386
1619377463.03415,34.15238,35.37787985801697
1619377463.04977,36.20953,35.393500089645386
1619377463.0654,38.1738,35.40912985801697
1619377463.08102,39.81169,35.424750089645386
1619377463.09665,40.9906,35.44037985801697
1619377463.11227,41.792,35.456000089645386
1619377463.1279,42.33522,35.47162985801697
1619377463.14353,42.7182,35.48725986480713
1619377463.15915,42.81767,35.50287985801697
1619377463.17478,42.2989,35.51850986480713
1619377463.1904,40.75533,35.53412985801697
1619377463.20603,37.93698,35.54975986480713
1619377463.22165,33.92173,35.56537985801697
1619377463.23728,29.12967,35.58100986480713
1619377463.25291,24.26666,35.59663987159729
1619377463.26853,19.88667,35.61225986480713
1619377463.28416,16.29752,35.62788987159729
1619377463.29978,13.33025,35.64350986480713
1619377463.31541,10.47643,35.65913987159729
1619377463.33103,7.180229,35.67475986480713
1619377463.34666,3.107811,35.69038987159729
1619377463.36229,-1.663078,35.70601987838745
1619377463.37791,-6.73674,35.72163987159729
1619377463.39354,-11.57402,35.73726987838745
1619377463.40916,-15.85171,35.75288987159729
1619377463.42479,-19.54089,35.76851987838745
1619377463.44041,-22.92576,35.78413987159729
1619377463.45604,-26.40314,35.79976987838745
1619377463.47167,-30.26253,35.81539988517761
1619377463.48729,-34.60488,35.83101987838745
1619377463.50292,-39.3567,35.84664988517761
1619377463.51854,-44.34533,35.86226987838745
1619377463.53417,-49.30402,35.87789988517761
1619377463.54979,-53.88348,35.89351987838745
1619377463.56542,-57.46379,35.90914988517761
1619377463.58105,-59.26923,35.92477989196777
1619377463.59667,-58.577,35.94039988517761
1619377463.6123,-54.95807,35.95602989196777
1619377463.62792,-48.50774,35.97164988517761
1619377463.64355,-39.86471,35.98727989196777
1619377463.65917,-30.00049,36.00289988517761
1619377463.6748,-19.88773,36.01852989196777
1619377463.69043,-10.23148,36.034159898757935
1619377463.70605,-1.327141,36.04977989196777
1619377463.72168,6.858482,36.065409898757935
1619377463.7373,14.40563,36.08102989196777
1619377463.75293,21.37175,36.096659898757935
1619377463.76855,27.54422,36.11227989196777
1619377463.78418,32.52875,36.127909898757935
1619377463.79981,35.92232,36.143539905548096
1619377463.81543,37.53214,36.159159898757935
1619377463.83106,37.50163,36.174789905548096
1619377463.84668,36.38351,36.190409898757935
1619377463.86231,34.91821,36.206039905548096
1619377463.87793,33.82256,36.221659898757935
1619377463.89356,33.53828,36.237289905548096
1619377463.90919,34.09373,36.25291991233826
1619377463.92481,35.19402,36.268539905548096
1619377463.94044,36.35566,36.28416991233826
1619377463.95606,37.2065,36.299789905548096
1619377463.97169,37.62596,36.31541991233826
1619377463.98731,37.71207,36.331039905548096
1619377464.00294,37.64928,36.34666991233826
1619377464.01857,37.53455,36.36229991912842
1619377464.03419,37.2414,36.37791991233826
1619377464.04982,36.43404,36.39354991912842
1619377464.06544,34.76224,36.40916991233826
1619377464.08107,32.07994,36.42479991912842
1619377464.09669,28.47308,36.44041991233826
1619377464.11232,24.36913,36.45604991912842
1619377464.12795,20.28652,36.47167992591858
1619377464.14357,16.61652,36.48729991912842
1619377464.1592,13.52277,36.50292992591858
1619377464.17482,10.88525,36.51854991912842
1619377464.19045,8.400528,36.53417992591858
1619377464.20607,5.814278,36.54979991912842
1619377464.2217,3.055679,36.56542992591858
1619377464.23733,0.1625443,36.58105993270874
1619377464.25295,-2.671806,36.59667992591858
1619377464.26858,-5.302299,36.61230993270874
1619377464.2842,-7.738068,36.62792992591858
1619377464.29983,-10.06039,36.64355993270874
1619377464.31545,-12.45922,36.65917992591858
1619377464.33108,-15.13106,36.67480993270874
1619377464.34671,-18.26706,36.6904399394989
1619377464.36233,-22.01295,36.70605993270874
1619377464.37796,-26.46744,36.7216899394989
1619377464.39358,-31.56908,36.73730993270874
1619377464.40921,-37.01707,36.7529399394989
1619377464.42483,-42.22131,36.76855993270874
1619377464.44046,-46.36461,36.7841899394989
1619377464.45609,-48.67603,36.79981994628906
1619377464.47171,-48.59561,36.8154399394989
1619377464.48734,-45.93474,36.83106994628906
1619377464.50296,-40.95817,36.8466899394989
1619377464.51859,-34.14593,36.86231994628906
1619377464.53421,-26.06923,36.8779399394989
1619377464.54984,-17.27782,36.89356994628906
1619377464.56547,-8.292542,36.909199953079224
1619377464.58109,0.4363632,36.92481994628906
1619377464.59672,8.436291,36.940449953079224
1619377464.61234,15.29953,36.95606994628906
1619377464.62797,20.74866,36.971699953079224
1619377464.64359,24.60449,36.98731994628906
1619377464.65922,26.87313,37.002949953079224
1619377464.67485,27.68221,37.018579959869385
1619377464.69047,27.28233,37.034199953079224
1619377464.7061,26.04678,37.049829959869385
1619377464.72172,24.47744,37.065449953079224
1619377464.73735,23.05261,37.081079959869385
1619377464.75297,22.13377,37.096699953079224
1619377464.7686,21.86065,37.112329959869385
1619377464.78423,22.02315,37.127959966659546
1619377464.79985,22.29264,37.143579959869385
1619377464.81548,22.3345,37.159209966659546
1619377464.8311,21.97731,37.174829959869385
1619377464.84673,21.30399,37.190459966659546
1619377464.86235,20.52192,37.206079959869385
1619377464.87798,19.78208,37.221709966659546
1619377464.89361,19.11113,37.23733997344971
1619377464.90923,18.32946,37.252959966659546
1619377464.92486,17.20166,37.26858997344971
1619377464.94048,15.57784,37.284209966659546
1619377464.95611,13.45392,37.29983997344971
1619377464.97173,10.98036,37.315459966659546
1619377464.98736,8.340709,37.33108997344971
1619377465.00299,5.607451,37.34671998023987
1619377465.01861,2.720843,37.36233997344971
1619377465.03424,-0.4079142,37.37796998023987
1619377465.04986,-3.791928,37.39358997344971
1619377465.06549,-7.243242,37.40921998023987
1619377465.08111,-10.44129,37.42483997344971
1619377465.09674,-13.0877,37.44046998023987
1619377465.11237,-15.03415,37.45609998703003
1619377465.12799,-16.34054,37.47171998023987
1619377465.14362,-17.25513,37.48734998703003
1619377465.15924,-18.1036,37.50296998023987
1619377465.17487,-19.10507,37.51859998703003
1619377465.1905,-20.45355,37.53422999382019
1619377465.20612,-22.27568,37.54984998703003
1619377465.22175,-24.68337,37.56547999382019
1619377465.23737,-27.77626,37.58109998703003
1619377465.253,-31.50641,37.59672999382019
1619377465.26862,-35.53666,37.61234998703003
1619377465.28425,-39.28396,37.62797999382019
1619377465.29988,-42.05694,37.64361000061035
1619377465.3155,-43.14487,37.65922999382019
1619377465.33113,-42.11955,37.67486000061035
1619377465.34675,-38.83987,37.69047999382019
1619377465.36238,-33.51749,37.70611000061035
1619377465.378,-26.62764,37.72172999382019
1619377465.39363,-18.76106,37.73736000061035
1619377465.40926,-10.53605,37.75299000740051
1619377465.42488,-2.453938,37.76861000061035
1619377465.44051,5.093105,37.78424000740051
1619377465.45613,11.90173,37.79986000061035
1619377465.47176,17.89533,37.81549000740051
1619377465.48738,23.04444,37.83111000061035
1619377465.50301,27.33805,37.84674000740051
1619377465.51864,30.67728,37.862370014190674
1619377465.53426,33.01254,37.87799000740051
1619377465.54989,34.31554,37.893620014190674
1619377465.56551,34.70194,37.90924000740051
1619377465.58114,34.45979,37.924870014190674
1619377465.59676,34.01048,37.94049000740051
1619377465.61239,33.7327,37.956120014190674
1619377465.62802,33.81953,37.971750020980835
1619377465.64364,34.33023,37.987370014190674
1619377465.65927,35.13031,38.003000020980835
1619377465.67489,36.12926,38.018620014190674
1619377465.69052,37.32837,38.034250020980835
1619377465.70614,38.82136,38.049870014190674
1619377465.72177,40.71853,38.065500020980835
1619377465.7374,43.05695,38.081130027770996
1619377465.75302,45.7001,38.096750020980835
1619377465.76865,48.38303,38.112380027770996
1619377465.78427,50.93709,38.128000020980835
1619377465.7999,53.31395,38.143630027770996
1619377465.81552,55.65765,38.159250020980835
1619377465.83115,58.13306,38.174880027770996
1619377465.84678,60.77515,38.19051003456116
1619377465.8624,63.4222,38.206130027770996
1619377465.87803,65.76392,38.22176003456116
1619377465.89365,67.57208,38.237380027770996
1619377465.90928,68.71936,38.25301003456116
1619377465.9249,69.35627,38.268630027770996
1619377465.94053,69.59567,38.28426003456116
1619377465.95616,69.44759,38.29989004135132
1619377465.97178,68.78635,38.31551003456116
1619377465.98741,67.38841,38.33114004135132
1619377466.00303,65.18867,38.34676003456116
1619377466.01866,62.26294,38.36239004135132
1619377466.03428,58.84595,38.37801003456116
1619377466.04991,54.96027,38.39364004135132
1619377466.06554,50.48187,38.40927004814148
1619377466.08116,45.0631,38.42489004135132
1619377466.09679,38.37407,38.44052004814148
1619377466.11241,30.41483,38.45614004135132
1619377466.12804,21.46413,38.47177004814148
1619377466.14366,12.00012,38.48739004135132
1619377466.15929,2.375473,38.50302004814148
1619377466.17492,-7.331207,38.51865005493164
1619377466.19054,-17.32718,38.53427004814148
1619377466.20617,-27.72208,38.54990005493164
1619377466.22179,-38.41272,38.56552004814148
1619377466.23742,-49.01176,38.58115005493164
1619377466.25304,-58.94456,38.59677004814148
1619377466.26867,-67.80115,38.61240005493164
1619377466.2843,-75.35867,38.6280300617218
1619377466.29992,-81.52881,38.64365005493164
1619377466.31555,-86.1489,38.6592800617218
1619377466.33117,-88.86893,38.67490005493164
1619377466.3468,-89.10895,38.6905300617218
1619377466.36242,-86.38721,38.70615005493164
1619377466.37805,-80.62195,38.7217800617218
1619377466.39368,-72.24246,38.73741006851196
1619377466.4093,-62.18085,38.7530300617218
1619377466.42493,-51.4523,38.76866006851196
1619377466.44055,-40.89615,38.7842800617218
1619377466.45618,-30.95966,38.79991006851196
1619377466.4718,-21.77438,38.8155300617218
1619377466.48743,-13.19019,38.83116006851196
1619377466.50306,-5.104004,38.846790075302124
1619377466.51868,2.533691,38.86241006851196
1619377466.53431,9.634644,38.878040075302124
1619377466.54993,15.91019,38.89366006851196
1619377466.56556,20.95355,38.909290075302124
1619377466.58118,24.2359,38.92491006851196
1619377466.59681,25.07764,38.940540075302124
1619377466.61244,22.75113,38.956170082092285
1619377466.62806,16.7128,38.971790075302124
1619377466.64369,6.856293,38.987420082092285
1619377466.65931,-6.136749,39.003040075302124
1619377466.67494,-20.80948,39.018670082092285
1619377466.69056,-35.16733,39.034290075302124
1619377466.70619,-47.24518,39.049920082092285
1619377466.72182,-55.7811,39.065550088882446
1619377466.73744,-60.64435,39.081170082092285
1619377466.75307,-62.78677,39.096800088882446
1619377466.76869,-63.69241,39.112420082092285
1619377466.78432,-64.68881,39.128050088882446
1619377466.79994,-66.3663,39.143670082092285
1619377466.81557,-68.48264,39.159300088882446
1619377466.8312,-70.35233,39.17492985725403
1619377466.84682,-71.40546,39.190550088882446
1619377466.86245,-71.57544,39.20617985725403
1619377466.87807,-71.30777,39.221800088882446
1619377466.8937,-71.21701,39.23742985725403
1619377466.90932,-71.72562,39.253050088882446
1619377466.92495,-72.90784,39.26867985725403
1619377466.94058,-74.59216,39.28430986404419
1619377466.9562,-76.55161,39.29992985725403
1619377466.97183,-78.56226,39.31555986404419
1619377466.98745,-80.29361,39.33117985725403
1619377467.00308,-81.26624,39.34680986404419
1619377467.0187,-80.76849,39.36242985725403
1619377467.03433,-78.06479,39.37805986404419
1619377467.04996,-72.71567,39.39368987083435
1619377467.06558,-64.75745,39.40930986404419
1619377467.08121,-54.74661,39.42493987083435
1619377467.09683,-43.54004,39.44055986404419
1619377467.11246,-32.01624,39.45618987083435
1619377467.12808,-20.78525,39.47180986404419
1619377467.14371,-10.1998,39.48743987083435
1619377467.15934,-0.3911133,39.50306987762451
1619377467.17496,8.507904,39.51868987083435
1619377467.19059,16.36255,39.53431987762451
1619377467.20621,23.04889,39.54993987083435
1619377467.22184,28.51224,39.56556987762451
1619377467.23746,32.79547,39.58118987083435
1619377467.25309,35.96582,39.59681987762451
1619377467.26872,38.11795,39.61244988441467
1619377467.28434,39.31372,39.62806987762451
1619377467.29997,39.64322,39.64369988441467
1619377467.31559,39.28104,39.65931987762451
1619377467.33122,38.42633,39.67494988441467
1619377467.34684,37.31805,39.69056987762451
1619377467.36247,36.2142,39.70619988441467
1619377467.3781,35.19434,39.721829891204834
1619377467.39372,34.26361,39.73744988441467
1619377467.40935,33.34363,39.753079891204834
1619377467.42497,32.35449,39.76869988441467
1619377467.4406,31.33057,39.784329891204834
1619377467.45622,30.3707,39.79994988441467
1619377467.47185,29.55661,39.815579891204834
1619377467.48748,28.86771,39.831209897994995
1619377467.5031,28.22977,39.846829891204834
1619377467.51873,27.4165,39.862459897994995
1619377467.53435,26.19833,39.878079891204834
1619377467.54998,24.34433,39.893709897994995
1619377467.5656,21.74084,39.909329891204834
1619377467.58123,18.50491,39.924959897994995
1619377467.59686,14.97296,39.940589904785156
1619377467.61248,11.47424,39.956209897994995
1619377467.62811,8.264832,39.971839904785156
1619377467.64373,5.375793,39.987459897994995
1619377467.65936,2.620483,40.003089904785156
1619377467.67498,-0.2463074,40.018709897994995
1619377467.69061,-3.346802,40.034339904785156
1619377467.70624,-6.576782,40.04996991157532
1619377467.72186,-9.653473,40.065589904785156
1619377467.73749,-12.24841,40.08121991157532
1619377467.75311,-14.31567,40.096839904785156
1619377467.76874,-16.05826,40.11246991157532
1619377467.78436,-17.923,40.128089904785156
1619377467.79999,-20.39536,40.14371991157532
1619377467.81562,-23.79865,40.15934991836548
1619377467.83124,-28.1644,40.17496991157532
1619377467.84687,-33.30289,40.19059991836548
1619377467.86249,-38.79788,40.20621991157532
1619377467.87812,-44.10992,40.22184991836548
1619377467.89375,-48.57492,40.23747992515564
1619377467.90937,-51.39514,40.25309991836548
1619377467.925,-51.84671,40.26872992515564
1619377467.94062,-49.43991,40.28434991836548
1619377467.95625,-44.0986,40.29997992515564
1619377467.97187,-36.24435,40.31559991836548
1619377467.9875,-26.73135,40.33122992515564
1619377468.00313,-16.59442,40.3468599319458
1619377468.01875,-6.758026,40.36247992515564
1619377468.03438,2.200165,40.3781099319458
1619377468.05,10.10751,40.39372992515564
1619377468.06563,17.03909,40.4093599319458
1619377468.08125,23.07175,40.42497992515564
1619377468.09688,28.21817,40.4406099319458
1619377468.11251,32.30524,40.45623993873596
1619377468.12813,35.04749,40.4718599319458
1619377468.14376,36.25317,40.48748993873596
1619377468.15938,35.89273,40.5031099319458
1619377468.17501,34.25137,40.51873993873596
1619377468.19063,31.77609,40.5343599319458
1619377468.20626,29.06177,40.54998993873596
1619377468.22189,26.57169,40.56561994552612
1619377468.23751,24.61218,40.58123993873596
1619377468.25314,23.15573,40.59686994552612
1619377468.26876,21.98123,40.61248993873596
1619377468.28439,20.82187,40.62811994552612
1619377468.30001,19.56839,40.64373993873596
1619377468.31564,18.36841,40.65936994552612
1619377468.33127,17.44748,40.674999952316284
1619377468.34689,17.0018,40.69061994552612
1619377468.36252,16.99966,40.706249952316284
1619377468.37814,17.22229,40.72186994552612
1619377468.39377,17.2565,40.737499952316284
1619377468.40939,16.76608,40.75311994552612
1619377468.42502,15.61371,40.768749952316284
1619377468.44065,13.91153,40.784379959106445
1619377468.45627,11.93008,40.799999952316284
1619377468.4719,9.916779,40.815629959106445
1619377468.48752,7.997833,40.831249952316284
1619377468.50315,6.137726,40.846879959106445
1619377468.51877,4.246948,40.862499952316284
1619377468.5344,2.199768,40.878129959106445
1619377468.55003,-0.08050537,40.893759965896606
1619377468.56565,-2.626007,40.909379959106445
1619377468.58128,-5.428528,40.925009965896606
1619377468.5969,-8.373352,40.940629959106445
1619377468.61253,-11.25015,40.956259965896606
1619377468.62815,-13.82224,40.971879959106445
1619377468.64378,-15.88989,40.987509965896606
1619377468.65941,-17.48288,41.00313997268677
1619377468.67503,-18.80798,41.018759965896606
1619377468.69066,-20.28049,41.03438997268677
1619377468.70628,-22.33237,41.050009965896606
1619377468.72191,-25.27716,41.06563997268677
1619377468.73753,-29.14459,41.081259965896606
1619377468.75316,-33.60223,41.09688997268677
1619377468.76879,-38.06332,41.11251997947693
1619377468.78441,-41.69885,41.12813997268677
1619377468.80004,-43.69943,41.14376997947693
1619377468.81566,-43.38269,41.15938997268677
1619377468.83129,-40.4209,41.17501997947693
1619377468.84691,-34.89673,41.19063997268677
1619377468.86254,-27.33737,41.20626997947693
1619377468.87817,-18.57355,41.22189998626709
1619377468.89379,-9.526794,41.23751997947693
1619377468.90942,-1.028229,41.25314998626709
1619377468.92504,6.36972,41.26876997947693
1619377468.94067,12.38937,41.28439998626709
1619377468.95629,17.00815,41.30001997947693
1619377468.97192,20.35193,41.31564998626709
1619377468.98755,22.6366,41.33127999305725
1619377469.00317,24.082,41.34689998626709
1619377469.0188,24.89572,41.36252999305725
1619377469.03442,25.22903,41.37814998626709
1619377469.05005,25.18124,41.39377999305725
1619377469.06567,24.81006,41.40939998626709
1619377469.0813,24.15714,41.42502999305725
1619377469.09693,23.2887,41.44065999984741
1619377469.11255,22.29178,41.45627999305725
1619377469.12818,21.31174,41.47190999984741
1619377469.1438,20.42099,41.48752999305725
1619377469.15943,19.67838,41.50315999984741
1619377469.17505,19.19708,41.51877999305725
1619377469.19068,19.00293,41.53440999984741
1619377469.20631,19.08185,41.55004000663757
1619377469.22193,19.32434,41.56565999984741
1619377469.23756,19.54114,41.58129000663757
1619377469.25318,19.47006,41.59690999984741
1619377469.26881,18.92572,41.61254000663757
1619377469.28443,17.78848,41.62815999984741
1619377469.30006,16.10303,41.64379000663757
1619377469.31569,14.04559,41.659420013427734
1619377469.33131,11.74518,41.67504000663757
1619377469.34694,9.312805,41.690670013427734
1619377469.36256,6.771576,41.70629000663757
1619377469.37819,4.108734,41.721920013427734
1619377469.39381,1.286255,41.73754000663757
1619377469.40944,-1.692596,41.753170013427734
1619377469.42507,-4.797699,41.768800020217896
1619377469.44069,-7.945129,41.784420013427734
1619377469.45632,-11.00433,41.800050020217896
1619377469.47194,-13.89801,41.815670013427734
1619377469.48757,-16.58841,41.831300020217896
1619377469.50319,-19.11639,41.846920013427734
1619377469.51882,-21.63641,41.862550020217896
1619377469.53445,-24.33749,41.87818002700806
1619377469.55007,-27.37686,41.893800020217896
1619377469.5657,-30.84171,41.90943002700806
1619377469.58132,-34.62714,41.925050020217896
1619377469.59695,-38.37067,41.94068002700806
1619377469.61257,-41.53363,41.956300020217896
1619377469.6282,-43.38062,41.97193002700806
1619377469.64383,-43.18805,41.98756003379822
1619377469.65945,-40.52307,42.00318002700806
1619377469.67508,-35.26187,42.01881003379822
1619377469.6907,-27.78241,42.03443002700806
1619377469.70633,-18.86823,42.05006003379822
1619377469.72195,-9.502899,42.06568002700806
1619377469.73758,-0.5510559,42.08131003379822
1619377469.75321,7.381958,42.09694004058838
1619377469.76883,14.07846,42.11256003379822
1619377469.78446,19.49121,42.12819004058838
1619377469.80008,23.66333,42.14381003379822
1619377469.81571,26.61801,42.15944004058838
1619377469.83133,28.31946,42.17506003379822
1619377469.84696,28.82205,42.19069004058838
1619377469.86259,28.29132,42.20632004737854
1619377469.87821,27.01886,42.22194004058838
1619377469.89384,25.3595,42.23757004737854
1619377469.90946,23.64606,42.25319004058838
1619377469.92509,22.07684,42.26882004737854
1619377469.94071,20.7475,42.28444004058838
1619377469.95634,19.72214,42.30007004737854
1619377469.97197,18.99918,42.3157000541687
1619377469.98759,18.58591,42.33132004737854
1619377470.00322,18.40015,42.3469500541687
1619377470.01884,18.23041,42.36257004737854
1619377470.03447,17.8031,42.3782000541687
1619377470.0501,16.87723,42.39383006095886
1619377470.06572,15.33414,42.4094500541687
1619377470.08135,13.18408,42.42508006095886
1619377470.09697,10.5993,42.4407000541687
1619377470.1126,7.797821,42.45633006095886
1619377470.12822,4.93103,42.4719500541687
1619377470.14385,2.04657,42.48758006095886
1619377470.15948,-0.9486389,42.50321006774902
1619377470.1751,-4.132324,42.51883006095886
1619377470.19073,-7.506332,42.53446006774902
1619377470.20635,-10.88591,42.55008006095886
1619377470.22198,-13.97993,42.56571006774902
1619377470.2376,-16.51891,42.58133006095886
1619377470.25323,-18.38776,42.59696006774902
1619377470.26886,-19.70602,42.612590074539185
1619377470.28448,-20.82008,42.62821006774902
1619377470.30011,-22.10495,42.643840074539185
1619377470.31573,-23.82564,42.65946006774902
1619377470.33136,-26.12347,42.675090074539185
1619377470.34698,-28.88483,42.69071006774902
1619377470.36261,-31.84763,42.706340074539185
1619377470.37824,-34.64677,42.721970081329346
1619377470.39386,-36.80882,42.737590074539185
1619377470.40949,-37.72595,42.753220081329346
1619377470.42511,-36.8148,42.768840074539185
1619377470.44074,-33.66725,42.784470081329346
1619377470.45636,-28.28142,42.800090074539185
1619377470.47199,-21.15572,42.815720081329346
1619377470.48762,-13.13731,42.83135008811951
1619377470.50324,-5.146683,42.846970081329346
1619377470.51887,2.133789,42.86260008811951
1619377470.53449,8.406998,42.878220081329346
1619377470.55012,13.72552,42.89385008811951
1619377470.56574,18.25302,42.909470081329346
1619377470.58137,22.03102,42.92510008811951
1619377470.597,24.86603,42.94072985649109
1619377470.61262,26.48323,42.95635008811951
1619377470.62825,26.7131,42.97197985649109
1619377470.64387,25.72107,42.98760008811951
1619377470.6595,23.94424,43.00322985649109
1619377470.67512,22.06601,43.01885008811951
1619377470.69075,20.6788,43.03447985649109
1619377470.70638,20.06682,43.05010986328125
1619377470.722,20.22993,43.06572985649109
1619377470.73763,20.88612,43.08135986328125
1619377470.75325,21.68958,43.09697985649109
1619377470.76888,22.38271,43.11260986328125
1619377470.7845,22.82214,43.12822985649109
1619377470.80013,22.94516,43.14385986328125
1619377470.81576,22.74467,43.15948987007141
1619377470.83138,22.20328,43.17510986328125
1619377470.84701,21.24054,43.19073987007141
1619377470.86263,19.79483,43.20635986328125
1619377470.87826,17.85284,43.22198987007141
1619377470.89388,15.4395,43.23760986328125
1619377470.90951,12.67999,43.25323987007141
1619377470.92514,9.749237,43.26886987686157
1619377470.94076,6.867569,43.28448987007141
1619377470.95639,4.192307,43.30011987686157
1619377470.97201,1.774521,43.31573987007141
1619377470.98764,-0.4945984,43.33136987686157
1619377471.00326,-2.739975,43.34698987007141
1619377471.01889,-5.092514,43.36261987686157
1619377471.03452,-7.579849,43.37824988365173
1619377471.05014,-10.10786,43.39386987686157
1619377471.06577,-12.53131,43.40949988365173
1619377471.08139,-14.74792,43.42511987686157
1619377471.09702,-16.77669,43.44074988365173
1619377471.11264,-18.76646,43.45636987686157
1619377471.12827,-20.89795,43.47199988365173
1619377471.1439,-23.18741,43.487629890441895
1619377471.15952,-25.41722,43.50324988365173
1619377471.17515,-27.04553,43.518879890441895
1619377471.19077,-27.37311,43.53449988365173
1619377471.2064,-25.7061,43.550129890441895
1619377471.22202,-21.65959,43.56574988365173
1619377471.23765,-15.31662,43.581379890441895
1619377471.25328,-7.256256,43.597009897232056
1619377471.2689,1.583954,43.612629890441895
1619377471.28453,10.24875,43.628259897232056
1619377471.30015,17.98846,43.643879890441895
1619377471.31578,24.47726,43.659509897232056
1619377471.3314,29.71873,43.675129890441895
1619377471.34703,33.89127,43.690759897232056
1619377471.36266,37.11412,43.70638990402222
1619377471.37828,39.36565,43.722009897232056
1619377471.39391,40.50064,43.73763990402222
1619377471.40953,40.47972,43.753259897232056
1619377471.42516,39.44307,43.76888990402222
1619377471.44078,37.7496,43.784509897232056
1619377471.45641,35.96964,43.80013990402222
1619377471.47204,34.62837,43.81576991081238
1619377471.48766,34.03763,43.83138990402222
1619377471.50329,34.30579,43.84701991081238
1619377471.51891,35.23466,43.86263990402222
1619377471.53454,36.46188,43.87826991081238
1619377471.55016,37.67253,43.89388990402222
1619377471.56579,38.69623,43.90951991081238
1619377471.58142,39.45215,43.92514991760254
1619377471.59704,39.99797,43.94076991081238
1619377471.61267,40.25394,43.95639991760254
1619377471.62829,39.98044,43.97201991081238
1619377471.64392,38.93073,43.98764991760254
1619377471.65954,36.97588,44.00326991081238
1619377471.67517,34.36066,44.01889991760254
1619377471.6908,31.64456,44.0345299243927
1619377471.70642,29.56328,44.05014991760254
1619377471.72205,28.5936,44.0657799243927
1619377471.73767,28.74109,44.08139991760254
1619377471.7533,29.38652,44.0970299243927
1619377471.76892,29.535,44.11264991760254
1619377471.78455,28.19226,44.1282799243927
1619377471.80018,24.61304,44.14390993118286
1619377471.8158,18.61472,44.1595299243927
1619377471.83143,10.54822,44.17515993118286
1619377471.84705,1.222565,44.1907799243927
1619377471.86268,-8.270752,44.20640993118286
1619377471.8783,-16.80295,44.2220299243927
1619377471.89393,-23.51413,44.23765993118286
1619377471.90956,-27.9408,44.25328993797302
1619377471.92518,-30.05219,44.26890993118286
1619377471.94081,-30.19952,44.28453993797302
1619377471.95643,-28.81259,44.30015993118286
1619377471.97206,-26.24283,44.31578993797302
1619377471.98768,-22.93866,44.33140993118286
1619377472.00331,-19.45038,44.34703993797302
1619377472.01894,-16.64917,44.362669944763184
1619377472.03456,-15.51318,44.37828993797302
1619377472.05019,-16.69275,44.393919944763184
1619377472.06581,-19.94687,44.40953993797302
1619377472.08144,-24.1127,44.425169944763184
1619377472.09706,-27.35239,44.44078993797302
1619377472.11269,-27.89417,44.456419944763184
1619377472.12832,-24.92755,44.472049951553345
1619377472.14394,-18.78076,44.487669944763184
1619377472.15957,-10.78284,44.503299951553345
1619377472.17519,-2.487793,44.518919944763184
1619377472.19082,4.951019,44.534549951553345
1619377472.20644,11.27448,44.550169944763184
1619377472.22207,16.92535,44.565799951553345
1619377472.2377,22.60718,44.581429958343506
1619377472.25332,28.72357,44.597049951553345
1619377472.26895,35.09332,44.612679958343506
1619377472.28457,41.13702,44.628299951553345
1619377472.3002,46.09769,44.643929958343506
1619377472.31582,49.47577,44.659549951553345
1619377472.33145,50.88678,44.675179958343506
1619377472.34708,49.92322,44.69080996513367
1619377472.3627,45.88464,44.706429958343506
1619377472.37833,37.77148,44.72205996513367
1619377472.39395,24.77591,44.737679958343506
1619377472.40958,6.894623,44.75330996513367
1619377472.4252,-14.57782,44.768929958343506
1619377472.44083,-37.11423,44.78455996513367
1619377472.45646,-57.76294,44.80018997192383
1619377472.47208,-74.14563,44.81580996513367
1619377472.48771,-85.2261,44.83143997192383
1619377472.50333,-91.3862,44.84705996513367
1619377472.51896,-93.9342,44.86268997192383
1619377472.53459,-94.29672,44.87831997871399
1619377472.55021,-93.504,44.89393997192383
1619377472.56584,-92.04709,44.90956997871399
1619377472.58146,-90.19974,44.92518997192383
1619377472.59709,-88.34616,44.94081997871399
1619377472.61271,-87.01819,44.95643997192383
1619377472.62834,-86.75873,44.97206997871399
1619377472.64397,-87.7009,44.98769998550415
1619377472.65959,-89.37741,45.00331997871399
1619377472.67522,-90.65421,45.01894998550415
1619377472.69084,-90.19931,45.03456997871399
1619377472.70647,-86.85602,45.05019998550415
1619377472.72209,-80.0799,45.06581997871399
1619377472.73772,-70.09793,45.08144998550415
1619377472.75335,-57.75381,45.09707999229431
1619377472.76897,-44.32083,45.11269998550415
1619377472.7846,-31.00247,45.12832999229431
1619377472.80022,-18.81738,45.14394998550415
1619377472.81585,-8.214783,45.15957999229431
1619377472.83147,0.6960144,45.17519998550415
1619377472.8471,8.016388,45.19082999229431
1619377472.86273,13.89413,45.20645999908447
1619377472.87835,18.34766,45.22207999229431
1619377472.89398,21.32043,45.23770999908447
1619377472.9096,22.79953,45.25332999229431
1619377472.92523,22.95227,45.26895999908447
1619377472.94085,22.15189,45.28457999229431
1619377472.95648,20.94037,45.30020999908447
1619377472.97211,19.74585,45.315840005874634
1619377472.98773,18.82248,45.33145999908447
1619377473.00336,18.14276,45.347090005874634
1619377473.01898,17.53009,45.36270999908447
1619377473.03461,16.79681,45.378340005874634
1619377473.05023,15.89301,45.39395999908447
1619377473.06586,15.00525,45.409590005874634
1619377473.08149,14.39151,45.425220012664795
1619377473.09711,14.24261,45.440840005874634
1619377473.11274,14.46667,45.456470012664795
1619377473.12836,14.72812,45.472090005874634
1619377473.14399,14.50983,45.487720012664795
1619377473.15961,13.29861,45.503340005874634
1619377473.17524,10.88821,45.518970012664795
1619377473.19087,7.321686,45.534600019454956
1619377473.20649,2.989044,45.550220012664795
1619377473.22212,-1.610413,45.565850019454956
1619377473.23774,-6.039825,45.581470012664795
1619377473.25337,-10.06992,45.597100019454956
1619377473.26899,-13.67542,45.612720012664795
1619377473.28462,-17.04984,45.628350019454956
1619377473.30025,-20.5159,45.64398002624512
1619377473.31587,-24.36407,45.659600019454956
1619377473.3315,-28.86554,45.67523002624512
1619377473.34712,-34.12833,45.690850019454956
1619377473.36275,-40.08749,45.70648002624512
1619377473.37837,-46.31345,45.722100019454956
1619377473.394,-52.07025,45.73773002624512
1619377473.40963,-56.26218,45.75336003303528
1619377473.42525,-57.77966,45.76898002624512
1619377473.44088,-55.80472,45.78461003303528
1619377473.4565,-50.11453,45.80023002624512
1619377473.47213,-41.22504,45.81586003303528
1619377473.48775,-30.20273,45.83148002624512
1619377473.50338,-18.41705,45.84711003303528
1619377473.51901,-6.999542,45.86274003982544
1619377473.53463,3.299957,45.87836003303528
1619377473.55026,12.24368,45.89399003982544
1619377473.56588,19.90259,45.90961003303528
1619377473.58151,26.42496,45.92524003982544
1619377473.59713,31.86485,45.94086003303528
1619377473.61276,36.12619,45.95649003982544
1619377473.62839,39.05453,45.9721200466156
1619377473.64401,40.5643,45.98774003982544
1619377473.65964,40.70247,46.0033700466156
1619377473.67526,39.74667,46.01899003982544
1619377473.69089,38.05208,46.0346200466156
1619377473.70651,36.02036,46.05024003982544
1619377473.72214,33.96078,46.0658700466156
1619377473.73777,32.03876,46.08150005340576
1619377473.75339,30.30507,46.0971200466156
1619377473.76902,28.70486,46.11275005340576
1619377473.78464,27.22739,46.1283700466156
1619377473.80027,25.87006,46.14400005340576
1619377473.81589,24.61809,46.1596200466156
1619377473.83152,23.37152,46.17525005340576
1619377473.84715,21.96664,46.19088006019592
1619377473.86277,20.11166,46.20650005340576
1619377473.8784,17.56883,46.22213006019592
1619377473.89402,14.23094,46.23775005340576
1619377473.90965,10.12323,46.25338006019592
