timestamp,value,norm_ts
1619378373.17745,117.8082,4.908099889755249
1619378373.19308,119.5306,4.92372989654541
1619378373.2087,118.6754,4.939349889755249
1619378373.22433,114.3178,4.95497989654541
1619378373.23995,106.4418,4.970599889755249
1619378373.25558,96.06285,4.98622989654541
1619378373.2712,84.82753,5.001849889755249
1619378373.28683,74.39677,5.01747989654541
1619378373.30246,65.77371,5.033109903335571
1619378373.31808,58.90996,5.04872989654541
1619378373.33371,52.78346,5.064359903335571
1619378373.34933,45.85323,5.07997989654541
1619378373.36496,36.79486,5.095609903335571
1619378373.38058,25.05116,5.11122989654541
1619378373.39621,11.15312,5.126859903335571
1619378373.41184,-3.553467,5.142489910125732
1619378373.42746,-17.48643,5.158109903335571
1619378373.44309,-29.53873,5.173739910125732
1619378373.45871,-39.53062,5.189359903335571
1619378373.47434,-48.31261,5.204989910125732
1619378373.48996,-57.362,5.220609903335571
1619378373.50559,-68.32135,5.236239910125732
1619378373.52122,-82.47023,5.2518699169158936
1619378373.53684,-100.2727,5.267489910125732
1619378373.55247,-121.016,5.2831199169158936
1619378373.56809,-142.5467,5.298739910125732
1619378373.58372,-161.2744,5.3143699169158936
1619378373.59934,-172.7451,5.329989910125732
1619378373.61497,-172.7626,5.3456199169158936
1619378373.6306,-158.8467,5.361249923706055
1619378373.64622,-131.3947,5.3768699169158936
1619378373.66185,-93.88766,5.392499923706055
1619378373.67747,-51.97826,5.4081199169158936
1619378373.6931,-11.71141,5.423749923706055
1619378373.70872,22.26425,5.4393699169158936
1619378373.72435,47.7296,5.454999923706055
1619378373.73998,64.79796,5.470629930496216
1619378373.7556,74.923,5.486249923706055
1619378373.77123,79.75056,5.501879930496216
1619378373.78685,80.35855,5.517499923706055
1619378373.80248,77.29797,5.533129930496216
1619378373.8181,71.08414,5.548749923706055
1619378373.83373,62.73228,5.564379930496216
1619378373.84936,53.87633,5.580009937286377
1619378373.86498,46.42992,5.595629930496216
1619378373.88061,41.94057,5.611259937286377
1619378373.89623,41.02791,5.626879930496216
1619378373.91186,43.25806,5.642509937286377
1619378373.92748,47.39718,5.658129930496216
1619378373.94311,52.03259,5.673759937286377
1619378373.95874,56.18796,5.689389944076538
1619378373.97436,59.59528,5.705009937286377
1619378373.98999,62.56902,5.720639944076538
1619378374.00561,65.53535,5.736259937286377
1619378374.02124,68.51725,5.751889944076538
1619378374.03686,70.88987,5.767509937286377
1619378374.05249,71.5202,5.783139944076538
1619378374.06812,69.26413,5.798769950866699
1619378374.08374,63.5771,5.814389944076538
1619378374.09937,54.8177,5.830019950866699
1619378374.11499,44.25677,5.845639944076538
1619378374.13062,33.52517,5.861269950866699
1619378374.14624,23.97478,5.876889944076538
1619378374.16187,16.09011,5.892519950866699
1619378374.1775,9.301891,5.90814995765686
1619378374.19312,2.287041,5.923769950866699
1619378374.20875,-6.36478,5.93939995765686
1619378374.22437,-17.44257,5.955019950866699
1619378374.24,-30.65664,5.97064995765686
1619378374.25562,-44.73067,5.986269950866699
1619378374.27125,-57.95936,6.00189995765686
1619378374.28688,-68.93274,6.0175299644470215
1619378374.3025,-77.15068,6.03314995765686
1619378374.31813,-83.19521,6.0487799644470215
1619378374.33375,-88.4877,6.06439995765686
1619378374.34938,-94.78307,6.0800299644470215
1619378374.365,-103.7177,6.09564995765686
1619378374.38063,-116.3441,6.1112799644470215
1619378374.39626,-132.7631,6.126909971237183
1619378374.41188,-151.7465,6.1425299644470215
1619378374.42751,-170.4711,6.158159971237183
1619378374.44313,-184.7448,6.1737799644470215
1619378374.45876,-189.892,6.189409971237183
1619378374.47438,-182.159,6.2050299644470215
1619378374.49001,-160.1828,6.220659971237183
1619378374.50564,-125.763,6.236289978027344
1619378374.52126,-83.52595,6.251909971237183
1619378374.53689,-39.47318,6.267539978027344
1619378374.55251,0.8305621,6.283159971237183
1619378374.56814,33.77488,6.298789978027344
1619378374.58376,58.13036,6.314409971237183
1619378374.59939,74.54967,6.330039978027344
1619378374.61502,84.51599,6.345669984817505
1619378374.63064,89.46842,6.361289978027344
1619378374.64627,90.36734,6.376919984817505
1619378374.66189,87.88037,6.392539978027344
1619378374.67752,82.78463,6.408169984817505
1619378374.69314,76.17809,6.423789978027344
1619378374.70877,69.43039,6.439419984817505
1619378374.7244,63.82731,6.455049991607666
1619378374.74002,60.17322,6.470669984817505
1619378374.75565,58.58185,6.486299991607666
1619378374.77127,58.58161,6.501919984817505
1619378374.7869,59.42637,6.517549991607666
1619378374.80252,60.50422,6.533169984817505
1619378374.81815,61.56351,6.548799991607666
1619378374.83378,62.64252,6.564429998397827
1619378374.8494,63.83872,6.580049991607666
1619378374.86503,64.93451,6.595679998397827
1619378374.88065,65.26066,6.611299991607666
1619378374.89628,63.86908,6.626929998397827
1619378374.9119,59.94097,6.642549991607666
1619378374.92753,53.19458,6.658179998397827
1619378374.94316,44.1218,6.673810005187988
1619378374.95878,33.7814,6.689429998397827
1619378374.97441,23.29818,6.705060005187988
1619378374.99003,13.36393,6.720679998397827
1619378375.00566,3.944582,6.736310005187988
1619378375.02128,-5.616764,6.751929998397827
1619378375.03691,-16.15389,6.767560005187988
1619378375.05254,-28.1278,6.783190011978149
1619378375.06816,-41.30415,6.798810005187988
1619378375.08379,-54.77771,6.814440011978149
1619378375.09941,-67.36028,6.830060005187988
1619378375.11504,-78.12141,6.845690011978149
1619378375.13066,-86.79704,6.861310005187988
1619378375.14629,-93.98359,6.876940011978149
1619378375.16192,-101.0123,6.8925700187683105
1619378375.17754,-109.6059,6.908190011978149
1619378375.19317,-121.3355,6.9238200187683105
1619378375.20879,-137.0113,6.939440011978149
1619378375.22442,-155.9935,6.9550700187683105
1619378375.24005,-175.7642,6.970700025558472
1619378375.25567,-192.095,6.9863200187683105
1619378375.2713,-199.9298,7.001950025558472
1619378375.28692,-194.9408,7.0175700187683105
1619378375.30255,-175.1389,7.033200025558472
1619378375.31817,-141.8248,7.0488200187683105
1619378375.3338,-99.418,7.064450025558472
1619378375.34943,-54.05553,7.080080032348633
1619378375.36505,-11.62833,7.095700025558472
1619378375.38068,23.86911,7.111330032348633
1619378375.3963,51.00565,7.126950025558472
1619378375.41193,70.48206,7.142580032348633
1619378375.42755,83.94496,7.158200025558472
1619378375.44318,92.88267,7.173830032348633
1619378375.45881,98.07693,7.189460039138794
1619378375.47443,99.76728,7.205080032348633
1619378375.49006,98.17306,7.220710039138794
1619378375.50568,93.9889,7.236330032348633
1619378375.52131,88.47292,7.251960039138794
1619378375.53693,83.0879,7.267580032348633
1619378375.55256,79.03289,7.283210039138794
1619378375.56819,76.82848,7.298840045928955
1619378375.58381,76.25788,7.314460039138794
1619378375.59944,76.63622,7.330090045928955
1619378375.61506,77.28772,7.345710039138794
1619378375.63069,77.8601,7.361340045928955
1619378375.64631,78.40274,7.376960039138794
1619378375.66194,79.18091,7.392590045928955
1619378375.67757,80.22185,7.408220052719116
1619378375.69319,81.11498,7.423840045928955
1619378375.70882,80.9399,7.439470052719116
1619378375.72444,78.57353,7.455090045928955
1619378375.74007,73.19402,7.470720052719116
1619378375.75569,64.69161,7.486340045928955
1619378375.77132,53.80548,7.501970052719116
1619378375.78695,41.90432,7.517600059509277
1619378375.80257,30.42868,7.533220052719116
1619378375.8182,20.2683,7.548850059509277
1619378375.83382,11.42958,7.564470052719116
1619378375.84945,3.027452,7.580100059509277
1619378375.86507,-6.234227,7.595720052719116
1619378375.8807,-17.34884,7.611350059509277
1619378375.89633,-30.45446,7.6269800662994385
1619378375.91195,-44.66674,7.642600059509277
1619378375.92758,-58.42332,7.6582300662994385
1619378375.9432,-70.15445,7.673850059509277
1619378375.95883,-79.0466,7.6894800662994385
1619378375.97445,-85.34664,7.705100059509277
1619378375.99008,-90.31019,7.7207300662994385
1619378376.00571,-95.75986,7.7363598346710205
1619378376.02133,-103.5201,7.7519800662994385
1619378376.03696,-114.9505,7.7676098346710205
1619378376.05258,-130.4703,7.7832300662994385
1619378376.06821,-149.1603,7.7988598346710205
1619378376.08383,-168.3986,7.8144800662994385
1619378376.09946,-184.007,7.8301098346710205
1619378376.11509,-190.9619,7.845739841461182
1619378376.13071,-184.9274,7.8613598346710205
1619378376.14634,-163.8885,7.876989841461182
1619378376.16196,-129.2032,7.8926098346710205
1619378376.17759,-85.47623,7.908239841461182
1619378376.19321,-39.04658,7.9238598346710205
1619378376.20884,4.098682,7.939489841461182
1619378376.22447,40.04637,7.955119848251343
1619378376.24009,67.5527,7.970739841461182
1619378376.25572,87.42368,7.986369848251343
1619378376.27134,101.2334,8.001989841461182
1619378376.28697,110.2409,8.017619848251343
1619378376.30259,115.0644,8.033239841461182
1619378376.31822,115.9732,8.048869848251343
1619378376.33385,113.5076,8.064499855041504
1619378376.34947,108.7824,8.080119848251343
1619378376.3651,103.2987,8.095749855041504
1619378376.38072,98.46108,8.111369848251343
1619378376.39635,95.12576,8.126999855041504
1619378376.41197,93.44604,8.142619848251343
1619378376.4276,93.00861,8.158249855041504
1619378376.44323,93.26122,8.173879861831665
1619378376.45885,93.77106,8.189499855041504
1619378376.47448,94.40673,8.205129861831665
1619378376.4901,95.22195,8.220749855041504
1619378376.50573,96.23338,8.236379861831665
1619378376.52135,97.215,8.251999855041504
1619378376.53698,97.62536,8.267629861831665
1619378376.55261,96.74542,8.283259868621826
1619378376.56823,93.95023,8.298879861831665
1619378376.58386,89.03018,8.314509868621826
1619378376.59948,82.27338,8.330129861831665
1619378376.61511,74.39513,8.345759868621826
1619378376.63073,66.19969,8.361379861831665
1619378376.64636,58.19378,8.377009868621826
1619378376.66199,50.42489,8.392639875411987
1619378376.67761,42.53466,8.408259868621826
1619378376.69324,34.04407,8.423889875411987
1619378376.70886,24.72496,8.439509868621826
1619378376.72449,14.7949,8.455139875411987
1619378376.74011,4.835472,8.470759868621826
1619378376.75574,-4.49337,8.486389875411987
1619378376.77137,-12.83097,8.502019882202148
1619378376.78699,-20.3656,8.517639875411987
1619378376.80262,-27.74179,8.533269882202148
1619378376.81824,-35.75542,8.548889875411987
1619378376.83387,-44.95725,8.564519882202148
1619378376.84949,-55.30549,8.580139875411987
1619378376.86512,-66.15826,8.595769882202148
1619378376.88075,-76.55121,8.61139988899231
1619378376.89637,-85.64108,8.627019882202148
1619378376.912,-93.11726,8.64264988899231
1619378376.92762,-99.40121,8.658269882202148
1619378376.94325,-105.554,8.67389988899231
1619378376.95887,-112.9877,8.689519882202148
1619378376.9745,-123.1489,8.70514988899231
1619378376.99013,-137.115,8.72077989578247
1619378377.00575,-155.0689,8.73639988899231
1619378377.02138,-175.7719,8.75202989578247
1619378377.037,-196.1204,8.76764988899231
1619378377.05263,-211.4066,8.78327989578247
1619378377.06825,-216.3248,8.79889988899231
1619378377.08388,-206.713,8.81452989578247
1619378377.09951,-181.2961,8.830159902572632
1619378377.11513,-142.5128,8.84577989578247
1619378377.13076,-95.96172,8.861409902572632
1619378377.14638,-48.53136,8.87702989578247
1619378377.16201,-6.186905,8.892659902572632
1619378377.17763,27.68363,8.90827989578247
1619378377.19326,52.56539,8.923909902572632
1619378377.20889,69.90735,8.939539909362793
1619378377.22451,81.6909,8.955159902572632
1619378377.24014,89.31186,8.970789909362793
1619378377.25576,93.29628,8.986409902572632
1619378377.27139,93.73878,9.002039909362793
1619378377.28701,91.00121,9.017659902572632
1619378377.30264,86.08878,9.033289909362793
1619378377.31827,80.58452,9.048919916152954
1619378377.33389,76.10915,9.064539909362793
1619378377.34952,73.75726,9.080169916152954
1619378377.36514,73.71728,9.095789909362793
1619378377.38077,75.27637,9.111419916152954
1619378377.39639,77.25145,9.127039909362793
1619378377.41202,78.51974,9.142669916152954
1619378377.42765,78.56876,9.158299922943115
1619378377.44327,77.64327,9.173919916152954
1619378377.4589,76.55812,9.189549922943115
1619378377.47452,76.17489,9.205169916152954
1619378377.49015,76.88323,9.220799922943115
1619378377.50577,78.32745,9.236419916152954
1619378377.5214,79.49173,9.252049922943115
1619378377.53703,79.20464,9.267679929733276
1619378377.55265,76.65308,9.283299922943115
1619378377.56828,71.79089,9.298929929733276
1619378377.5839,65.34329,9.314549922943115
1619378377.59953,58.48168,9.330179929733276
1619378377.61515,52.27959,9.345799922943115
1619378377.63078,47.23842,9.361429929733276
1619378377.64641,43.11475,9.377059936523438
1619378377.66203,39.06438,9.392679929733276
1619378377.67766,34.07505,9.408309936523438
1619378377.69328,27.49062,9.423929929733276
1619378377.70891,19.34533,9.439559936523438
1619378377.72453,10.36736,9.455179929733276
1619378377.74016,1.710335,9.470809936523438
1619378377.75579,-5.564316,9.486439943313599
1619378377.77141,-10.96149,9.502059936523438
1619378377.78704,-14.81764,9.517689943313599
1619378377.80266,-18.21469,9.533309936523438
1619378377.81829,-22.55288,9.548939943313599
1619378377.83392,-28.9545,9.56456995010376
1619378377.84954,-37.79383,9.580189943313599
1619378377.86517,-48.48439,9.59581995010376
1619378377.88079,-59.74844,9.611439943313599
1619378377.89642,-70.14853,9.62706995010376
1619378377.91204,-78.70697,9.642689943313599
1619378377.92767,-85.29657,9.65831995010376
1619378377.9433,-90.7072,9.673949956893921
1619378377.95892,-96.32715,9.68956995010376
1619378377.97455,-103.7531,9.705199956893921
1619378377.99017,-114.3559,9.72081995010376
1619378378.0058,-128.8582,9.736449956893921
1619378378.02142,-146.8749,9.75206995010376
1619378378.03705,-166.4787,9.767699956893921
1619378378.05268,-184.0286,9.783329963684082
1619378378.0683,-194.6995,9.798949956893921
1619378378.08393,-193.6973,9.814579963684082
1619378378.09955,-177.9691,9.830199956893921
1619378378.11518,-147.5483,9.845829963684082
1619378378.1308,-105.8876,9.861449956893921
1619378378.14643,-58.8718,9.877079963684082
1619378378.16206,-12.94032,9.892709970474243
1619378378.17768,26.85974,9.908329963684082
1619378378.19331,57.96436,9.923959970474243
1619378378.20893,80.27563,9.939579963684082
1619378378.22456,95.1915,9.955209970474243
1619378378.24018,104.4768,9.970829963684082
1619378378.25581,109.4762,9.986459970474243
1619378378.27144,111.025,10.002089977264404
1619378378.28706,109.7673,10.017709970474243
1619378378.30269,106.5331,10.033339977264404
1619378378.31831,102.4485,10.048959970474243
1619378378.33394,98.75756,10.064589977264404
1619378378.34956,96.43109,10.080209970474243
1619378378.36519,95.90398,10.095839977264404
1619378378.38082,96.97251,10.111469984054565
1619378378.39644,98.99109,10.127089977264404
1619378378.41207,101.1988,10.142719984054565
1619378378.42769,103.0786,10.158339977264404
1619378378.44332,104.4935,10.173969984054565
1619378378.45894,105.6172,10.189589977264404
1619378378.47457,106.6295,10.205219984054565
1619378378.4902,107.3978,10.220849990844727
1619378378.50582,107.3323,10.236469984054565
1619378378.52145,105.5938,10.252099990844727
1619378378.53707,101.4519,10.267719984054565
1619378378.5527,94.69364,10.283349990844727
1619378378.56832,85.76829,10.298969984054565
1619378378.58395,75.6059,10.314599990844727
1619378378.59958,65.20513,10.330229997634888
1619378378.6152,55.17011,10.345849990844727
1619378378.63083,45.52298,10.361479997634888
1619378378.64645,35.81031,10.377099990844727
1619378378.66208,25.53569,10.392729997634888
1619378378.6777,14.54568,10.408349990844727
1619378378.69333,3.241577,10.423979997634888
1619378378.70896,-7.588867,10.439610004425049
1619378378.72458,-17.23251,10.455229997634888
1619378378.74021,-25.43782,10.470860004425049
1619378378.75583,-32.64292,10.486479997634888
1619378378.77146,-39.76104,10.502110004425049
1619378378.78708,-47.69886,10.517729997634888
1619378378.80271,-56.88234,10.533360004425049
1619378378.81834,-67.00656,10.54899001121521
1619378378.83396,-77.1776,10.564610004425049
1619378378.84959,-86.35446,10.58024001121521
1619378378.86521,-93.8718,10.595860004425049
1619378378.88084,-99.74892,10.61149001121521
1619378378.89646,-104.7542,10.627110004425049
1619378378.91209,-110.2031,10.64274001121521
1619378378.92772,-117.6109,10.658370018005371
1619378378.94334,-128.3023,10.67399001121521
1619378378.95897,-142.8777,10.689620018005371
1619378378.97459,-160.6394,10.70524001121521
1619378378.99022,-179.1561,10.720870018005371
1619378379.00584,-194.3606,10.73649001121521
1619378379.02147,-201.3984,10.752120018005371
1619378379.0371,-196.1239,10.767750024795532
1619378379.05272,-176.67,10.783370018005371
1619378379.06835,-144.3383,10.799000024795532
1619378379.08397,-103.3245,10.814620018005371
1619378379.0996,-59.35719,10.830250024795532
1619378379.11522,-17.85952,10.845870018005371
1619378379.13085,17.54299,10.861500024795532
1619378379.14648,45.51516,10.877130031585693
1619378379.1621,66.54253,10.892750024795532
1619378379.17773,81.85287,10.908380031585693
1619378379.19335,92.51263,10.924000024795532
1619378379.20898,99.05051,10.939630031585693
1619378379.2246,101.6854,10.955250024795532
1619378379.24023,100.8227,10.970880031585693
1619378379.25586,97.39147,10.986510038375854
1619378379.27148,92.83277,11.002130031585693
1619378379.28711,88.7336,11.017760038375854
1619378379.30273,86.29012,11.033380031585693
1619378379.31836,85.93057,11.049010038375854
1619378379.33398,87.28425,11.064630031585693
1619378379.34961,89.43578,11.080260038375854
1619378379.36524,91.43141,11.095890045166016
1619378379.38086,92.74452,11.111510038375854
1619378379.39649,93.39854,11.127140045166016
1619378379.41211,93.82146,11.142760038375854
1619378379.42774,94.4379,11.158390045166016
1619378379.44336,95.2473,11.174010038375854
1619378379.45899,95.68208,11.189640045166016
1619378379.47462,94.77298,11.205270051956177
1619378379.49024,91.55165,11.220890045166016
1619378379.50587,85.49516,11.236520051956177
1619378379.52149,76.86282,11.252140045166016
1619378379.53712,66.62454,11.267770051956177
1619378379.55274,56.13441,11.283390045166016
1619378379.56837,46.58321,11.299020051956177
1619378379.584,38.48327,11.314650058746338
1619378379.59962,31.46833,11.330270051956177
1619378379.61525,24.46589,11.345900058746338
1619378379.63087,16.12727,11.361520051956177
1619378379.6465,5.518459,11.377150058746338
1619378379.66212,-7.486626,11.392770051956177
1619378379.67775,-22.04385,11.408400058746338
1619378379.69338,-36.69296,11.424030065536499
1619378379.709,-49.88926,11.439650058746338
1619378379.72463,-60.60191,11.455280065536499
1619378379.74025,-68.6322,11.470900058746338
1619378379.75588,-74.64359,11.486530065536499
1619378379.7715,-79.92093,11.502150058746338
1619378379.78713,-86.00461,11.517780065536499
1619378379.80276,-94.30785,11.533409833908081
1619378379.81838,-105.6741,11.549030065536499
1619378379.83401,-119.8983,11.564659833908081
1619378379.84963,-135.273,11.580280065536499
1619378379.86526,-148.5736,11.595909833908081
1619378379.88088,-155.5591,11.611530065536499
1619378379.89651,-152.226,11.627159833908081
1619378379.91214,-136.2695,11.642789840698242
1619378379.92776,-108.1662,11.658409833908081
1619378379.94339,-71.28618,11.674039840698242
1619378379.95901,-30.87539,11.689659833908081
1619378379.97464,7.617464,11.705289840698242
1619378379.99026,40.14501,11.720909833908081
1619378380.00589,64.81374,11.736539840698242
1619378380.02152,81.73383,11.752169847488403
1619378380.03714,92.08116,11.767789840698242
1619378380.05277,97.18439,11.783419847488403
1619378380.06839,98.01102,11.799039840698242
1619378380.08402,95.14044,11.814669847488403
1619378380.09965,89.15986,11.830299854278564
1619378380.11527,80.92188,11.845919847488403
1619378380.1309,71.58307,11.861549854278564
1619378380.14652,62.38777,11.877169847488403
1619378380.16215,54.34397,11.892799854278564
1619378380.17777,48.02444,11.908419847488403
1619378380.1934,43.52556,11.924049854278564
1619378380.20903,40.6425,11.939679861068726
1619378380.22465,38.98255,11.955299854278564
1619378380.24028,38.15287,11.970929861068726
1619378380.2559,37.80308,11.986549854278564
1619378380.27153,37.59747,12.002179861068726
1619378380.28715,37.17023,12.017799854278564
1619378380.30278,36.13773,12.033429861068726
1619378380.31841,34.09518,12.049059867858887
1619378380.33403,30.73044,12.064679861068726
1619378380.34966,25.8285,12.080309867858887
1619378380.36528,19.31215,12.095929861068726
1619378380.38091,11.19515,12.111559867858887
1619378380.39653,1.539663,12.127179861068726
1619378380.41216,-9.529443,12.142809867858887
1619378380.42779,-21.77573,12.158439874649048
1619378380.44341,-34.76584,12.174059867858887
1619378380.45904,-47.9004,12.189689874649048
1619378380.47466,-60.44971,12.205309867858887
1619378380.49029,-71.73807,12.220939874649048
1619378380.50591,-81.37705,12.236559867858887
1619378380.52154,-89.41057,12.252189874649048
1619378380.53717,-96.34928,12.267819881439209
1619378380.55279,-103.1343,12.283439874649048
1619378380.56842,-110.9561,12.299069881439209
1619378380.58404,-121.0515,12.314689874649048
1619378380.59967,-134.2438,12.330319881439209
1619378380.61529,-150.3777,12.345939874649048
1619378380.63092,-167.7368,12.361569881439209
1619378380.64655,-182.8309,12.37719988822937
1619378380.66217,-190.9336,12.392819881439209
1619378380.6778,-187.3856,12.40844988822937
1619378380.69342,-169.3096,12.424069881439209
1619378380.70905,-136.9065,12.43969988822937
1619378380.72467,-93.72455,12.455319881439209
1619378380.7403,-45.61165,12.47094988822937
1619378380.75593,1.16007,12.486579895019531
1619378380.77155,41.75,12.50219988822937
1619378380.78718,73.77635,12.517829895019531
1619378380.8028,97.22697,12.53344988822937
1619378380.81843,113.4272,12.549079895019531
1619378380.83405,123.9196,12.56469988822937
1619378380.84968,129.7443,12.580329895019531
1619378380.86531,131.3645,12.595959901809692
1619378380.88093,129.0965,12.611579895019531
1619378380.89656,123.5137,12.627209901809692
1619378380.91218,115.6577,12.642829895019531
1619378380.92781,106.8766,12.658459901809692
1619378380.94343,98.51589,12.674079895019531
1619378380.95906,91.58595,12.689709901809692
1619378380.97469,86.59422,12.705339908599854
1619378380.99031,83.5741,12.720959901809692
1619378381.00594,82.23224,12.736589908599854
1619378381.02156,82.10016,12.752209901809692
1619378381.03719,82.64938,12.767839908599854
1619378381.05281,83.29058,12.783459901809692
1619378381.06844,83.37709,12.799089908599854
1619378381.08407,82.18846,12.814719915390015
1619378381.09969,79.07772,12.830339908599854
1619378381.11532,73.68025,12.845969915390015
1619378381.13094,66.03772,12.861589908599854
1619378381.14657,56.6078,12.877219915390015
1619378381.16219,46.0539,12.892839908599854
1619378381.17782,35.00209,12.908469915390015
1619378381.19345,23.78888,12.924099922180176
1619378381.20907,12.42381,12.939719915390015
1619378381.2247,0.7719097,12.955349922180176
1619378381.24032,-11.20544,12.970969915390015
1619378381.25595,-23.25805,12.986599922180176
1619378381.27157,-34.85941,13.002219915390015
1619378381.2872,-45.4145,13.017849922180176
1619378381.30283,-54.55692,13.033479928970337
1619378381.31845,-62.38326,13.049099922180176
1619378381.33408,-69.53598,13.064729928970337
1619378381.3497,-77.12194,13.080349922180176
1619378381.36533,-86.48547,13.095979928970337
1619378381.38095,-98.84824,13.111599922180176
1619378381.39658,-114.8178,13.127229928970337
1619378381.41221,-133.76,13.142859935760498
1619378381.42783,-153.3475,13.158479928970337
1619378381.44346,-169.6425,13.174109935760498
1619378381.45908,-177.8657,13.189729928970337
1619378381.47471,-173.8845,13.205359935760498
1619378381.49033,-155.7744,13.220979928970337
1619378381.50596,-124.8068,13.236609935760498
1619378381.52159,-85.25399,13.25223994255066
1619378381.53721,-43.05976,13.267859935760498
1619378381.55284,-3.960876,13.28348994255066
1619378381.56846,28.15809,13.299109935760498
1619378381.58409,51.9118,13.31473994255066
1619378381.59971,67.96449,13.330359935760498
1619378381.61534,77.94614,13.34598994255066
1619378381.63097,83.35096,13.36161994934082
1619378381.64659,85.00025,13.37723994255066
1619378381.66222,83.1743,13.39286994934082
1619378381.67784,78.09139,13.40848994255066
1619378381.69347,70.39751,13.42411994934082
1619378381.70909,61.26782,13.43973994255066
1619378381.72472,52.19323,13.45536994934082
1619378381.74035,44.49038,13.470999956130981
1619378381.75597,38.94063,13.48661994934082
1619378381.7716,35.64065,13.502249956130981
1619378381.78722,34.14977,13.51786994934082
1619378381.80285,33.83408,13.533499956130981
1619378381.81847,34.22723,13.54911994934082
1619378381.8341,35.18332,13.564749956130981
1619378381.84973,36.86061,13.580379962921143
1619378381.86535,39.42504,13.595999956130981
1619378381.88098,42.73536,13.611629962921143
1619378381.8966,46.15376,13.627249956130981
1619378381.91223,48.60045,13.642879962921143
1619378381.92785,48.8937,13.658499956130981
1619378381.94348,46.17765,13.674129962921143
1619378381.95911,40.3223,13.689759969711304
1619378381.97473,32.02421,13.705379962921143
1619378381.99036,22.57293,13.721009969711304
1619378382.00598,13.44442,13.736629962921143
1619378382.02161,5.738716,13.752259969711304
1619378382.03723,-0.1832523,13.767879962921143
1619378382.05286,-4.784321,13.783509969711304
1619378382.06849,-9.119093,13.799139976501465
1619378382.08411,-14.37693,13.814759969711304
1619378382.09974,-21.36889,13.830389976501465
1619378382.11536,-30.12611,13.846009969711304
1619378382.13099,-39.8868,13.861639976501465
1619378382.14661,-49.35466,13.877259969711304
1619378382.16224,-57.26115,13.892889976501465
1619378382.17787,-62.88637,13.908519983291626
1619378382.19349,-66.41862,13.924139976501465
1619378382.20912,-68.90734,13.939769983291626
1619378382.22474,-71.94769,13.955389976501465
1619378382.24037,-77.26176,13.971019983291626
1619378382.25599,-86.29608,13.986639976501465
1619378382.27162,-99.78938,14.002269983291626
1619378382.28725,-117.3242,14.017899990081787
1619378382.30287,-136.835,14.033519983291626
1619378382.3185,-154.456,14.049149990081787
1619378382.33412,-165.0573,14.064769983291626
1619378382.34975,-163.5508,14.080399990081787
1619378382.36538,-146.697,14.096029996871948
1619378382.381,-114.5085,14.111649990081787
1619378382.39663,-70.62479,14.127279996871948
1619378382.41225,-21.24843,14.142899990081787
1619378382.42788,26.83496,14.158529996871948
1619378382.4435,68.2988,14.174149990081787
1619378382.45913,100.3886,14.189779996871948
1619378382.47476,122.9029,14.20541000366211
1619378382.49038,137.1455,14.221029996871948
1619378382.50601,144.8339,14.23666000366211
1619378382.52163,147.294,14.252279996871948
1619378382.53726,145.3823,14.26791000366211
1619378382.55288,139.7705,14.283529996871948
1619378382.56851,131.2906,14.29916000366211
1619378382.58414,121.0431,14.31479001045227
1619378382.59976,110.2422,14.33041000366211
1619378382.61539,99.99402,14.34604001045227
1619378382.63101,91.11037,14.36166000366211
1619378382.64664,83.99469,14.37729001045227
1619378382.66226,78.68344,14.39291000366211
1619378382.67789,75.00421,14.40854001045227
1619378382.69352,72.69952,14.424170017242432
1619378382.70914,71.57281,14.43979001045227
1619378382.72477,71.47473,14.455420017242432
1619378382.74039,72.17867,14.47104001045227
1619378382.75602,73.24835,14.486670017242432
1619378382.77164,73.99964,14.50229001045227
1619378382.78727,73.58164,14.517920017242432
1619378382.8029,71.3136,14.533550024032593
1619378382.81852,66.93842,14.549170017242432
1619378382.83415,60.71539,14.564800024032593
1619378382.84977,53.27411,14.580420017242432
1619378382.8654,45.29015,14.596050024032593
1619378382.88102,37.17788,14.611670017242432
1619378382.89665,28.91896,14.627300024032593
1619378382.91228,20.25365,14.642930030822754
1619378382.9279,10.93673,14.658550024032593
1619378382.94353,1.049181,14.674180030822754
1619378382.95915,-8.931448,14.689800024032593
1619378382.97478,-18.27231,14.705430030822754
1619378382.9904,-26.39861,14.721050024032593
1619378383.00603,-33.17168,14.736680030822754
1619378383.02166,-39.07102,14.752310037612915
1619378383.03728,-44.98279,14.767930030822754
1619378383.05291,-51.78358,14.783560037612915
1619378383.06853,-59.89904,14.799180030822754
1619378383.08416,-69.05006,14.814810037612915
1619378383.09978,-78.38551,14.830430030822754
1619378383.11541,-86.87738,14.846060037612915
1619378383.13104,-93.86338,14.861690044403076
1619378383.14666,-99.39737,14.877310037612915
1619378383.16229,-104.3125,14.892940044403076
1619378383.17791,-110.0404,14.908560037612915
1619378383.19354,-118.2142,14.924190044403076
1619378383.20916,-130.1854,14.939810037612915
1619378383.22479,-146.4228,14.955440044403076
1619378383.24042,-165.8989,14.971070051193237
1619378383.25604,-185.6585,14.986690044403076
1619378383.27167,-200.9988,15.002320051193237
1619378383.28729,-206.5101,15.017940044403076
1619378383.30292,-197.7534,15.033570051193237
1619378383.31854,-173.0052,15.049190044403076
1619378383.33417,-134.1781,15.064820051193237
1619378383.3498,-86.45479,15.080450057983398
1619378383.36542,-36.60007,15.096070051193237
1619378383.38105,9.15661,15.111700057983398
1619378383.39667,46.8102,15.127320051193237
1619378383.4123,75.09373,15.142950057983398
1619378383.42792,94.84206,15.158570051193237
1619378383.44355,107.7873,15.174200057983398
1619378383.45918,115.4785,15.18983006477356
1619378383.4748,118.9152,15.205450057983398
1619378383.49043,118.7315,15.22108006477356
1619378383.50605,115.6563,15.236700057983398
1619378383.52168,110.7912,15.25233006477356
1619378383.5373,105.498,15.267950057983398
1619378383.55293,101.0545,15.28358006477356
1619378383.56856,98.26067,15.299209833145142
1619378383.58418,97.28166,15.31483006477356
1619378383.59981,97.72404,15.330459833145142
1619378383.61543,98.99431,15.34608006477356
1619378383.63106,100.6395,15.361709833145142
1619378383.64668,102.5735,15.37733006477356
1619378383.66231,105.0009,15.392959833145142
1619378383.67794,108.1458,15.408589839935303
1619378383.69356,111.914,15.424209833145142
1619378383.70919,115.6963,15.439839839935303
1619378383.72481,118.4762,15.455459833145142
1619378383.74044,119.1521,15.471089839935303
1619378383.75606,117.0077,15.486709833145142
1619378383.77169,112.0279,15.502339839935303
1619378383.78732,104.9457,15.517969846725464
1619378383.80294,96.97121,15.533589839935303
1619378383.81857,89.30258,15.549219846725464
1619378383.83419,82.58928,15.564839839935303
1619378383.84982,76.69405,15.580469846725464
1619378383.86544,70.78005,15.596089839935303
1619378383.88107,63.76477,15.611719846725464
1619378383.8967,54.91862,15.627349853515625
1619378383.91232,44.28421,15.642969846725464
1619378383.92795,32.73699,15.658599853515625
1619378383.94357,21.57288,15.674219846725464
1619378383.9592,11.90538,15.689849853515625
1619378383.97482,4.10804,15.705469846725464
1619378383.99045,-2.397919,15.721099853515625
1619378384.00608,-8.878464,15.736729860305786
1619378384.0217,-16.67776,15.752349853515625
1619378384.03733,-26.61109,15.767979860305786
1619378384.05295,-38.59247,15.783599853515625
1619378384.06858,-51.70679,15.799229860305786
1619378384.0842,-64.68484,15.814849853515625
1619378384.09983,-76.45357,15.830479860305786
1619378384.11546,-86.57167,15.846109867095947
1619378384.13108,-95.39832,15.861729860305786
1619378384.14671,-103.8349,15.877359867095947
1619378384.16233,-113.0977,15.892979860305786
1619378384.17796,-124.3878,15.908609867095947
1619378384.19358,-138.6079,15.924229860305786
1619378384.20921,-156.0216,15.939859867095947
1619378384.22484,-175.7168,15.955489873886108
1619378384.24046,-195.1939,15.971109867095947
1619378384.25609,-210.3412,15.986739873886108
1619378384.27171,-216.3079,16.002359867095947
1619378384.28734,-209.0423,16.01798987388611
1619378384.30296,-186.9993,16.033609867095947
1619378384.31859,-152.0992,16.04923987388611
1619378384.33422,-109.3931,16.06486988067627
1619378384.34984,-65.38983,16.08048987388611
1619378384.36547,-25.91626,16.09611988067627
1619378384.38109,5.541214,16.11173987388611
1619378384.39672,28.29422,16.12736988067627
1619378384.41234,43.65242,16.14298987388611
1619378384.42797,53.6266,16.15861988067627
1619378384.4436,59.75888,16.17424988746643
1619378384.45922,62.81752,16.18986988067627
1619378384.47485,63.07243,16.20549988746643
1619378384.49047,60.90569,16.22111988067627
1619378384.5061,57.18652,16.23674988746643
1619378384.52172,53.19334,16.25236988067627
1619378384.53735,50.23341,16.26799988746643
1619378384.55298,49.18594,16.283629894256592
1619378384.5686,50.24666,16.29924988746643
1619378384.58423,52.94937,16.314879894256592
1619378384.59985,56.55693,16.33049988746643
1619378384.61548,60.4173,16.346129894256592
1619378384.6311,64.22247,16.36174988746643
1619378384.64673,68.03299,16.377379894256592
1619378384.66236,71.9528,16.393009901046753
1619378384.67798,75.8373,16.408629894256592
1619378384.69361,79.12775,16.424259901046753
1619378384.70923,80.96671,16.439879894256592
1619378384.72486,80.61008,16.455509901046753
1619378384.74048,77.8194,16.471129894256592
1619378384.75611,73.02692,16.486759901046753
1619378384.77174,67.13019,16.502389907836914
1619378384.78736,61.05869,16.518009901046753
1619378384.80299,55.33109,16.533639907836914
1619378384.81861,49.90677,16.549259901046753
1619378384.83424,44.31818,16.564889907836914
1619378384.84986,38.02939,16.580509901046753
1619378384.86549,30.76819,16.596139907836914
1619378384.88112,22.67676,16.611769914627075
1619378384.89674,14.23694,16.627389907836914
1619378384.91237,6.000122,16.643019914627075
1619378384.92799,-1.707581,16.658639907836914
1619378384.94362,-8.941711,16.674269914627075
1619378384.95925,-16.11646,16.689899921417236
1619378384.97487,-23.74707,16.705519914627075
1619378384.9905,-32.15302,16.721149921417236
1619378385.00612,-41.2482,16.736769914627075
1619378385.02175,-50.47824,16.752399921417236
1619378385.03737,-59.095,16.768019914627075
1619378385.053,-66.47455,16.783649921417236
1619378385.06863,-72.49353,16.799279928207397
1619378385.08425,-77.63995,16.814899921417236
1619378385.09988,-82.94189,16.830529928207397
1619378385.1155,-89.65082,16.846149921417236
1619378385.13113,-98.92831,16.861779928207397
1619378385.14675,-111.4439,16.877399921417236
1619378385.16238,-126.9183,16.893029928207397
1619378385.17801,-143.787,16.90865993499756
1619378385.19363,-159.0382,16.924279928207397
1619378385.20926,-168.6562,16.93990993499756
1619378385.22488,-168.6192,16.955529928207397
1619378385.24051,-156.3152,16.97115993499756
1619378385.25613,-131.7123,16.986779928207397
1619378385.27176,-97.65848,17.00240993499756
1619378385.28739,-59.13971,17.01803994178772
1619378385.30301,-21.65265,17.03365993499756
1619378385.31864,10.47598,17.04928994178772
1619378385.33426,35.13531,17.06490993499756
1619378385.34989,52.41922,17.08053994178772
1619378385.36551,63.77008,17.09615993499756
1619378385.38114,70.86111,17.11178994178772
1619378385.39677,74.83322,17.12741994857788
1619378385.41239,76.1532,17.14303994178772
1619378385.42802,74.97144,17.15866994857788
1619378385.44364,71.62115,17.17428994178772
1619378385.45927,66.84671,17.18991994857788
1619378385.47489,61.75504,17.20553994178772
1619378385.49052,57.46494,17.22116994857788
1619378385.50615,54.77258,17.236799955368042
1619378385.52177,53.90961,17.25241994857788
1619378385.5374,54.5993,17.268049955368042
1619378385.55302,56.29297,17.28366994857788
1619378385.56865,58.42822,17.299299955368042
1619378385.58427,60.65005,17.31491994857788
1619378385.5999,62.81458,17.330549955368042
1619378385.61553,64.83759,17.346179962158203
1619378385.63115,66.52921,17.361799955368042
1619378385.64678,67.50418,17.377429962158203
1619378385.6624,67.31259,17.393049955368042
1619378385.67803,65.58502,17.408679962158203
1619378385.69365,62.22849,17.424299955368042
1619378385.70928,57.44946,17.439929962158203
1619378385.72491,51.68066,17.455559968948364
1619378385.74053,45.33725,17.471179962158203
1619378385.75616,38.75629,17.486809968948364
1619378385.77178,32.04489,17.502429962158203
1619378385.78741,25.17673,17.518059968948364
1619378385.80303,18.08701,17.533679962158203
1619378385.81866,10.78583,17.549309968948364
1619378385.83429,3.402893,17.564939975738525
1619378385.84991,-3.913971,17.580559968948364
1619378385.86554,-11.0947,17.596189975738525
1619378385.88116,-18.20993,17.611809968948364
1619378385.89679,-25.46249,17.627439975738525
1619378385.91241,-33.04303,17.643059968948364
1619378385.92804,-40.95486,17.658689975738525
1619378385.94367,-48.89877,17.674319982528687
1619378385.95929,-56.35617,17.689939975738525
1619378385.97492,-62.79532,17.705569982528687
1619378385.99054,-67.95703,17.721189975738525
1619378386.00617,-72.0755,17.736819982528687
1619378386.02179,-75.91632,17.752439975738525
1619378386.03742,-80.63293,17.768069982528687
1619378386.05305,-87.53574,17.783699989318848
1619378386.06867,-97.64291,17.799319982528687
1619378386.0843,-111.2084,17.814949989318848
1619378386.09992,-127.1795,17.830569982528687
1619378386.11555,-142.9369,17.846199989318848
1619378386.13117,-154.5829,17.861819982528687
1619378386.1468,-157.9106,17.877449989318848
1619378386.16243,-149.7808,17.89307999610901
1619378386.17805,-129.419,17.908699989318848
1619378386.19368,-98.94839,17.92432999610901
1619378386.2093,-62.81018,17.939949989318848
1619378386.22493,-26.33191,17.95557999610901
1619378386.24055,5.949738,17.971199989318848
1619378386.25618,31.47305,17.98682999610901
1619378386.27181,49.78616,18.00246000289917
1619378386.28743,61.89993,18.01807999610901
1619378386.30306,69.24667,18.03371000289917
1619378386.31868,72.89587,18.04932999610901
1619378386.33431,73.40314,18.06496000289917
1619378386.34993,71.08047,18.08057999610901
1619378386.36556,66.45468,18.09621000289917
1619378386.38119,60.4938,18.11184000968933
1619378386.39681,54.52066,18.12746000289917
1619378386.41244,49.78372,18.14309000968933
1619378386.42806,47.0618,18.15871000289917
1619378386.44369,46.45581,18.17434000968933
1619378386.45931,47.46631,18.18996000289917
1619378386.47494,49.33466,18.20559000968933
1619378386.49057,51.39368,18.221220016479492
1619378386.50619,53.25381,18.23684000968933
1619378386.52182,54.78189,18.252470016479492
1619378386.53744,55.94611,18.26809000968933
1619378386.55307,56.55377,18.283720016479492
1619378386.56869,56.23804,18.29934000968933
1619378386.58432,54.52713,18.314970016479492
1619378386.59995,51.11169,18.330600023269653
1619378386.61557,46.05026,18.346220016479492
1619378386.6312,39.75464,18.361850023269653
1619378386.64682,32.83752,18.377470016479492
1619378386.66245,25.85764,18.393100023269653
1619378386.67807,19.1441,18.408720016479492
1619378386.6937,12.74097,18.424350023269653
1619378386.70933,6.574524,18.439980030059814
1619378386.72495,0.6014099,18.455600023269653
1619378386.74058,-5.128815,18.471230030059814
1619378386.7562,-10.52484,18.486850023269653
1619378386.77183,-15.56659,18.502480030059814
1619378386.78745,-20.41666,18.518100023269653
1619378386.80308,-25.37579,18.533730030059814
1619378386.81871,-30.74191,18.549360036849976
1619378386.83433,-36.63708,18.564980030059814
1619378386.84996,-42.91553,18.580610036849976
1619378386.86558,-49.23981,18.596230030059814
1619378386.88121,-55.216,18.611860036849976
1619378386.89683,-60.56409,18.627480030059814
1619378386.91246,-65.17459,18.643110036849976
1619378386.92809,-69.14304,18.658740043640137
1619378386.94371,-72.7204,18.674360036849976
1619378386.95934,-76.35236,18.689990043640137
1619378386.97496,-80.62344,18.705610036849976
1619378386.99059,-86.11893,18.721240043640137
1619378387.00621,-93.05045,18.736860036849976
1619378387.02184,-100.7843,18.752490043640137
1619378387.03747,-107.5511,18.768120050430298
1619378387.05309,-110.6523,18.783740043640137
1619378387.06872,-107.2077,18.799370050430298
1619378387.08434,-95.25656,18.814990043640137
1619378387.09997,-74.70901,18.830620050430298
1619378387.11559,-47.59103,18.846240043640137
1619378387.13122,-17.46863,18.861870050430298
1619378387.14685,11.71881,18.87750005722046
1619378387.16247,36.85861,18.893120050430298
1619378387.1781,56.30475,18.90875005722046
1619378387.19372,69.88257,18.924370050430298
1619378387.20935,78.23743,18.94000005722046
1619378387.22498,82.18643,18.95563006401062
1619378387.2406,82.29184,18.97125005722046
1619378387.25623,78.82269,18.98688006401062
1619378387.27185,72.03409,19.00250005722046
1619378387.28748,62.43436,19.01813006401062
1619378387.3031,50.99258,19.03375005722046
1619378387.31873,39.02042,19.04938006401062
1619378387.33436,27.93091,19.065009832382202
1619378387.34998,18.90326,19.08063006401062
1619378387.36561,12.63998,19.096259832382202
1619378387.38123,9.303741,19.11188006401062
1619378387.39686,8.641785,19.127509832382202
1619378387.41248,10.34509,19.14313006401062
1619378387.42811,14.26065,19.158759832382202
1619378387.44374,20.41064,19.174389839172363
1619378387.45936,28.74658,19.190009832382202
1619378387.47499,38.73169,19.205639839172363
1619378387.49061,49.08328,19.221259832382202
1619378387.50624,57.8291,19.236889839172363
1619378387.52186,62.79498,19.252509832382202
1619378387.53749,62.18939,19.268139839172363
1619378387.55312,55.23911,19.283769845962524
1619378387.56874,42.36526,19.299389839172363
1619378387.58437,25.03253,19.315019845962524
1619378387.59999,5.281769,19.330639839172363
1619378387.61562,-14.7941,19.346269845962524
1619378387.63124,-33.45764,19.361889839172363
1619378387.64687,-49.44861,19.377519845962524
1619378387.6625,-61.89532,19.393149852752686
1619378387.67812,-70.16989,19.408769845962524
1619378387.69375,-73.62701,19.424399852752686
1619378387.70937,-71.61157,19.440019845962524
1619378387.725,-63.5899,19.455649852752686
1619378387.74062,-49.49435,19.471269845962524
1619378387.75625,-30.05408,19.486899852752686
1619378387.77188,-6.951447,19.502529859542847
1619378387.7875,17.44476,19.518149852752686
1619378387.80313,40.78369,19.533779859542847
1619378387.81875,61.44446,19.549399852752686
1619378387.83438,79.11981,19.565029859542847
1619378387.85,94.71158,19.580649852752686
1619378387.86563,109.8375,19.596279859542847
1619378387.88126,125.9771,19.611909866333008
1619378387.89688,143.8804,19.627529859542847
1619378387.91251,163.3152,19.643159866333008
1619378387.92813,183.3117,19.658779859542847
1619378387.94376,202.5669,19.674409866333008
1619378387.95938,219.6587,19.690029859542847
1619378387.97501,233.1548,19.705659866333008
1619378387.99064,241.5126,19.72128987312317
1619378388.00626,243.2099,19.736909866333008
1619378388.02189,237.1166,19.75253987312317
1619378388.03751,223.0121,19.768159866333008
1619378388.05314,201.8953,19.78378987312317
1619378388.06876,175.8397,19.799409866333008
1619378388.08439,147.3808,19.81503987312317
1619378388.10002,118.6335,19.83066987991333
1619378388.11564,90.70636,19.84628987312317
1619378388.13127,63.49707,19.86191987991333
1619378388.14689,36.13861,19.87753987312317
1619378388.16252,7.702393,19.89316987991333
1619378388.17814,-22.05389,19.90878987312317
1619378388.19377,-52.33875,19.92441987991333
1619378388.2094,-81.40265,19.94004988670349
1619378388.22502,-107.0104,19.95566987991333
1619378388.24065,-127.096,19.97129988670349
1619378388.25627,-140.3412,19.98691987991333
1619378388.2719,-146.5011,20.00254988670349
1619378388.28752,-146.3337,20.01816987991333
1619378388.30315,-141.291,20.03379988670349
1619378388.31878,-133.063,20.049429893493652
1619378388.3344,-123.191,20.06504988670349
1619378388.35003,-112.9031,20.080679893493652
1619378388.36565,-103.0884,20.09629988670349
1619378388.38128,-94.35742,20.111929893493652
1619378388.3969,-87.065,20.12754988670349
1619378388.41253,-81.24457,20.143179893493652
1619378388.42816,-76.53943,20.158809900283813
1619378388.44378,-72.23511,20.174429893493652
1619378388.45941,-67.45709,20.190059900283813
1619378388.47503,-61.56653,20.205679893493652
1619378388.49066,-54.42078,20.221309900283813
1619378388.50628,-46.53424,20.236929893493652
1619378388.52191,-38.89343,20.252559900283813
1619378388.53754,-32.57062,20.268189907073975
1619378388.55316,-28.29181,20.283809900283813
1619378388.56879,-26.23529,20.299439907073975
1619378388.58441,-26.01025,20.315059900283813
1619378388.60004,-26.91705,20.330689907073975
1619378388.61566,-28.33136,20.346309900283813
1619378388.63129,-29.91724,20.361939907073975
1619378388.64692,-31.7677,20.377569913864136
1619378388.66254,-34.28986,20.393189907073975
1619378388.67817,-38.06061,20.408819913864136
1619378388.69379,-43.52502,20.424439907073975
1619378388.70942,-50.83984,20.440069913864136
1619378388.72504,-59.58649,20.455689907073975
1619378388.74067,-68.60461,20.471319913864136
1619378388.7563,-75.95209,20.486949920654297
1619378388.77192,-79.12366,20.502569913864136
1619378388.78755,-75.65332,20.518199920654297
1619378388.80317,-63.91309,20.533819913864136
1619378388.8188,-43.82556,20.549449920654297
1619378388.83442,-17.11157,20.565069913864136
1619378388.85005,13.05646,20.580699920654297
1619378388.86568,42.96246,20.596329927444458
1619378388.8813,69.41217,20.611949920654297
1619378388.89693,90.40277,20.627579927444458
1619378388.91255,105.2271,20.643199920654297
1619378388.92818,114.0239,20.658829927444458
1619378388.9438,117.1519,20.674449920654297
1619378388.95943,114.8577,20.690079927444458
1619378388.97506,107.3397,20.70570993423462
1619378388.99068,95.15326,20.721329927444458
1619378389.00631,79.55194,20.73695993423462
1619378389.02193,62.37799,20.752579927444458
1619378389.03756,45.64001,20.76820993423462
1619378389.05318,30.85291,20.783829927444458
1619378389.06881,18.57007,20.79945993423462
1619378389.08444,8.393433,20.81508994102478
1619378389.10006,-0.5604248,20.83070993423462
1619378389.11569,-9.120605,20.84633994102478
1619378389.13131,-17.59741,20.86195993423462
1619378389.14694,-25.7561,20.87758994102478
1619378389.16256,-33.12292,20.89320993423462
1619378389.17819,-39.448,20.90883994102478
1619378389.19382,-44.91089,20.92446994781494
1619378389.20944,-50.11963,20.94008994102478
1619378389.22507,-55.83691,20.95571994781494
1619378389.24069,-62.55786,20.97133994102478
1619378389.25632,-70.30725,20.98696994781494
1619378389.27194,-78.61499,21.00258994102478
1619378389.28757,-86.75134,21.01821994781494
1619378389.3032,-94.07251,21.033849954605103
1619378389.31882,-100.3336,21.04946994781494
1619378389.33445,-105.74,21.065099954605103
1619378389.35007,-110.8823,21.08071994781494
1619378389.3657,-116.3229,21.096349954605103
1619378389.38133,-122.2703,21.111979961395264
1619378389.39695,-128.3032,21.127599954605103
1619378389.41258,-133.4709,21.143229961395264
1619378389.4282,-136.6646,21.158849954605103
1619378389.44383,-137.1335,21.174479961395264
1619378389.45945,-134.9341,21.190099954605103
1619378389.47508,-131.001,21.205729961395264
1619378389.49071,-126.9318,21.221359968185425
1619378389.50633,-124.4861,21.236979961395264
1619378389.52196,-125.1388,21.252609968185425
1619378389.53758,-129.6974,21.268229961395264
1619378389.55321,-138.0132,21.283859968185425
1619378389.56883,-148.7426,21.299479961395264
1619378389.58446,-159.1781,21.315109968185425
1619378389.60009,-165.4619,21.330739974975586
1619378389.61571,-163.3658,21.346359968185425
1619378389.63134,-149.5774,21.361989974975586
1619378389.64696,-123.031,21.377609968185425
1619378389.66259,-85.70044,21.393239974975586
1619378389.67821,-42.20361,21.408859968185425
1619378389.69384,1.59082,21.424489974975586
1619378389.70947,40.52209,21.440119981765747
1619378389.72509,71.62476,21.455739974975586
1619378389.74072,94.54272,21.471369981765747
1619378389.75634,110.8823,21.486989974975586
1619378389.77197,122.83,21.502619981765747
1619378389.78759,131.979,21.518239974975586
1619378389.80322,138.8137,21.533869981765747
1619378389.81885,142.9668,21.549499988555908
1619378389.83447,143.8739,21.565119981765747
1619378389.8501,141.4417,21.580749988555908
1619378389.86572,136.2277,21.596369981765747
1619378389.88135,129.3081,21.611999988555908
1619378389.89697,121.8664,21.627619981765747
1619378389.9126,114.8154,21.643249988555908
1619378389.92823,108.6266,21.65887999534607
1619378389.94385,103.3138,21.674499988555908
1619378389.95948,98.64459,21.69012999534607
1619378389.9751,94.29938,21.705749988555908
1619378389.99073,90.0141,21.72137999534607
1619378390.00635,85.56683,21.736999988555908
1619378390.02198,80.74713,21.75262999534607
1619378390.03761,75.22614,21.76826000213623
1619378390.05323,68.59558,21.78387999534607
1619378390.06886,60.39624,21.79951000213623
1619378390.08448,50.3255,21.81512999534607
1619378390.10011,38.40363,21.83076000213623
1619378390.11573,25.0498,21.84637999534607
1619378390.13136,11.07214,21.86201000213623
1619378390.14699,-2.543335,21.87764000892639
1619378390.16261,-14.9173,21.89326000213623
1619378390.17824,-25.49664,21.90889000892639
1619378390.19386,-34.1311,21.92451000213623
1619378390.20949,-41.07501,21.94014000892639
1619378390.22511,-46.7735,21.95576000213623
1619378390.24074,-51.76251,21.97139000892639
1619378390.25637,-56.45874,21.987020015716553
1619378390.27199,-61.10193,22.00264000892639
1619378390.28762,-65.69543,22.018270015716553
1619378390.30324,-70.0108,22.03389000892639
1619378390.31887,-73.6543,22.049520015716553
1619378390.33449,-76.21564,22.06514000892639
1619378390.35012,-77.47498,22.080770015716553
1619378390.36575,-77.56244,22.096400022506714
1619378390.38137,-77.03186,22.112020015716553
1619378390.397,-76.83026,22.127650022506714
1619378390.41262,-78.0766,22.143270015716553
1619378390.42825,-81.79083,22.158900022506714
1619378390.44387,-88.66016,22.174520015716553
1619378390.4595,-98.78271,22.190150022506714
1619378390.47513,-111.4248,22.205780029296875
1619378390.49075,-124.8519,22.221400022506714
1619378390.50638,-136.3392,22.237030029296875
1619378390.522,-142.56,22.252650022506714
1619378390.53763,-140.3945,22.268280029296875
1619378390.55325,-127.9482,22.283900022506714
1619378390.56888,-105.3216,22.299530029296875
1619378390.58451,-74.86499,22.315160036087036
1619378390.60013,-40.54108,22.330780029296875
1619378390.61576,-6.80188,22.346410036087036
1619378390.63138,22.73773,22.362030029296875
1619378390.64701,46.16559,22.377660036087036
1619378390.66263,63.34094,22.393280029296875
1619378390.67826,75.30133,22.408910036087036
1619378390.69389,83.38422,22.424540042877197
1619378390.70951,88.51801,22.440160036087036
1619378390.72514,91.02625,22.455790042877197
1619378390.74076,90.9599,22.471410036087036
1619378390.75639,88.51904,22.487040042877197
1619378390.77201,84.42438,22.502660036087036
1619378390.78764,79.83295,22.518290042877197
1619378390.80327,75.98651,22.53392004966736
1619378390.81889,73.75287,22.549540042877197
1619378390.83452,73.36584,22.56517004966736
1619378390.85014,74.49121,22.580790042877197
1619378390.86577,76.51276,22.59642004966736
1619378390.88139,78.94397,22.612040042877197
1619378390.89702,81.62634,22.62767004966736
1619378390.91265,84.64478,22.64330005645752
1619378390.92827,88.04224,22.65892004966736
1619378390.9439,91.5119,22.67455005645752
1619378390.95952,94.27826,22.69017004966736
1619378390.97515,95.25842,22.70580005645752
1619378390.99077,93.47205,22.72142004966736
1619378391.0064,88.46375,22.73705005645752
1619378391.02203,80.5741,22.75268006324768
1619378391.03765,70.82971,22.76830005645752
1619378391.05328,60.59833,22.78393006324768
1619378391.0689,51.07098,22.79955005645752
1619378391.08453,42.81097,22.81518006324768
1619378391.10015,35.62677,22.83080005645752
1619378391.11578,28.71796,22.84643006324768
1619378391.13141,21.12378,22.862059831619263
1619378391.14703,12.24054,22.87768006324768
1619378391.16266,2.162964,22.893309831619263
1619378391.17828,-8.28125,22.90893006324768
1619378391.19391,-17.90295,22.924559831619263
1619378391.20953,-25.68469,22.94018006324768
1619378391.22516,-31.31213,22.955809831619263
1619378391.24079,-35.32092,22.971439838409424
1619378391.25641,-38.88538,22.987059831619263
1619378391.27204,-43.31232,23.002689838409424
1619378391.28766,-49.43811,23.018309831619263
1619378391.30329,-57.29205,23.033939838409424
1619378391.31891,-66.17651,23.049559831619263
1619378391.33454,-74.98682,23.065189838409424
1619378391.35017,-82.7251,23.080819845199585
1619378391.36579,-88.87811,23.096439838409424
1619378391.38142,-93.48828,23.112069845199585
1619378391.39704,-97.13086,23.127689838409424
1619378391.41267,-100.7304,23.143319845199585
1619378391.42829,-105.3721,23.158939838409424
1619378391.44392,-111.9851,23.174569845199585
1619378391.45955,-121.0269,23.190199851989746
1619378391.47517,-131.9893,23.205819845199585
1619378391.4908,-143.0032,23.221449851989746
1619378391.50642,-150.9235,23.237069845199585
1619378391.52205,-151.9791,23.252699851989746
1619378391.53767,-142.9612,23.268319845199585
1619378391.5533,-122.5002,23.283949851989746
1619378391.56893,-91.82404,23.299579858779907
1619378391.58455,-54.58551,23.315199851989746
1619378391.60018,-15.72742,23.330829858779907
1619378391.6158,20.00635,23.346449851989746
1619378391.63143,49.35474,23.362079858779907
1619378391.64705,71.09082,23.377699851989746
1619378391.66268,85.6687,23.393329858779907
1619378391.67831,94.4389,23.40895986557007
1619378391.69393,98.77124,23.424579858779907
1619378391.70956,99.64612,23.44020986557007
1619378391.72518,97.66425,23.455829858779907
1619378391.74081,93.3847,23.47145986557007
1619378391.75643,87.63019,23.487079858779907
1619378391.77206,81.56238,23.50270986557007
1619378391.78769,76.46002,23.51833987236023
1619378391.80331,73.33527,23.53395986557007
1619378391.81894,72.5863,23.54958987236023
1619378391.83456,73.90601,23.56520986557007
1619378391.85019,76.41931,23.58083987236023
1619378391.86581,79.10236,23.59645986557007
1619378391.88144,81.23267,23.61208987236023
1619378391.89707,82.61816,23.62771987915039
1619378391.91269,83.49652,23.64333987236023
1619378391.92832,84.17731,23.65896987915039
1619378391.94394,84.65045,23.67458987236023
1619378391.95957,84.40582,23.69021987915039
1619378391.97519,82.67261,23.70583987236023
1619378391.99082,78.88818,23.72146987915039
1619378392.00645,73.04376,23.73709988594055
1619378392.02207,65.82568,23.75271987915039
1619378392.0377,58.24945,23.76834988594055
1619378392.05332,51.18237,23.78396987915039
1619378392.06895,44.92682,23.79959988594055
1619378392.08458,39.11731,23.815229892730713
1619378392.1002,33.03564,23.83084988594055
1619378392.11583,26.0376,23.846479892730713
1619378392.13145,17.9436,23.86209988594055
1619378392.14708,9.124817,23.877729892730713
1619378392.1627,0.3349609,23.89334988594055
1619378392.17833,-7.620911,23.908979892730713
1619378392.19396,-14.22748,23.924609899520874
1619378392.20958,-19.46033,23.940229892730713
1619378392.22521,-23.7854,23.955859899520874
1619378392.24083,-28.00891,23.971479892730713
1619378392.25646,-32.96118,23.987109899520874
1619378392.27208,-39.20203,24.002729892730713
1619378392.28771,-46.80347,24.018359899520874
1619378392.30334,-55.2558,24.033989906311035
1619378392.31896,-63.72504,24.049609899520874
1619378392.33459,-71.30792,24.065239906311035
1619378392.35021,-77.39215,24.080859899520874
1619378392.36584,-81.98676,24.096489906311035
1619378392.38146,-85.74347,24.112109899520874
1619378392.39709,-89.89355,24.127739906311035
1619378392.41272,-95.9303,24.143369913101196
1619378392.42834,-105.1068,24.158989906311035
1619378392.44397,-117.8629,24.174619913101196
1619378392.45959,-133.2921,24.190239906311035
1619378392.47522,-148.927,24.205869913101196
1619378392.49084,-160.9531,24.221489906311035
1619378392.50647,-165.1452,24.237119913101196
1619378392.5221,-158.1343,24.252749919891357
1619378392.53772,-138.6083,24.268369913101196
1619378392.55335,-107.9514,24.283999919891357
1619378392.56897,-69.96881,24.299619913101196
1619378392.5846,-29.69617,24.315249919891357
1619378392.60022,7.989746,24.330869913101196
1619378392.61585,39.67297,24.346499919891357
1619378392.63148,63.91925,24.36212992668152
1619378392.6471,80.99854,24.377749919891357
1619378392.66273,92.15143,24.39337992668152
1619378392.67835,98.78271,24.408999919891357
1619378392.69398,101.9372,24.42462992668152
1619378392.7096,102.2366,24.440249919891357
1619378392.72523,100.1275,24.45587992668152
1619378392.74086,96.12396,24.47150993347168
1619378392.75648,91.02881,24.48712992668152
1619378392.77211,85.82758,24.50275993347168
1619378392.78773,81.45575,24.51837992668152
1619378392.80336,78.55994,24.53400993347168
1619378392.81898,77.29987,24.54962992668152
1619378392.83461,77.38367,24.56525993347168
1619378392.85024,78.27307,24.58088994026184
1619378392.86586,79.45813,24.59650993347168
1619378392.88149,80.64441,24.61213994026184
1619378392.89711,81.80219,24.62775993347168
1619378392.91274,82.96259,24.64338994026184
1619378392.92836,84.00714,24.65900993347168
1619378392.94399,84.50629,24.67463994026184
1619378392.95962,83.88086,24.690269947052002
1619378392.97524,81.66321,24.70588994026184
1619378392.99087,77.78668,24.721519947052002
1619378393.00649,72.74786,24.73713994026184
1619378393.02212,67.45227,24.752769947052002
1619378393.03774,62.86334,24.76838994026184
1619378393.05337,59.62695,24.784019947052002
1619378393.069,57.80505,24.799649953842163
1619378393.08462,56.88531,24.815269947052002
1619378393.10025,56.05225,24.830899953842163
1619378393.11587,54.52277,24.846519947052002
1619378393.1315,51.84271,24.862149953842163
1619378393.14712,47.99805,24.877769947052002
1619378393.16275,43.32965,24.893399953842163
1619378393.17838,38.2879,24.909029960632324
1619378393.194,33.13947,24.924649953842163
1619378393.20963,27.79803,24.940279960632324
1619378393.22525,21.80164,24.955899953842163
1619378393.24088,14.49652,24.971529960632324
1619378393.2565,5.285522,24.987149953842163
1619378393.27213,-6.027039,25.002779960632324
1619378393.28776,-19.08612,25.018409967422485
1619378393.30338,-32.91925,25.034029960632324
1619378393.31901,-46.15155,25.049659967422485
1619378393.33463,-57.34167,25.065279960632324
1619378393.35026,-65.44,25.080909967422485
1619378393.36588,-70.12482,25.096529960632324
1619378393.38151,-71.90454,25.112159967422485
1619378393.39714,-71.88782,25.127789974212646
1619378393.41276,-71.37012,25.143409967422485
1619378393.42839,-71.25262,25.159039974212646
1619378393.44401,-71.74384,25.174659967422485
1619378393.45964,-72.24963,25.190289974212646
1619378393.47526,-71.6145,25.205909967422485
1619378393.49089,-68.45215,25.221539974212646
1619378393.50652,-61.56122,25.237169981002808
1619378393.52214,-50.12823,25.252789974212646
1619378393.53777,-33.98657,25.268419981002808
1619378393.55339,-13.64563,25.284039974212646
1619378393.56902,9.605164,25.299669981002808
1619378393.58464,33.93329,25.315289974212646
1619378393.60027,57.34943,25.330919981002808
1619378393.6159,78.22247,25.34654998779297
1619378393.63152,95.68817,25.362169981002808
1619378393.64715,109.8177,25.37779998779297
1619378393.66277,121.2505,25.393419981002808
1619378393.6784,130.5915,25.40904998779297
1619378393.69402,137.7386,25.424669981002808
1619378393.70965,141.6035,25.44029998779297
1619378393.72528,140.4698,25.45592999458313
1619378393.7409,132.8152,25.47154998779297
1619378393.75653,118.1702,25.48717999458313
1619378393.77215,97.68982,25.50279998779297
1619378393.78778,73.99451,25.51842999458313
1619378393.8034,50.45911,25.53404998779297
1619378393.81903,30.1864,25.54967999458313
1619378393.83466,15.11578,25.56531000137329
1619378393.85028,5.616211,25.58092999458313
1619378393.86591,0.6427002,25.59656000137329
1619378393.88153,-1.751831,25.61217999458313
1619378393.89716,-3.69281,25.62781000137329
1619378393.91278,-6.900757,25.64342999458313
1619378393.92841,-12.34241,25.65906000137329
1619378393.94404,-20.14508,25.674690008163452
1619378393.95966,-29.81299,25.69031000137329
1619378393.97529,-40.49402,25.705940008163452
1619378393.99091,-51.27795,25.72156000137329
1619378394.00654,-61.38873,25.737190008163452
1619378394.02216,-70.1571,25.75281000137329
1619378394.03779,-77.04559,25.768440008163452
1619378394.05342,-81.56274,25.784070014953613
1619378394.06904,-83.39716,25.799690008163452
1619378394.08467,-82.54504,25.815320014953613
1619378394.10029,-79.47784,25.830940008163452
1619378394.11592,-75.15161,25.846570014953613
1619378394.13154,-70.80231,25.862190008163452
1619378394.14717,-67.6687,25.877820014953613
1619378394.1628,-66.58813,25.893450021743774
1619378394.17842,-67.82532,25.909070014953613
1619378394.19405,-71.00696,25.924700021743774
1619378394.20967,-75.30933,25.940320014953613
1619378394.2253,-79.72754,25.955950021743774
1619378394.24092,-83.39368,25.971570014953613
1619378394.25655,-85.80945,25.987200021743774
1619378394.27218,-86.9707,26.002830028533936
1619378394.2878,-87.39404,26.018450021743774
1619378394.30343,-87.94653,26.034080028533936
1619378394.31905,-89.54517,26.049700021743774
1619378394.33468,-92.84424,26.065330028533936
1619378394.35031,-97.97034,26.080960035324097
1619378394.36593,-104.4871,26.096580028533936
1619378394.38156,-111.5071,26.112210035324097
1619378394.39718,-118.0502,26.127830028533936
1619378394.41281,-123.4067,26.143460035324097
1619378394.42843,-127.4268,26.159080028533936
1619378394.44406,-130.5717,26.174710035324097
1619378394.45969,-133.7926,26.190340042114258
1619378394.47531,-138.21,26.205960035324097
1619378394.49094,-144.6952,26.221590042114258
1619378394.50656,-153.4874,26.237210035324097
1619378394.52219,-163.803,26.252840042114258
1619378394.53781,-173.7543,26.268460035324097
1619378394.55344,-180.4874,26.284090042114258
1619378394.56907,-180.8762,26.29972004890442
1619378394.58469,-172.4641,26.315340042114258
1619378394.60032,-154.3513,26.33097004890442
1619378394.61594,-127.7543,26.346590042114258
1619378394.63157,-95.69012,26.36222004890442
1619378394.64719,-62.09485,26.377840042114258
1619378394.66282,-30.54431,26.39347004890442
1619378394.67845,-3.354553,26.40910005569458
1619378394.69407,18.7038,26.42472004890442
1619378394.7097,36.00037,26.44035005569458
1619378394.72532,49.25195,26.45597004890442
1619378394.74095,58.95416,26.47160005569458
1619378394.75657,65.1886,26.48722004890442
1619378394.7722,68.02515,26.50285005569458
1619378394.78783,67.78949,26.51848006248474
1619378394.80345,65.43945,26.53410005569458
1619378394.81908,62.24701,26.54973006248474
1619378394.8347,59.48999,26.56535005569458
1619378394.85033,58.04626,26.58098006248474
1619378394.86595,58.22614,26.59660005569458
1619378394.88158,59.91046,26.61223006248474
1619378394.89721,62.79358,26.627859830856323
1619378394.91283,66.64709,26.64348006248474
1619378394.92846,71.32745,26.659109830856323
1619378394.94408,76.73114,26.67473006248474
1619378394.95971,82.57379,26.690359830856323
1619378394.97533,88.33923,26.70598006248474
1619378394.99096,93.30896,26.721609830856323
1619378395.00659,96.69696,26.737239837646484
1619378395.02221,97.92334,26.752859830856323
1619378395.03784,96.7533,26.768489837646484
1619378395.05346,93.43073,26.784109830856323
1619378395.06909,88.56335,26.799739837646484
1619378395.08471,82.94781,26.815359830856323
1619378395.10034,77.23663,26.830989837646484
1619378395.11597,71.68671,26.846619844436646
1619378395.13159,66.14154,26.862239837646484
1619378395.14722,60.12665,26.877869844436646
1619378395.16284,53.18097,26.893489837646484
1619378395.17847,45.13098,26.909119844436646
1619378395.19409,36.25885,26.924739837646484
1619378395.20972,27.164,26.940369844436646
1619378395.22535,18.52161,26.955999851226807
1619378395.24097,10.72809,26.971619844436646
1619378395.2566,3.703064,26.987249851226807
1619378395.27222,-3.0448,27.002869844436646
1619378395.28785,-10.22949,27.018499851226807
1619378395.30347,-18.40839,27.034119844436646
1619378395.3191,-27.72699,27.049749851226807
1619378395.33473,-37.83997,27.065379858016968
1619378395.35035,-48.09882,27.080999851226807
1619378395.36598,-57.77808,27.096629858016968
1619378395.3816,-66.4549,27.112249851226807
1619378395.39723,-74.20917,27.127879858016968
1619378395.41285,-81.69598,27.143499851226807
1619378395.42848,-89.98389,27.159129858016968
1619378395.44411,-100.2091,27.17475986480713
1619378395.45973,-112.9869,27.190379858016968
1619378395.47536,-127.9021,27.20600986480713
1619378395.49098,-143.1571,27.221629858016968
1619378395.50661,-155.6231,27.23725986480713
1619378395.52223,-161.5644,27.252879858016968
1619378395.53786,-157.6952,27.26850986480713
1619378395.55349,-142.2526,27.28413987159729
1619378395.56911,-115.7478,27.29975986480713
1619378395.58474,-80.88727,27.31538987159729
1619378395.60036,-41.85217,27.33100986480713
1619378395.61599,-3.110168,27.34663987159729
1619378395.63161,31.6521,27.36225986480713
1619378395.64724,60.25006,27.37788987159729
1619378395.66287,81.97119,27.39351987838745
1619378395.67849,97.237,27.40913987159729
1619378395.69412,107.0313,27.42476987838745
1619378395.70974,112.4708,27.44038987159729
1619378395.72537,114.5724,27.45601987838745
1619378395.74099,114.1914,27.47163987159729
1619378395.75662,112.0882,27.48726987838745
1619378395.77225,108.8956,27.502899885177612
1619378395.78787,105.1938,27.51851987838745
1619378395.8035,101.4595,27.534149885177612
1619378395.81912,98.09143,27.54976987838745
1619378395.83475,95.43219,27.565399885177612
1619378395.85037,93.66983,27.58101987838745
1619378395.866,92.89587,27.596649885177612
1619378395.88163,92.94452,27.612279891967773
1619378395.89725,93.49985,27.627899885177612
1619378395.91288,94.07965,27.643529891967773
1619378395.9285,94.21045,27.659149885177612
1619378395.94413,93.50897,27.674779891967773
1619378395.95975,91.74338,27.690399885177612
1619378395.97538,88.84772,27.706029891967773
1619378395.99101,84.82861,27.721659898757935
1619378396.00663,79.7395,27.737279891967773
1619378396.02226,73.60324,27.752909898757935
1619378396.03788,66.48322,27.768529891967773
1619378396.05351,58.47235,27.784159898757935
1619378396.06913,49.78754,27.799779891967773
1619378396.08476,40.74524,27.815409898757935
1619378396.10039,31.711,27.831039905548096
1619378396.11601,22.99371,27.846659898757935
1619378396.13164,14.75903,27.862289905548096
1619378396.14726,6.930328,27.877909898757935
1619378396.16289,-0.7758789,27.893539905548096
1619378396.17851,-8.73172,27.909159898757935
1619378396.19414,-17.21252,27.924789905548096
1619378396.20977,-26.18179,27.940419912338257
1619378396.22539,-35.30002,27.956039905548096
1619378396.24102,-44.03204,27.971669912338257
1619378396.25664,-51.883,27.987289905548096
1619378396.27227,-58.65729,28.002919912338257
1619378396.28789,-64.51776,28.018539905548096
1619378396.30352,-69.99219,28.034169912338257
1619378396.31915,-75.76965,28.049799919128418
1619378396.33477,-82.59979,28.065419912338257
1619378396.3504,-91.15649,28.081049919128418
1619378396.36602,-101.9411,28.096669912338257
1619378396.38165,-115.0337,28.112299919128418
1619378396.39727,-129.7179,28.127919912338257
1619378396.4129,-144.1964,28.143549919128418
1619378396.42853,-155.6699,28.15917992591858
1619378396.44415,-160.7911,28.174799919128418
1619378396.45978,-156.7568,28.19042992591858
1619378396.4754,-142.281,28.206049919128418
1619378396.49103,-118.2442,28.22167992591858
1619378396.50665,-87.50491,28.237299919128418
1619378396.52228,-54.09915,28.25292992591858
1619378396.53791,-22.00589,28.26855993270874
1619378396.55353,5.738556,28.28417992591858
1619378396.56916,27.52228,28.29980993270874
1619378396.58478,43.0141,28.31542992591858
1619378396.60041,52.64709,28.33105993270874
1619378396.61603,57.15222,28.34667992591858
1619378396.63166,57.27277,28.36230993270874
1619378396.64729,53.75015,28.3779399394989
1619378396.66291,47.39914,28.39355993270874
1619378396.67854,39.24515,28.4091899394989
1619378396.69416,30.42062,28.42480993270874
1619378396.70979,22.05377,28.4404399394989
1619378396.72541,14.95135,28.45605993270874
1619378396.74104,9.457153,28.4716899394989
1619378396.75667,5.368744,28.487319946289062
1619378396.77229,2.196564,28.5029399394989
1619378396.78792,-0.5415039,28.518569946289062
1619378396.80354,-3.028381,28.5341899394989
1619378396.81917,-5.08313,28.549819946289062
1619378396.8348,-6.392151,28.565449953079224
1619378396.85042,-6.965225,28.581069946289062
1619378396.86605,-7.274994,28.596699953079224
1619378396.88167,-8.23381,28.612319946289062
1619378396.8973,-10.78578,28.627949953079224
1619378396.91292,-15.41644,28.643569946289062
1619378396.92855,-21.81757,28.659199953079224
1619378396.94418,-29.00058,28.674829959869385
1619378396.9598,-35.6136,28.690449953079224
1619378396.97543,-40.49255,28.706079959869385
1619378396.99105,-43.01242,28.721699953079224
1619378397.00668,-43.18513,28.737329959869385
1619378397.0223,-41.51967,28.752949953079224
1619378397.03793,-38.6266,28.768579959869385
1619378397.05356,-34.94716,28.784209966659546
1619378397.06918,-30.47496,28.799829959869385
1619378397.08481,-24.84479,28.815459966659546
1619378397.10043,-17.57385,28.831079959869385
1619378397.11606,-8.52404,28.846709966659546
1619378397.13168,1.710205,28.862329959869385
1619378397.14731,11.61517,28.877959966659546
1619378397.16294,18.97718,28.893589973449707
1619378397.17856,21.42303,28.909209966659546
1619378397.19419,17.08937,28.924839973449707
1619378397.20981,5.419334,28.940459966659546
1619378397.22544,-12.37471,28.956089973449707
1619378397.24106,-33.10495,28.971709966659546
1619378397.25669,-52.05551,28.987339973449707
1619378397.27232,-63.97534,29.002969980239868
1619378397.28794,-64.47749,29.018589973449707
1619378397.30357,-51.39558,29.034219980239868
1619378397.31919,-25.58511,29.049839973449707
1619378397.33482,9.286409,29.065469980239868
1619378397.35044,47.7918,29.081089973449707
1619378397.36607,84.41145,29.096719980239868
1619378397.3817,114.9943,29.11234998703003
1619378397.39732,137.5292,29.127969980239868
1619378397.41295,152.0413,29.14359998703003
1619378397.42857,159.7582,29.159219980239868
1619378397.4442,162.1765,29.17484998703003
1619378397.45982,160.435,29.190469980239868
1619378397.47545,155.1944,29.20609998703003
1619378397.49108,146.936,29.22172999382019
1619378397.5067,136.3136,29.23734998703003
1619378397.52233,124.3469,29.25297999382019
1619378397.53795,112.2883,29.26859998703003
1619378397.55358,101.2868,29.28422999382019
1619378397.5692,92.07977,29.29984998703003
1619378397.58483,84.83893,29.31547999382019
1619378397.60046,79.34956,29.33111000061035
1619378397.61608,75.33397,29.34672999382019
1619378397.63171,72.71982,29.36236000061035
1619378397.64733,71.64438,29.37797999382019
1619378397.66296,72.2692,29.39361000061035
1619378397.67858,74.32011,29.40922999382019
1619378397.69421,76.91418,29.42486000061035
1619378397.70984,78.64339,29.440490007400513
1619378397.72546,78.02847,29.45611000061035
1619378397.74109,74.10583,29.471740007400513
1619378397.75671,66.78828,29.48736000061035
1619378397.77234,56.92096,29.502990007400513
1619378397.78796,45.90024,29.51861000061035
1619378397.80359,35.07982,29.534240007400513
1619378397.81922,25.2409,29.549870014190674
1619378397.83484,16.29787,29.565490007400513
1619378397.85047,7.429398,29.581120014190674
1619378397.86609,-2.445034,29.596740007400513
1619378397.88172,-14.11666,29.612370014190674
1619378397.89734,-27.62196,29.627990007400513
1619378397.91297,-42.1169,29.643620014190674
1619378397.9286,-56.1978,29.659250020980835
1619378397.94422,-68.47238,29.674870014190674
1619378397.95985,-78.13059,29.690500020980835
1619378397.97547,-85.32199,29.706120014190674
1619378397.9911,-91.1498,29.721750020980835
1619378398.00672,-97.28886,29.737370014190674
1619378398.02235,-105.4968,29.753000020980835
1619378398.03798,-117.008,29.768630027770996
1619378398.0536,-132.0418,29.784250020980835
1619378398.06923,-149.3838,29.799880027770996
1619378398.08485,-166.3051,29.815500020980835
1619378398.10048,-178.9071,29.831130027770996
1619378398.1161,-183.0061,29.846750020980835
1619378398.13173,-175.4577,29.862380027770996
1619378398.14736,-155.3041,29.878010034561157
1619378398.16298,-124.415,29.893630027770996
1619378398.17861,-86.98068,29.909260034561157
1619378398.19423,-48.29819,29.924880027770996
1619378398.20986,-13.06052,29.940510034561157
1619378398.22548,15.81669,29.956130027770996
1619378398.24111,37.56803,29.971760034561157
1619378398.25674,52.99373,29.98739004135132
1619378398.27236,63.44868,30.003010034561157
1619378398.28799,69.97303,30.01864004135132
1619378398.30361,73.01974,30.034260034561157
1619378398.31924,72.67481,30.04989004135132
1619378398.33486,69.17026,30.065510034561157
1619378398.35049,63.29307,30.08114004135132
1619378398.36612,56.35725,30.09677004814148
1619378398.38174,49.95087,30.11239004135132
1619378398.39737,45.43977,30.12802004814148
1619378398.41299,43.57656,30.14364004135132
1619378398.42862,44.41167,30.15927004814148
1619378398.44424,47.40398,30.17489004135132
1619378398.45987,51.83748,30.19052004814148
1619378398.4755,57.1295,30.20615005493164
1619378398.49112,63.0138,30.22177004814148
1619378398.50675,69.46798,30.23740005493164
1619378398.52237,76.40961,30.25302004814148
1619378398.538,83.4017,30.26865005493164
1619378398.55362,89.5371,30.28427004814148
1619378398.56925,93.64733,30.29990005493164
1619378398.58488,94.65979,30.3155300617218
1619378398.6005,92.05444,30.33115005493164
1619378398.61613,86.04062,30.3467800617218
1619378398.63175,77.51904,30.36240005493164
1619378398.64738,67.74262,30.3780300617218
1619378398.663,57.90846,30.39365005493164
1619378398.67863,48.82208,30.4092800617218
1619378398.69426,40.6879,30.424909830093384
1619378398.70988,33.17718,30.4405300617218
1619378398.72551,25.63663,30.456159830093384
1619378398.74113,17.38532,30.4717800617218
1619378398.75676,7.988144,30.487409830093384
1619378398.77238,-2.505302,30.5030300617218
1619378398.78801,-13.61542,30.518659830093384
1619378398.80364,-24.55453,30.534289836883545
1619378398.81926,-34.63509,30.549909830093384
1619378398.83489,-43.48978,30.565539836883545
1619378398.85051,-51.26923,30.581159830093384
1619378398.86614,-58.59148,30.596789836883545
1619378398.88176,-66.37126,30.612409830093384
1619378398.89739,-75.65049,30.628039836883545
1619378398.91302,-87.37251,30.643669843673706
1619378398.92864,-102.0801,30.659289836883545
1619378398.94427,-119.4827,30.674919843673706
1619378398.95989,-137.9353,30.690539836883545
1619378398.97552,-154.2954,30.706169843673706
1619378398.99114,-164.3112,30.721789836883545
1619378399.00677,-163.7681,30.737419843673706
1619378399.0224,-149.9756,30.753049850463867
1619378399.03802,-122.9847,30.768669843673706
1619378399.05365,-85.84396,30.784299850463867
1619378399.06927,-43.74359,30.799919843673706
1619378399.0849,-2.373871,30.815549850463867
1619378399.10052,33.72303,30.831169843673706
1619378399.11615,62.14223,30.846799850463867
1619378399.13178,82.56178,30.86242985725403
1619378399.1474,95.94096,30.878049850463867
1619378399.16303,103.6084,30.89367985725403
1619378399.17865,106.5854,30.909299850463867
1619378399.19428,105.5937,30.92492985725403
1619378399.20991,101.3192,30.94055986404419
1619378399.22553,94.77376,30.95617985725403
1619378399.24116,87.34953,30.97180986404419
1619378399.25678,80.57168,30.98742985725403
1619378399.27241,75.71241,31.00305986404419
1619378399.28803,73.43136,31.01867985725403
1619378399.30366,73.65422,31.03430986404419
1619378399.31929,75.69075,31.04993987083435
1619378399.33491,78.57642,31.06555986404419
1619378399.35054,81.39332,31.08118987083435
1619378399.36616,83.55705,31.09680986404419
1619378399.38179,84.87955,31.11243987083435
1619378399.39741,85.47473,31.12805986404419
1619378399.41304,85.5331,31.14368987083435
1619378399.42867,85.04817,31.15931987762451
1619378399.44429,83.7345,31.17493987083435
1619378399.45992,81.04213,31.19056987762451
1619378399.47554,76.44094,31.20618987083435
1619378399.49117,69.66924,31.22181987762451
1619378399.50679,60.9187,31.23743987083435
1619378399.52242,50.78995,31.25306987762451
1619378399.53805,40.09712,31.268699884414673
1619378399.55367,29.53994,31.28431987762451
1619378399.5693,19.48771,31.299949884414673
1619378399.58492,9.920395,31.31556987762451
1619378399.60055,0.5481071,31.331199884414673
1619378399.61617,-9.015385,31.34681987762451
1619378399.6318,-19.07125,31.362449884414673
1619378399.64743,-29.68101,31.378079891204834
1619378399.66305,-40.64414,31.393699884414673
1619378399.67868,-51.50256,31.409329891204834
1619378399.6943,-61.68652,31.424949884414673
1619378399.70993,-70.67599,31.440579891204834
1619378399.72555,-78.17362,31.456199884414673
1619378399.74118,-84.25522,31.471829891204834
1619378399.75681,-89.42319,31.487459897994995
1619378399.77243,-94.46469,31.503079891204834
1619378399.78806,-100.3694,31.518709897994995
1619378399.80368,-108.1221,31.534329891204834
1619378399.81931,-118.3611,31.549959897994995
1619378399.83493,-131.0383,31.565579891204834
1619378399.85056,-144.9496,31.581209897994995
1619378399.86619,-157.5076,31.596839904785156
1619378399.88181,-165.0726,31.612459897994995
1619378399.89744,-163.8035,31.628089904785156
1619378399.91306,-150.9645,31.643709897994995
1619378399.92869,-126.1135,31.659339904785156
1619378399.94431,-91.52267,31.674959897994995
1619378399.95994,-51.62467,31.690589904785156
1619378399.97557,-11.6488,31.706219911575317
1619378399.99119,24.00549,31.721839904785156
1619378400.00682,52.80447,31.737469911575317
1619378400.02244,74.22165,31.753089904785156
1619378400.03807,89.10989,31.768719911575317
1619378400.05369,98.7411,31.784339904785156
1619378400.06932,104.0965,31.799969911575317
1619378400.08495,105.6885,31.81559991836548
1619378400.10057,103.881,31.831219911575317
1619378400.1162,99.29226,31.84684991836548
1619378400.13182,93.0442,31.862469911575317
1619378400.14745,86.61855,31.87809991836548
1619378400.16307,81.43629,31.893719911575317
1619378400.1787,78.43134,31.90934991836548
1619378400.19433,77.77185,31.92497992515564
1619378400.20995,78.92951,31.94059991836548
1619378400.22558,80.97093,31.95622992515564
1619378400.2412,82.9705,31.97184991836548
1619378400.25683,84.25988,31.98747992515564
1619378400.27245,84.53398,32.00309991836548
1619378400.28808,83.73559,32.01872992515564
1619378400.30371,81.83685,32.0343599319458
1619378400.31933,78.70187,32.04997992515564
1619378400.33496,74.0156,32.0656099319458
1619378400.35058,67.40688,32.08122992515564
1619378400.36621,58.64486,32.0968599319458
1619378400.38183,47.8464,32.11247992515564
1619378400.39746,35.60515,32.1281099319458
1619378400.41309,22.90474,32.14373993873596
1619378400.42871,10.90588,32.1593599319458
1619378400.44434,0.5660172,32.17498993873596
1619378400.45996,-7.675262,32.1906099319458
1619378400.47559,-14.12188,32.20623993873596
1619378400.49121,-19.70995,32.2218599319458
1619378400.50684,-25.61649,32.23748993873596
1619378400.52247,-32.80328,32.25311994552612
1619378400.53809,-41.56144,32.26873993873596
1619378400.55372,-51.36406,32.28436994552612
1619378400.56934,-61.14391,32.29998993873596
1619378400.58497,-69.76407,32.31561994552612
1619378400.60059,-76.5522,32.33123993873596
1619378400.61622,-81.59514,32.34686994552612
1619378400.63185,-85.67133,32.362499952316284
1619378400.64747,-89.98993,32.37811994552612
1619378400.6631,-95.73973,32.393749952316284
1619378400.67872,-103.8258,32.40936994552612
1619378400.69435,-114.6172,32.424999952316284
1619378400.70997,-127.7166,32.44061994552612
1619378400.7256,-141.8198,32.456249952316284
1619378400.74123,-154.548,32.471879959106445
1619378400.75685,-162.7688,32.487499952316284
1619378400.77248,-163.2466,32.503129959106445
1619378400.7881,-153.7121,32.518749952316284
1619378400.80373,-133.7232,32.534379959106445
1619378400.81935,-105.0829,32.549999952316284
1619378400.83498,-71.32465,32.565629959106445
1619378400.85061,-36.65671,32.581259965896606
1619378400.86623,-4.747009,32.596879959106445
1619378400.88186,22.12767,32.612509965896606
1619378400.89748,43.20593,32.628129959106445
1619378400.91311,58.8251,32.643759965896606
1619378400.92873,69.7164,32.659379959106445
1619378400.94436,76.50085,32.675009965896606
1619378400.95999,79.549,32.69063997268677
1619378400.97561,79.17686,32.706259965896606
1619378400.99124,75.88409,32.72188997268677
1619378401.00686,70.51727,32.737509965896606
1619378401.02249,64.17233,32.75313997268677
1619378401.03811,57.95663,32.768759965896606
1619378401.05374,52.71524,32.78438997268677
1619378401.06937,48.86642,32.80001997947693
1619378401.08499,46.47334,32.81563997268677
1619378401.10062,45.34758,32.83126997947693
1619378401.11624,45.28157,32.84688997268677
1619378401.13187,46.13733,32.86251997947693
1619378401.14749,47.77365,32.87813997268677
1619378401.16312,49.87138,32.89376997947693
1619378401.17875,51.86342,32.90939998626709
1619378401.19437,52.91884,32.92501997947693
1619378401.21,52.19449,32.94064998626709
1619378401.22562,49.1844,32.95626997947693
1619378401.24125,43.91316,32.97189998626709
1619378401.25687,36.97543,32.98751997947693
1619378401.2725,29.28282,33.00314998626709
1619378401.28813,21.70279,33.01877999305725
1619378401.30375,14.71979,33.03439998626709
1619378401.31938,8.283859,33.05002999305725
1619378401.335,1.958603,33.06564998626709
1619378401.35063,-4.769485,33.08127999305725
1619378401.36626,-12.1366,33.09690999984741
1619378401.38188,-19.91776,33.11252999305725
1619378401.39751,-27.52711,33.12815999984741
1619378401.41313,-34.3233,33.14377999305725
1619378401.42876,-40.00798,33.15940999984741
1619378401.44438,-44.84212,33.17502999305725
1619378401.46001,-49.56883,33.19065999984741
1619378401.47564,-55.03285,33.20629000663757
1619378401.49126,-61.74283,33.22190999984741
1619378401.50689,-69.48073,33.23754000663757
1619378401.52251,-77.39481,33.25315999984741
1619378401.53814,-84.36188,33.26879000663757
1619378401.55376,-89.48215,33.28440999984741
1619378401.56939,-92.61531,33.30004000663757
1619378401.58502,-94.44121,33.315670013427734
1619378401.60064,-96.36131,33.33129000663757
1619378401.61627,-100.0374,33.346920013427734
1619378401.63189,-106.9304,33.36254000663757
1619378401.64752,-117.7232,33.378170013427734
1619378401.66314,-131.789,33.39379000663757
1619378401.67877,-146.9207,33.409420013427734
1619378401.6944,-159.3354,33.425050020217896
1619378401.71002,-164.3943,33.440670013427734
1619378401.72565,-157.8699,33.456300020217896
1619378401.74127,-137.3966,33.471920013427734
1619378401.7569,-103.5713,33.487550020217896
1619378401.77252,-60.01877,33.503170013427734
1619378401.78815,-12.45052,33.518800020217896
1619378401.80378,33.11328,33.53443002700806
1619378401.8194,71.9669,33.550050020217896
1619378401.83503,101.7795,33.56568002700806
1619378401.85065,122.5681,33.581300020217896
1619378401.86628,135.8346,33.59693002700806
1619378401.8819,143.5387,33.612550020217896
1619378401.89753,147.2189,33.62818002700806
1619378401.91316,147.7709,33.64381003379822
1619378401.92878,145.6256,33.65943002700806
1619378401.94441,141.2064,33.67506003379822
1619378401.96003,135.1593,33.69068002700806
1619378401.97566,128.4554,33.70631003379822
1619378401.99128,122.0777,33.72193002700806
1619378402.00691,116.7736,33.73756003379822
1619378402.02254,112.7768,33.75319004058838
1619378402.03816,109.8638,33.76881003379822
1619378402.05379,107.5296,33.78444004058838
1619378402.06941,105.2904,33.80006003379822
1619378402.08504,102.981,33.81569004058838
1619378402.10066,100.6635,33.83131003379822
1619378402.11629,98.49214,33.84694004058838
1619378402.13192,96.36119,33.86257004737854
1619378402.14754,93.74672,33.87819004058838
1619378402.16317,89.86121,33.89382004737854
1619378402.17879,83.94327,33.90944004058838
1619378402.19442,75.74579,33.92507004737854
1619378402.21004,65.74095,33.94069004058838
1619378402.22567,55.01823,33.95632004737854
1619378402.2413,44.76855,33.9719500541687
1619378402.25692,35.81424,33.98757004737854
1619378402.27255,28.183,34.0032000541687
1619378402.28817,21.2153,34.01882004737854
1619378402.3038,13.92238,34.0344500541687
1619378402.31942,5.553955,34.05007004737854
1619378402.33505,-3.968491,34.0657000541687
1619378402.35068,-14.05872,34.08133006095886
1619378402.3663,-23.68259,34.0969500541687
1619378402.38193,-31.91595,34.11258006095886
1619378402.39755,-38.34628,34.1282000541687
1619378402.41318,-43.26459,34.14383006095886
1619378402.4288,-47.46173,34.1594500541687
1619378402.44443,-51.84625,34.17508006095886
1619378402.46006,-57.10674,34.190709829330444
1619378402.47568,-63.35033,34.20633006095886
1619378402.49131,-70.217,34.221959829330444
1619378402.50693,-76.99121,34.23758006095886
1619378402.52256,-82.9957,34.253209829330444
1619378402.53818,-87.82014,34.26883006095886
1619378402.55381,-91.52141,34.284459829330444
1619378402.56944,-94.64645,34.300089836120605
1619378402.58506,-98.09464,34.315709829330444
1619378402.60069,-102.9731,34.331339836120605
1619378402.61631,-110.2409,34.346959829330444
1619378402.63194,-120.2721,34.362589836120605
1619378402.64756,-132.3508,34.378209829330444
1619378402.66319,-144.374,34.393839836120605
1619378402.67882,-153.0322,34.40946984291077
1619378402.69444,-154.6447,34.425089836120605
1619378402.71007,-146.387,34.44071984291077
1619378402.72569,-127.4562,34.456339836120605
1619378402.74132,-99.58224,34.47196984291077
1619378402.75694,-66.53818,34.487589836120605
1619378402.77257,-32.95154,34.50321984291077
1619378402.7882,-2.753662,34.51884984970093
1619378402.80382,21.78516,34.53446984291077
1619378402.81945,40.2894,34.55009984970093
1619378402.83507,53.64294,34.56571984291077
1619378402.8507,63.05164,34.58134984970093
1619378402.86632,69.34695,34.59696984291077
1619378402.88195,72.80417,34.61259984970093
1619378402.89758,73.50638,34.62822985649109
1619378402.9132,71.74359,34.64384984970093
1619378402.92883,68.30585,34.65947985649109
1619378402.94445,64.33786,34.67509984970093
1619378402.96008,60.97272,34.69072985649109
1619378402.9757,58.99774,34.70634984970093
1619378402.99133,58.61658,34.72197985649109
1619378403.00696,59.52917,34.73760986328125
1619378403.02258,61.15857,34.75322985649109
1619378403.03821,62.98471,34.76885986328125
1619378403.05383,64.63269,34.78447985649109
1619378403.06946,65.97751,34.80010986328125
1619378403.08508,67.02994,34.81572985649109
1619378403.10071,67.81351,34.83135986328125
1619378403.11634,68.24216,34.84698987007141
1619378403.13196,68.0816,34.86260986328125
1619378403.14759,66.96988,34.87823987007141
1619378403.16321,64.58588,34.89385986328125
1619378403.17884,60.76764,34.90948987007141
1619378403.19446,55.69141,34.92510986328125
1619378403.21009,49.85483,34.94073987007141
1619378403.22572,43.92194,34.95636987686157
1619378403.24134,38.48892,34.97198987007141
1619378403.25697,33.87512,34.98761987686157
1619378403.27259,29.95901,35.00323987007141
1619378403.28822,26.23251,35.01886987686157
1619378403.30384,22.08072,35.03448987007141
1619378403.31947,17.00375,35.05011987686157
1619378403.3351,10.86209,35.06574988365173
1619378403.35072,3.91687,35.08136987686157
1619378403.36635,-3.275452,35.09699988365173
1619378403.38197,-10.07974,35.11261987686157
1619378403.3976,-16.02353,35.12824988365173
1619378403.41322,-20.97455,35.14386987686157
1619378403.42885,-25.16071,35.15949988365173
1619378403.44448,-29.08279,35.175129890441895
1619378403.4601,-33.36432,35.19074988365173
1619378403.47573,-38.43802,35.206379890441895
1619378403.49135,-44.41562,35.22199988365173
1619378403.50698,-50.95966,35.237629890441895
1619378403.5226,-57.44275,35.25324988365173
1619378403.53823,-63.16589,35.268879890441895
1619378403.55386,-67.66953,35.284509897232056
1619378403.56948,-70.99033,35.300129890441895
1619378403.58511,-73.70837,35.315759897232056
1619378403.60073,-76.79303,35.331379890441895
1619378403.61636,-81.34302,35.347009897232056
1619378403.63198,-88.25043,35.362629890441895
1619378403.64761,-97.86758,35.378259897232056
1619378403.66324,-109.6529,35.39388990402222
1619378403.67886,-121.9412,35.409509897232056
1619378403.69449,-131.9723,35.42513990402222
1619378403.71011,-136.371,35.440759897232056
1619378403.72574,-132.0391,35.45638990402222
1619378403.74136,-117.2611,35.472009897232056
1619378403.75699,-92.48929,35.48763990402222
1619378403.77262,-60.44714,35.50326991081238
1619378403.78824,-25.41351,35.51888990402222
1619378403.80387,8.076874,35.53451991081238
1619378403.81949,36.44415,35.55013990402222
1619378403.83512,57.89542,35.56576991081238
1619378403.85074,72.33804,35.58138990402222
1619378403.86637,80.79187,35.59701991081238
1619378403.882,84.62231,35.61264991760254
1619378403.89762,85.06665,35.62826991081238
1619378403.91325,83.06079,35.64389991760254
1619378403.92887,79.43768,35.65951991081238
1619378403.9445,74.99753,35.67514991760254
1619378403.96012,70.53244,35.69076991081238
1619378403.97575,66.70395,35.70639991760254
1619378403.99138,63.88882,35.7220299243927
1619378404.007,62.142,35.73764991760254
1619378404.02263,61.237,35.7532799243927
1619378404.03825,60.82928,35.76889991760254
1619378404.05388,60.63766,35.7845299243927
1619378404.06951,60.5296,35.80015993118286
1619378404.08513,60.52615,35.8157799243927
1619378404.10076,60.69904,35.83140993118286
1619378404.11638,61.08188,35.8470299243927
1619378404.13201,61.49847,35.86265993118286
1619378404.14763,61.54501,35.8782799243927
1619378404.16326,60.64615,35.89390993118286
1619378404.17889,58.25922,35.90953993797302
1619378404.19451,54.05667,35.92515993118286
1619378404.21014,48.1055,35.94078993797302
1619378404.22576,40.86505,35.95640993118286
1619378404.24139,32.99265,35.97203993797302
1619378404.25701,25.12262,35.98765993118286
1619378404.27264,17.59814,36.00328993797302
1619378404.28827,10.46179,36.018919944763184
1619378404.30389,3.528015,36.03453993797302
1619378404.31952,-3.383545,36.050169944763184
1619378404.33514,-10.31195,36.06578993797302
1619378404.35077,-17.2009,36.081419944763184
1619378404.36639,-23.94348,36.09703993797302
1619378404.38202,-30.57404,36.112669944763184
1619378404.39765,-37.19751,36.128299951553345
1619378404.41327,-43.91214,36.143919944763184
1619378404.4289,-50.62988,36.159549951553345
1619378404.44452,-56.9881,36.175169944763184
1619378404.46015,-62.50668,36.190799951553345
1619378404.47577,-66.83508,36.206419944763184
1619378404.4914,-69.94061,36.222049951553345
1619378404.50703,-72.22787,36.237679958343506
1619378404.52265,-74.34009,36.253299951553345
1619378404.53828,-76.93121,36.268929958343506
1619378404.5539,-80.45282,36.284549951553345
1619378404.56953,-85.12241,36.300179958343506
1619378404.58515,-90.9585,36.315799951553345
1619378404.60078,-97.73132,36.331429958343506
1619378404.61641,-104.8134,36.34705996513367
1619378404.63203,-110.8869,36.362679958343506
1619378404.64766,-113.8891,36.37830996513367
1619378404.66328,-111.281,36.393929958343506
1619378404.67891,-100.7867,36.40955996513367
1619378404.69453,-81.11957,36.425179958343506
1619378404.71016,-52.65646,36.44080996513367
1619378404.72579,-17.3988,36.45643997192383
1619378404.74141,21.54242,36.47205996513367
1619378404.75704,60.7485,36.48768997192383
1619378404.77266,97.15344,36.50330996513367
1619378404.78829,128.3788,36.51893997192383
1619378404.80391,152.6214,36.53455996513367
1619378404.81954,168.4678,36.55018997192383
1619378404.83517,174.931,36.56581997871399
1619378404.85079,171.6047,36.58143997192383
1619378404.86642,159.0842,36.59706997871399
1619378404.88204,139.1881,36.61268997192383
1619378404.89767,114.8706,36.62831997871399
1619378404.91329,89.72678,36.64393997192383
1619378404.92892,67.21069,36.65956997871399
1619378404.94455,49.96564,36.67519998550415
1619378404.96017,39.42371,36.69081997871399
1619378404.9758,35.94107,36.70644998550415
1619378404.99142,39.10193,36.72206997871399
1619378405.00705,48.08185,36.73769998550415
1619378405.02267,61.82635,36.75331997871399
1619378405.0383,78.96918,36.76894998550415
1619378405.05393,97.57355,36.78457999229431
1619378405.06955,115.1578,36.80019998550415
1619378405.08518,128.9742,36.81582999229431
1619378405.1008,136.6545,36.83144998550415
1619378405.11643,136.9262,36.84707999229431
1619378405.13205,130.0313,36.86269998550415
1619378405.14768,117.735,36.87832999229431
1619378405.16331,102.6691,36.89395999908447
1619378405.17893,87.3822,36.90957999229431
1619378405.19456,73.40057,36.92520999908447
1619378405.21018,60.85583,36.94082999229431
1619378405.22581,48.5827,36.95645999908447
1619378405.24143,34.82721,36.97207999229431
1619378405.25706,18.08734,36.98770999908447
1619378405.27269,-2.188416,37.003340005874634
1619378405.28831,-25.47455,37.01895999908447
1619378405.30394,-50.47589,37.034590005874634
1619378405.31956,-75.78461,37.05020999908447
1619378405.33519,-100.3913,37.065840005874634
1619378405.35081,-123.7616,37.08145999908447
1619378405.36644,-145.5494,37.097090005874634
1619378405.38207,-165.1966,37.112720012664795
1619378405.39769,-181.85,37.128340005874634
1619378405.41332,-194.6987,37.143970012664795
1619378405.42894,-203.6363,37.159590005874634
1619378405.44457,-209.6826,37.175220012664795
1619378405.46019,-214.8655,37.190840005874634
1619378405.47582,-221.4113,37.206470012664795
1619378405.49145,-230.556,37.222100019454956
1619378405.50707,-241.6499,37.237720012664795
1619378405.5227,-252.02,37.253350019454956
1619378405.53832,-257.801,37.268970012664795
1619378405.55395,-255.3089,37.284600019454956
1619378405.56957,-242.4018,37.300220012664795
1619378405.5852,-219.2145,37.315850019454956
1619378405.60083,-187.993,37.33148002624512
1619378405.61645,-152.2347,37.347100019454956
1619378405.63208,-115.6322,37.36273002624512
1619378405.6477,-81.22375,37.378350019454956
1619378405.66333,-51.01874,37.39398002624512
1619378405.67895,-26.15417,37.409600019454956
1619378405.69458,-7.075745,37.42523002624512
1619378405.71021,6.063965,37.44086003303528
1619378405.72583,13.37787,37.45648002624512
1619378405.74146,15.25159,37.47211003303528
1619378405.75708,12.59131,37.48773002624512
1619378405.77271,6.876099,37.50336003303528
1619378405.78833,0.1074219,37.51898002624512
1619378405.80396,-5.605286,37.53461003303528
1619378405.81959,-8.539063,37.55024003982544
1619378405.83521,-7.689392,37.56586003303528
1619378405.85084,-2.978943,37.58149003982544
1619378405.86646,5.016174,37.59711003303528
1619378405.88209,15.42877,37.61274003982544
1619378405.89771,27.4541,37.62836003303528
1619378405.91334,40.46643,37.64399003982544
1619378405.92897,53.86945,37.6596200466156
1619378405.94459,66.84631,37.67524003982544
1619378405.96022,78.25287,37.6908700466156
1619378405.97584,86.81018,37.70649003982544
1619378405.99147,91.41656,37.7221200466156
1619378406.00709,91.5484,37.73774003982544
1619378406.02272,87.4715,37.7533700466156
1619378406.03835,80.08813,37.76900005340576
1619378406.05397,70.66187,37.7846200466156
1619378406.0696,60.41003,37.80025005340576
1619378406.08522,50.29572,37.8158700466156
1619378406.10085,40.95801,37.83150005340576
1619378406.11647,32.83618,37.8471200466156
1619378406.1321,26.21851,37.86275005340576
1619378406.14773,21.29932,37.87838006019592
1619378406.16335,18.06976,37.89400005340576
1619378406.17898,16.13434,37.90963006019592
1619378406.1946,14.72461,37.92525005340576
1619378406.21023,12.71234,37.94088006019592
1619378406.22586,8.958405,37.956510066986084
1619378406.24148,2.533447,37.97213006019592
1619378406.25711,-7.102417,37.987760066986084
1619378406.27273,-20.14944,38.00338006019592
1619378406.28836,-36.44467,38.019010066986084
1619378406.30398,-55.49118,38.03463006019592
1619378406.31961,-76.17801,38.050260066986084
1619378406.33524,-96.49432,38.065889835357666
1619378406.35086,-113.6051,38.081510066986084
1619378406.36649,-124.1853,38.097139835357666
1619378406.38211,-125.3799,38.112760066986084
1619378406.39774,-115.8345,38.128389835357666
1619378406.41336,-96.32358,38.144010066986084
1619378406.42899,-69.70193,38.159639835357666
1619378406.44462,-40.0213,38.17526984214783
1619378406.46024,-11.3038,38.190889835357666
1619378406.47587,13.58374,38.20651984214783
1619378406.49149,33.32318,38.222139835357666
1619378406.50712,47.89954,38.23776984214783
1619378406.52274,57.92432,38.253389835357666
1619378406.53837,64.07883,38.26901984214783
1619378406.554,66.84589,38.28464984893799
1619378406.56962,66.71204,38.30026984214783
1619378406.58525,64.41641,38.31589984893799
1619378406.60087,61.04852,38.33151984214783
1619378406.6165,57.85132,38.34714984893799
1619378406.63212,55.77643,38.36276984214783
1619378406.64775,55.21722,38.37839984893799
1619378406.66338,55.95551,38.39402985572815
1619378406.679,57.38928,38.40964984893799
1619378406.69463,59.0004,38.42527985572815
1619378406.71025,60.57013,38.44089984893799
1619378406.72588,62.22513,38.45652985572815
1619378406.7415,64.18796,38.47214984893799
1619378406.75713,66.4234,38.48777985572815
1619378406.77276,68.45407,38.50340986251831
1619378406.78838,69.43558,38.51902985572815
1619378406.80401,68.43091,38.53465986251831
1619378406.81963,64.79898,38.55027985572815
1619378406.83526,58.5054,38.56590986251831
1619378406.85088,50.11411,38.58152985572815
1619378406.86651,40.54413,38.59715986251831
1619378406.88214,30.6803,38.61278986930847
1619378406.89776,21.0433,38.62840986251831
1619378406.91339,11.67899,38.64403986930847
1619378406.92901,2.305145,38.65965986251831
1619378406.94464,-7.393799,38.67528986930847
1619378406.96026,-17.48581,38.69090986251831
1619378406.97589,-27.64951,38.70653986930847
1619378406.99152,-37.23965,38.72216987609863
1619378407.00714,-45.52029,38.73778986930847
1619378407.02277,-52.01959,38.75341987609863
1619378407.03839,-56.77841,38.76903986930847
1619378407.05402,-60.45447,38.78466987609863
1619378407.06964,-64.24442,38.80028986930847
1619378407.08527,-69.58109,38.81591987609863
1619378407.1009,-77.68094,38.831549882888794
1619378407.11652,-89.08365,38.84716987609863
1619378407.13215,-103.255,38.862799882888794
1619378407.14777,-118.4319,38.87841987609863
1619378407.1634,-131.7898,38.894049882888794
1619378407.17902,-140.0568,38.90966987609863
1619378407.19465,-140.3403,38.925299882888794
1619378407.21028,-131.0461,38.940929889678955
1619378407.2259,-112.3963,38.956549882888794
1619378407.24153,-86.45998,38.972179889678955
1619378407.25715,-56.57193,38.987799882888794
1619378407.27278,-26.34943,39.003429889678955
1619378407.2884,1.277054,39.019049882888794
1619378407.30403,24.55519,39.034679889678955
1619378407.31966,42.93042,39.050309896469116
1619378407.33528,56.59532,39.065929889678955
1619378407.35091,65.97237,39.081559896469116
1619378407.36653,71.4061,39.097179889678955
1619378407.38216,73.19664,39.112809896469116
1619378407.39778,71.82153,39.128429889678955
1619378407.41341,68.18765,39.144059896469116
1619378407.42904,63.64366,39.15968990325928
1619378407.44466,59.6391,39.175309896469116
1619378407.46029,57.3213,39.19093990325928
1619378407.47591,57.14851,39.206559896469116
1619378407.49154,58.81248,39.22218990325928
1619378407.50716,61.48059,39.237809896469116
1619378407.52279,64.29686,39.25343990325928
1619378407.53842,66.72469,39.26906991004944
1619378407.55404,68.75693,39.28468990325928
1619378407.56967,70.64101,39.30031991004944
1619378407.58529,72.53325,39.31593990325928
1619378407.60092,74.21391,39.33156991004944
1619378407.61654,75.00958,39.34718990325928
1619378407.63217,74.09084,39.36281991004944
1619378407.6478,70.89157,39.3784499168396
1619378407.66342,65.44809,39.39406991004944
1619378407.67905,58.43288,39.4096999168396
1619378407.69467,50.86211,39.42531991004944
1619378407.7103,43.6593,39.4409499168396
1619378407.72592,37.26023,39.45656991004944
1619378407.74155,31.41814,39.4721999168396
1619378407.75718,25.41372,39.48782992362976
1619378407.7728,18.42609,39.5034499168396
1619378407.78843,9.932991,39.51907992362976
1619378407.80405,0.01689148,39.5346999168396
1619378407.81968,-10.64529,39.55032992362976
1619378407.8353,-20.99535,39.5659499168396
1619378407.85093,-30.06606,39.58157992362976
1619378407.86656,-37.30378,39.59720993041992
1619378407.88218,-42.8456,39.61282992362976
1619378407.89781,-47.48771,39.62845993041992
1619378407.91343,-52.48248,39.64407992362976
1619378407.92906,-59.19209,39.65970993041992
1619378407.94468,-68.58161,39.67532992362976
1619378407.96031,-80.68213,39.69095993041992
1619378407.97594,-94.20171,39.70658993721008
1619378407.99156,-106.4598,39.72220993041992
1619378408.00719,-113.8693,39.73783993721008
1619378408.02281,-112.9986,39.75345993041992
1619378408.03844,-101.7757,39.76908993721008
1619378408.05406,-80.40404,39.78470993041992
1619378408.06969,-51.47696,39.80033993721008
1619378408.08532,-19.21052,39.815969944000244
1619378408.10094,11.9256,39.83158993721008
1619378408.11657,38.52017,39.847219944000244
1619378408.13219,58.96204,39.86283993721008
1619378408.14782,73.28082,39.878469944000244
1619378408.16344,82.43603,39.89408993721008
1619378408.17907,87.4574,39.909719944000244
1619378408.1947,88.9391,39.925349950790405
1619378408.21032,87.07803,39.940969944000244
1619378408.22595,82.09639,39.956599950790405
1619378408.24157,74.6059,39.972219944000244
1619378408.2572,65.73375,39.987849950790405
1619378408.27282,56.88768,40.003469944000244
1619378408.28845,49.29247,40.019099950790405
1619378408.30408,43.66767,40.034729957580566
1619378408.3197,40.13889,40.050349950790405
1619378408.33533,38.38526,40.065979957580566
1619378408.35095,37.98055,40.081599950790405
1619378408.36658,38.58712,40.097229957580566
1619378408.3822,39.97008,40.112849950790405
1619378408.39783,41.81958,40.128479957580566
1619378408.41346,43.57329,40.14410996437073
1619378408.42908,44.40919,40.159729957580566
1619378408.44471,43.46459,40.17535996437073
1619378408.46033,40.17437,40.190979957580566
1619378408.47596,34.58027,40.20660996437073
1619378408.49159,27.43402,40.22223997116089
1619378408.50721,19.91109,40.23785996437073
1619378408.52284,13.18481,40.25348997116089
1619378408.53846,7.957049,40.26910996437073
1619378408.55409,4.172803,40.28473997116089
1619378408.56971,1.088552,40.30035996437073
1619378408.58534,-2.370422,40.31598997116089
1619378408.60097,-7.153692,40.33161997795105
1619378408.61659,-13.60448,40.34723997116089
1619378408.63222,-21.32146,40.36286997795105
1619378408.64784,-29.3879,40.37848997116089
1619378408.66347,-36.70631,40.39411997795105
1619378408.67909,-42.56577,40.40973997116089
1619378408.69472,-46.92086,40.42536997795105
1619378408.71035,-50.49117,40.44099998474121
1619378408.72597,-54.49888,40.45661997795105
1619378408.7416,-60.37442,40.47224998474121
1619378408.75722,-69.32555,40.48786997795105
1619378408.77285,-81.895,40.50349998474121
1619378408.78847,-97.57255,40.51911997795105
1619378408.8041,-114.4612,40.53474998474121
1619378408.81973,-129.3428,40.55037999153137
1619378408.83535,-138.2281,40.56599998474121
1619378408.85098,-137.5204,40.58162999153137
1619378408.8666,-125.2166,40.59724998474121
1619378408.88223,-101.7944,40.61287999153137
1619378408.89785,-70.25244,40.62849998474121
1619378408.91348,-35.11659,40.64412999153137
1619378408.92911,-1.070175,40.65975999832153
1619378408.94473,28.41605,40.67537999153137
1619378408.96036,51.67968,40.69100999832153
1619378408.97598,68.68907,40.70662999153137
1619378408.99161,80.31183,40.72225999832153
1619378409.00723,87.51665,40.73787999153137
1619378409.02286,90.9426,40.75350999832153
1619378409.03849,90.94934,40.769140005111694
1619378409.05411,87.91644,40.78475999832153
1619378409.06974,82.54907,40.800390005111694
1619378409.08536,75.96585,40.81600999832153
1619378409.10099,69.4868,40.831640005111694
1619378409.11661,64.17767,40.84725999832153
1619378409.13224,60.54163,40.862890005111694
1619378409.14787,58.26358,40.878520011901855
1619378409.16349,56.43821,40.894140005111694
1619378409.17912,54.04098,40.909770011901855
1619378409.19474,50.54009,40.925390005111694
1619378409.21037,46.18171,40.941020011901855
1619378409.22599,41.91076,40.956640005111694
1619378409.24162,38.8033,40.972270011901855
1619378409.25725,37.50269,40.98790001869202
1619378409.27287,37.79507,41.003520011901855
1619378409.2885,38.72169,41.01915001869202
1619378409.30412,39.06374,41.034770011901855
1619378409.31975,37.92532,41.05040001869202
1619378409.33537,35.08427,41.066020011901855
1619378409.351,30.94421,41.08165001869202
1619378409.36663,26.3082,41.09728002548218
1619378409.38225,21.85207,41.11290001869202
1619378409.39788,17.86438,41.12853002548218
1619378409.4135,14.07931,41.14415001869202
1619378409.42913,9.834579,41.15978002548218
1619378409.44475,4.310539,41.17540001869202
1619378409.46038,-3.050232,41.19103002548218
1619378409.47601,-12.21875,41.20666003227234
1619378409.49163,-22.48881,41.22228002548218
1619378409.50726,-32.65456,41.23791003227234
1619378409.52288,-41.53127,41.25353002548218
1619378409.53851,-48.5166,41.26916003227234
1619378409.55413,-53.89725,41.28478002548218
1619378409.56976,-58.78939,41.30041003227234
1619378409.58539,-64.68861,41.3160400390625
1619378409.60101,-72.97971,41.33166003227234
1619378409.61664,-84.46371,41.3472900390625
1619378409.63226,-99.17975,41.36291003227234
1619378409.64789,-116.1944,41.3785400390625
1619378409.66351,-133.5885,41.39416003227234
1619378409.67914,-148.4877,41.4097900390625
1619378409.69477,-157.4543,41.42542004585266
1619378409.71039,-157.3205,41.4410400390625
1619378409.72602,-146.2274,41.45667004585266
1619378409.74164,-124.4851,41.4722900390625
1619378409.75727,-94.69946,41.48792004585266
1619378409.77289,-61.05046,41.5035400390625
1619378409.78852,-27.96185,41.51917004585266
1619378409.80415,1.252502,41.53480005264282
1619378409.81977,25.0009,41.55042004585266
1619378409.8354,43.30421,41.56605005264282
1619378409.85102,57.02153,41.58167004585266
1619378409.86665,67.0202,41.59730005264282
1619378409.88227,73.67284,41.61292004585266
1619378409.8979,76.94006,41.62855005264282
1619378409.91353,76.78677,41.64418005943298
1619378409.92915,73.55159,41.65980005264282
1619378409.94478,68.18025,41.67543005943298
1619378409.9604,62.02428,41.69105005264282
1619378409.97603,56.44452,41.70668005943298
1619378409.99165,52.44058,41.72230005264282
1619378410.00728,50.39372,41.73793005943298
1619378410.02291,50.15346,41.753560066223145
1619378410.03853,51.27618,41.76918005943298
1619378410.05416,53.37491,41.784810066223145
1619378410.06978,56.32629,41.80043005943298
1619378410.08541,60.23351,41.816060066223145
1619378410.10103,65.21802,41.83168005943298
1619378410.11666,71.10582,41.847310066223145
1619378410.13229,77.24544,41.86293983459473
1619378410.14791,82.6082,41.878560066223145
1619378410.16354,86.1149,41.89418983459473
1619378410.17916,87.0307,41.909810066223145
1619378410.19479,85.32944,41.92543983459473
1619378410.21041,81.64827,41.941060066223145
1619378410.22604,77.08281,41.95668983459473
1619378410.24167,72.69527,41.97231984138489
1619378410.25729,69.18304,41.98793983459473
1619378410.27292,66.59793,42.00356984138489
1619378410.28854,64.49646,42.01918983459473
1619378410.30417,62.20053,42.03481984138489
1619378410.31979,59.1552,42.05043983459473
1619378410.33542,55.10225,42.06606984138489
1619378410.35105,50.16333,42.08169984817505
1619378410.36667,44.772,42.09731984138489
1619378410.3823,39.44894,42.11294984817505
1619378410.39792,34.7424,42.12856984138489
1619378410.41355,31.11993,42.14419984817505
1619378410.42917,28.85796,42.15981984138489
1619378410.4448,27.97649,42.17544984817505
1619378410.46043,28.214,42.19107985496521
1619378410.47605,28.97998,42.20669984817505
1619378410.49168,29.45721,42.22232985496521
1619378410.5073,28.71221,42.23794984817505
1619378410.52293,25.85706,42.25357985496521
1619378410.53855,20.36932,42.26919984817505
1619378410.55418,12.26399,42.28482985496521
1619378410.56981,2.306763,42.30045986175537
1619378410.58543,-7.984482,42.31607985496521
1619378410.60106,-16.58981,42.33170986175537
1619378410.61668,-21.39774,42.34732985496521
1619378410.63231,-20.84273,42.36295986175537
1619378410.64793,-14.2747,42.37857985496521
1619378410.66356,-2.287197,42.39420986175537
1619378410.67919,13.51597,42.40983986854553
1619378410.69481,30.9463,42.42545986175537
1619378410.71044,47.83191,42.44108986854553
1619378410.72606,62.48722,42.45670986175537
1619378410.74169,73.95876,42.47233986854553
1619378410.75731,81.9687,42.48795986175537
1619378410.77294,86.78043,42.50358986854553
1619378410.78857,88.98143,42.51921987533569
1619378410.80419,89.18915,42.53483986854553
1619378410.81982,87.90968,42.55046987533569
1619378410.83544,85.29059,42.56608986854553
1619378410.85107,81.09327,42.58171987533569
1619378410.86669,74.69957,42.59733986854553
1619378410.88232,65.30028,42.61296987533569
1619378410.89795,52.28291,42.628599882125854
1619378410.91357,35.5426,42.64421987533569
1619378410.9292,15.72778,42.659849882125854
1619378410.94482,-5.852158,42.67546987533569
1619378410.96045,-27.55643,42.691099882125854
1619378410.97607,-47.95042,42.70671987533569
1619378410.9917,-66.12456,42.722349882125854
1619378411.00733,-81.82455,42.737979888916016
1619378411.02295,-95.21658,42.753599882125854
1619378411.03858,-106.4666,42.769229888916016
1619378411.0542,-115.4971,42.784849882125854
1619378411.06983,-121.8425,42.800479888916016
1619378411.08546,-125.0326,42.81610989570618
1619378411.10108,-124.8925,42.831729888916016
1619378411.11671,-121.8249,42.84735989570618
1619378411.13233,-116.7429,42.862979888916016
1619378411.14796,-110.7522,42.87860989570618
1619378411.16358,-104.7261,42.894229888916016
1619378411.17921,-99.02628,42.90985989570618
1619378411.19484,-93.58995,42.92548990249634
1619378411.21046,-88.18344,42.94110989570618
1619378411.22609,-82.74013,42.95673990249634
1619378411.24171,-77.58815,42.97235989570618
1619378411.25734,-73.35242,42.98798990249634
1619378411.27296,-70.7112,43.00360989570618
1619378411.28859,-70.06711,43.01923990249634
1619378411.30422,-71.32327,43.0348699092865
1619378411.31984,-73.85497,43.05048990249634
1619378411.33547,-76.69679,43.0661199092865
1619378411.35109,-78.85072,43.08173990249634
1619378411.36672,-79.72795,43.0973699092865
1619378411.38234,-79.42816,43.11298990249634
1619378411.39797,-78.73921,43.1286199092865
1619378411.4136,-78.87675,43.14424991607666
1619378411.42922,-81.00795,43.1598699092865
1619378411.44485,-85.7522,43.17549991607666
1619378411.46047,-92.91768,43.1911199092865
1619378411.4761,-101.6149,43.20674991607666
1619378411.49172,-110.6123,43.2223699092865
1619378411.50735,-118.8257,43.23799991607666
1619378411.52298,-125.7143,43.25362992286682
1619378411.5386,-131.4045,43.26924991607666
1619378411.55423,-136.6258,43.28487992286682
1619378411.56985,-142.5308,43.30049991607666
1619378411.58548,-150.4329,43.31612992286682
1619378411.6011,-161.4874,43.33174991607666
1619378411.61673,-176.1691,43.34737992286682
1619378411.63236,-193.6609,43.36300992965698
1619378411.64798,-211.4793,43.37862992286682
1619378411.66361,-225.663,43.39425992965698
1619378411.67923,-231.6348,43.40987992286682
1619378411.69486,-225.5728,43.42550992965698
1619378411.71048,-205.6526,43.44112992286682
1619378411.72611,-172.6667,43.45675992965698
1619378411.74174,-129.7423,43.472389936447144
1619378411.75736,-81.35165,43.48800992965698
1619378411.77299,-32.13135,43.503639936447144
1619378411.78861,14.09024,43.51925992965698
1619378411.80424,54.78283,43.534889936447144
1619378411.81986,88.64975,43.55050992965698
1619378411.83549,115.3989,43.566139936447144
1619378411.85112,135.4248,43.581769943237305
1619378411.86674,149.5182,43.597389936447144
1619378411.88237,158.6606,43.613019943237305
1619378411.89799,163.8409,43.628639936447144
1619378411.91362,166.0259,43.644269943237305
1619378411.92924,166.1341,43.659889936447144
1619378411.94487,165.1893,43.675519943237305
1619378411.9605,164.2887,43.691149950027466
1619378411.97612,164.4094,43.706769943237305
1619378411.99175,166.1395,43.722399950027466
1619378412.00737,169.4719,43.738019943237305
1619378412.023,173.8339,43.753649950027466
1619378412.03862,178.3618,43.769269943237305
1619378412.05425,182.3709,43.784899950027466
1619378412.06988,185.5619,43.80052995681763
1619378412.0855,188.0788,43.816149950027466
1619378412.10113,190.2135,43.83177995681763
1619378412.11675,192.0579,43.847399950027466
1619378412.13238,193.2689,43.86302995681763
1619378412.148,193.1232,43.878649950027466
1619378412.16363,190.8082,43.89427995681763
1619378412.17926,185.7664,43.90990996360779
1619378412.19488,177.9716,43.92552995681763
1619378412.21051,167.9177,43.94115996360779
1619378412.22613,156.359,43.95677995681763
1619378412.24176,143.9813,43.97240996360779
1619378412.25738,131.1606,43.98802995681763
1619378412.27301,117.9112,44.00365996360779
1619378412.28864,104.0756,44.01928997039795
1619378412.30426,89.57072,44.03490996360779
1619378412.31989,74.59204,44.05053997039795
1619378412.33551,59.66036,44.06615996360779
1619378412.35114,45.46703,44.08178997039795
1619378412.36676,32.64648,44.09740996360779
1619378412.38239,21.54388,44.11303997039795
1619378412.39802,12.05185,44.12866997718811
1619378412.41364,3.620697,44.14428997039795
1619378412.42927,-4.536377,44.15991997718811
1619378412.44489,-13.1828,44.17553997039795
1619378412.46052,-22.72086,44.19116997718811
1619378412.47614,-33.02927,44.20678997039795
1619378412.49177,-43.48458,44.22241997718811
1619378412.5074,-53.1953,44.23804998397827
1619378412.52302,-61.44802,44.25366997718811
1619378412.53865,-68.05385,44.26929998397827
1619378412.55427,-73.53841,44.28491997718811
1619378412.5699,-79.05073,44.30054998397827
1619378412.58552,-86.07369,44.31616997718811
1619378412.60115,-95.9227,44.33179998397827
1619378412.61678,-109.2761,44.34742999076843
1619378412.6324,-125.6544,44.36304998397827
1619378412.64803,-143.1209,44.37867999076843
1619378412.66365,-158.3183,44.39429998397827
1619378412.67928,-167.162,44.40992999076843
1619378412.6949,-165.9115,44.42554998397827
1619378412.71053,-152.4645,44.44117999076843
1619378412.72616,-127.2893,44.456809997558594
1619378412.74178,-93.42778,44.47242999076843
1619378412.75741,-55.63816,44.488059997558594
1619378412.77303,-18.92974,44.50367999076843
1619378412.78866,12.87212,44.519309997558594
1619378412.80428,37.86524,44.53492999076843
1619378412.81991,55.93877,44.550559997558594
1619378412.83554,68.05342,44.566190004348755
1619378412.85116,75.36871,44.581809997558594
1619378412.86679,78.7953,44.597440004348755
1619378412.88241,78.90555,44.613059997558594
1619378412.89804,76.25267,44.628690004348755
1619378412.91366,71.58228,44.644309997558594
1619378412.92929,65.89391,44.659940004348755
1619378412.94492,60.2422,44.675570011138916
1619378412.96054,55.47024,44.691190004348755
1619378412.97617,52.03475,44.706820011138916
1619378412.99179,49.96218,44.722440004348755
1619378413.00742,49.01995,44.738070011138916
1619378413.02304,48.85669,44.753690004348755
1619378413.03867,49.17609,44.769320011138916
1619378413.0543,49.76701,44.78495001792908
1619378413.06992,50.45276,44.800570011138916
1619378413.08555,50.98494,44.81620001792908
1619378413.10117,50.99383,44.831820011138916
1619378413.1168,50.01605,44.84745001792908
1619378413.13242,47.59614,44.863070011138916
1619378413.14805,43.56956,44.87870001792908
1619378413.16368,38.09181,44.89433002471924
1619378413.1793,31.70439,44.90995001792908
1619378413.19493,25.11497,44.92558002471924
1619378413.21055,18.88725,44.94120001792908
1619378413.22618,13.21182,44.95683002471924
1619378413.2418,7.811615,44.97245001792908
1619378413.25743,2.161934,44.98808002471924
1619378413.27306,-4.204384,45.0037100315094
1619378413.28868,-11.36148,45.01933002471924
1619378413.30431,-18.9595,45.0349600315094
1619378413.31993,-26.3038,45.05058002471924
1619378413.33556,-32.79395,45.0662100315094
1619378413.35119,-38.25805,45.08184003829956
1619378413.36681,-43.02402,45.0974600315094
1619378413.38244,-47.83811,45.11309003829956
1619378413.39806,-53.4054,45.1287100315094
1619378413.41369,-60.08458,45.14434003829956
1619378413.42931,-67.65271,45.1599600315094
1619378413.44494,-75.47744,45.17559003829956
1619378413.46057,-82.80481,45.19122004508972
1619378413.47619,-89.09698,45.20684003829956
1619378413.49182,-94.3024,45.22247004508972
1619378413.50744,-98.82933,45.23809003829956
1619378413.52307,-103.4635,45.25372004508972
1619378413.53869,-109.1912,45.26934003829956
1619378413.55432,-117.0046,45.28497004508972
1619378413.56995,-127.4811,45.30060005187988
1619378413.58557,-140.3441,45.31622004508972
1619378413.6012,-154.0048,45.33185005187988
1619378413.61682,-165.4057,45.34747004508972
1619378413.63245,-170.5968,45.36310005187988
1619378413.64807,-165.8371,45.37872004508972
1619378413.6637,-149.007,45.39435005187988
1619378413.67933,-120.6833,45.409980058670044
1619378413.69495,-84.21594,45.42560005187988
1619378413.71058,-44.72887,45.441230058670044
1619378413.7262,-7.523712,45.45685005187988
1619378413.74183,23.51472,45.472480058670044
1619378413.75745,46.78958,45.48810005187988
1619378413.77308,62.7473,45.503730058670044
1619378413.78871,73.01505,45.519360065460205
1619378413.80433,79.35187,45.534980058670044
1619378413.81996,82.91039,45.550610065460205
1619378413.83558,84.17953,45.566230058670044
1619378413.85121,83.3629,45.581860065460205
1619378413.86683,80.81679,45.597480058670044
1619378413.88246,77.24701,45.613110065460205
1619378413.89809,73.6384,45.62873983383179
1619378413.91371,70.82336,45.644360065460205
1619378413.92934,69.23447,45.65998983383179
1619378413.94496,68.78207,45.675610065460205
1619378413.96059,69.00809,45.69123983383179
1619378413.97621,69.4776,45.706860065460205
1619378413.99184,69.9332,45.72248983383179
1619378414.00747,70.41216,45.73811984062195
1619378414.02309,70.96596,45.75373983383179
1619378414.03872,71.569,45.76936984062195
1619378414.05434,71.85548,45.78498983383179
1619378414.06997,71.30295,45.80061984062195
1619378414.08559,69.44727,45.81623983383179
1619378414.10122,66.07179,45.83186984062195
1619378414.11685,61.33652,45.84749984741211
1619378414.13247,55.60005,45.86311984062195
1619378414.1481,49.25453,45.87874984741211
1619378414.16372,42.53676,45.89436984062195
1619378414.17935,35.55859,45.90999984741211
1619378414.19497,28.34315,45.92561984062195
1619378414.2106,20.97289,45.94124984741211
