timestamp,value,norm_ts
1619090582.23659,-7.95615,3.4116899967193604
1619090582.25221,-6.334234,3.427309989929199
1619090582.26784,-4.607679,3.4429399967193604
1619090582.28346,-2.860085,3.458559989929199
1619090582.29909,-1.154661,3.4741899967193604
1619090582.31472,0.4312172,3.4898200035095215
1619090582.33034,1.83721,3.5054399967193604
1619090582.34597,2.997055,3.5210700035095215
1619090582.36159,3.901466,3.5366899967193604
1619090582.37722,4.588835,3.5523200035095215
1619090582.39284,5.134539,3.5679399967193604
1619090582.40847,5.627541,3.5835700035095215
1619090582.4241,6.131496,3.5992000102996826
1619090582.43972,6.65589,3.6148200035095215
1619090582.45535,7.139397,3.6304500102996826
1619090582.47097,7.510244,3.6460700035095215
1619090582.4866,7.686354,3.6617000102996826
1619090582.50222,7.598297,3.6773200035095215
1619090582.51785,7.234369,3.6929500102996826
1619090582.53348,6.63517,3.7085800170898438
1619090582.5491,5.908266,3.7242000102996826
1619090582.56473,5.226101,3.7398300170898438
1619090582.58035,4.723368,3.7554500102996826
1619090582.59598,4.456036,3.7710800170898438
1619090582.6116,4.379669,3.7867000102996826
1619090582.62723,4.335245,3.8023300170898438
1619090582.64286,4.172215,3.817960023880005
1619090582.65848,3.817772,3.8335800170898438
1619090582.67411,3.319874,3.849210023880005
1619090582.68973,2.803596,3.8648300170898438
1619090582.70536,2.386053,3.880460023880005
1619090582.72098,2.116865,3.8960800170898438
1619090582.73661,1.985693,3.911710023880005
1619090582.75224,1.951031,3.927340030670166
1619090582.76786,1.989618,3.942960023880005
1619090582.78349,2.052208,3.958590030670166
1619090582.79911,2.119282,3.974210023880005
1619090582.81474,2.123285,3.989840030670166
1619090582.83036,2.026377,4.005460023880005
1619090582.84599,1.823769,4.021090030670166
1619090582.86162,1.557159,4.036720037460327
1619090582.87724,1.263796,4.052340030670166
1619090582.89287,0.8852615,4.067970037460327
1619090582.90849,0.3283844,4.083590030670166
1619090582.92412,-0.4941559,4.099220037460327
1619090582.93974,-1.553085,4.114840030670166
1619090582.95537,-2.624432,4.130470037460327
1619090582.971,-3.388493,4.146100044250488
1619090582.98662,-3.607141,4.161720037460327
1619090583.00225,-3.284712,4.177350044250488
1619090583.01787,-2.664757,4.192970037460327
1619090583.0335,-2.061539,4.208600044250488
1619090583.04912,-1.664719,4.224220037460327
1619090583.06475,-1.412518,4.239850044250488
1619090583.08038,-1.125141,4.255480051040649
1619090583.096,-0.7367287,4.271100044250488
1619090583.11163,-0.4063053,4.286730051040649
1619090583.12725,-0.4656258,4.302350044250488
1619090583.14288,-1.220255,4.317980051040649
1619090583.1585,-2.647692,4.333600044250488
1619090583.17413,-4.373653,4.349230051040649
1619090583.18976,-5.833195,4.3648600578308105
1619090583.20538,-6.585695,4.380480051040649
1619090583.22101,-6.613245,4.3961100578308105
1619090583.23663,-6.371992,4.411730051040649
1619090583.25226,-6.481728,4.4273600578308105
1619090583.26788,-7.367266,4.442980051040649
1619090583.28351,-8.957933,4.4586100578308105
1619090583.29914,-10.68021,4.474240064620972
1619090583.31476,-11.78548,4.4898600578308105
1619090583.33039,-11.72812,4.505490064620972
1619090583.34601,-10.45441,4.5211100578308105
1619090583.36164,-8.358423,4.536740064620972
1619090583.37726,-6.052114,4.5523600578308105
1619090583.39289,-4.04021,4.567990064620972
1619090583.40852,-2.450089,4.583620071411133
1619090583.42414,-1.102291,4.599240064620972
1619090583.43977,0.2774878,4.614870071411133
1619090583.45539,1.805375,4.630490064620972
1619090583.47102,3.36811,4.646120071411133
1619090583.48664,4.665874,4.661740064620972
1619090583.50227,5.494271,4.677370071411133
1619090583.5179,5.844483,4.693000078201294
1619090583.53352,5.981501,4.708620071411133
1619090583.54915,6.27949,4.724250078201294
1619090583.56477,6.990743,4.739870071411133
1619090583.5804,8.095262,4.755500078201294
1619090583.59602,9.286887,4.771120071411133
1619090583.61165,10.16459,4.786750078201294
1619090583.62728,10.39071,4.802380084991455
1619090583.6429,9.918208,4.818000078201294
1619090583.65853,8.949073,4.833630084991455
1619090583.67415,7.8456,4.849250078201294
1619090583.68978,6.995327,4.864880084991455
1619090583.70541,6.66899,4.880510091781616
1619090583.72103,6.955962,4.896130084991455
1619090583.73666,7.757563,4.911760091781616
1619090583.75228,8.879498,4.927380084991455
1619090583.76791,10.03189,4.943010091781616
1619090583.78353,10.99119,4.958630084991455
1619090583.79916,11.5747,4.974260091781616
1619090583.81479,11.75955,4.989890098571777
1619090583.83041,11.65293,5.005510091781616
1619090583.84604,11.36928,5.021140098571777
1619090583.86166,10.97664,5.036760091781616
1619090583.87729,10.44376,5.052390098571777
1619090583.89291,9.683254,5.068010091781616
1619090583.90854,8.690564,5.083640098571777
1619090583.92417,7.658893,5.0992701053619385
1619090583.93979,6.897485,5.114890098571777
1619090583.95542,6.639103,5.1305201053619385
1619090583.97104,6.88269,5.146140098571777
1619090583.98667,7.318413,5.1617701053619385
1619090584.00229,7.543003,5.177390098571777
1619090584.01792,7.293259,5.1930201053619385
1619090584.03355,6.586281,5.2086501121521
1619090584.04917,5.70632,5.2242701053619385
1619090584.0648,4.998487,5.2399001121521
1619090584.08042,4.639544,5.2555201053619385
1619090584.09605,4.484135,5.2711501121521
1619090584.11167,4.206108,5.2867701053619385
1619090584.1273,3.444572,5.3024001121521
1619090584.14293,2.136854,5.318030118942261
1619090584.15855,0.5017872,5.3336501121521
1619090584.17418,-1.058592,5.349280118942261
1619090584.1898,-2.164312,5.3649001121521
1619090584.20543,-2.659496,5.380530118942261
1619090584.22105,-2.676311,5.3961501121521
1619090584.23668,-2.56493,5.411780118942261
1619090584.25231,-2.707853,5.427410125732422
1619090584.26793,-3.386875,5.443030118942261
1619090584.28356,-4.592466,5.458660125732422
1619090584.29918,-6.133947,5.474280118942261
1619090584.31481,-7.70467,5.489910125732422
1619090584.33043,-9.023998,5.505530118942261
1619090584.34606,-9.990322,5.521160125732422
1619090584.36169,-10.66592,5.536790132522583
1619090584.37731,-11.1415,5.552410125732422
1619090584.39294,-11.43636,5.568040132522583
1619090584.40856,-11.48584,5.583660125732422
1619090584.42419,-11.1383,5.599290132522583
1619090584.43981,-10.33179,5.614910125732422
1619090584.45544,-9.159885,5.630540132522583
1619090584.47107,-7.83535,5.646170139312744
1619090584.48669,-6.619915,5.661790132522583
1619090584.50232,-5.657108,5.677420139312744
1619090584.51794,-4.912952,5.693040132522583
1619090584.53357,-4.25869,5.708670139312744
1619090584.54919,-3.567139,5.724290132522583
1619090584.56482,-2.839962,5.739920139312744
1619090584.58045,-2.180107,5.755550146102905
1619090584.59607,-1.714008,5.771170139312744
1619090584.6117,-1.468361,5.786800146102905
1619090584.62732,-1.390545,5.802420139312744
1619090584.64295,-1.337479,5.818050146102905
1619090584.65857,-1.174778,5.833670139312744
1619090584.6742,-0.8507271,5.849300146102905
1619090584.68983,-0.3689232,5.864930152893066
1619090584.70545,0.2222862,5.880550146102905
1619090584.72108,0.8390045,5.896180152893066
1619090584.7367,1.40435,5.911800146102905
1619090584.75233,1.857914,5.927430152893066
1619090584.76795,2.142532,5.943050146102905
1619090584.78358,2.268768,5.958680152893066
1619090584.79921,2.315834,5.9743101596832275
1619090584.81483,2.360523,5.989930152893066
1619090584.83046,2.488106,6.0055601596832275
1619090584.84608,2.712482,6.021180152893066
1619090584.86171,2.909794,6.0368101596832275
1619090584.87733,2.928917,6.052430152893066
1619090584.89296,2.656765,6.0680601596832275
1619090584.90859,2.087467,6.083690166473389
1619090584.92421,1.364365,6.0993101596832275
1619090584.93984,0.7099228,6.114940166473389
1619090584.95546,0.3164482,6.1305601596832275
1619090584.97109,0.2722244,6.146190166473389
1619090584.98671,0.5528107,6.1618101596832275
1619090585.00234,1.008778,6.177440166473389
1619090585.01797,1.442169,6.19307017326355
1619090585.03359,1.641338,6.208690166473389
1619090585.04922,1.457779,6.22432017326355
1619090585.06484,0.8612709,6.239940166473389
1619090585.08047,-0.02814865,6.25557017326355
1619090585.09609,-0.9765625,6.271190166473389
1619090585.11172,-1.703148,6.28682017326355
1619090585.12735,-2.008053,6.302450180053711
1619090585.14297,-1.887665,6.31807017326355
1619090585.1586,-1.55098,6.333700180053711
1619090585.17422,-1.390781,6.34932017326355
1619090585.18985,-1.770584,6.364950180053711
1619090585.20547,-2.867599,6.38057017326355
1619090585.2211,-4.565022,6.396200180053711
1619090585.23673,-6.513103,6.411830186843872
1619090585.25235,-8.326069,6.427450180053711
1619090585.26798,-9.755749,6.443080186843872
1619090585.2836,-10.77433,6.458700180053711
1619090585.29923,-11.4874,6.474330186843872
1619090585.31485,-12.00328,6.489950180053711
1619090585.33048,-12.36839,6.505580186843872
1619090585.34611,-12.55272,6.521210193634033
1619090585.36173,-12.57191,6.536830186843872
1619090585.37736,-12.53986,6.552460193634033
1619090585.39298,-12.64622,6.568080186843872
1619090585.40861,-13.01663,6.583710193634033
1619090585.42423,-13.62448,6.599330186843872
1619090585.43986,-14.25257,6.614960193634033
1619090585.45549,-14.54607,6.630590200424194
1619090585.47111,-14.23674,6.646210193634033
1619090585.48674,-13.24464,6.661840200424194
1619090585.50236,-11.72806,6.677460193634033
1619090585.51799,-9.999203,6.693090200424194
1619090585.53361,-8.338123,6.708710193634033
1619090585.54924,-6.867416,6.724340200424194
1619090585.56487,-5.544689,6.7399702072143555
1619090585.58049,-4.244972,6.755590200424194
1619090585.59612,-2.876408,6.7712202072143555
1619090585.61174,-1.504169,6.786840200424194
1619090585.62737,-0.304348,6.8024702072143555
1619090585.64299,0.5463715,6.818090200424194
1619090585.65862,1.012321,6.8337202072143555
1619090585.67425,1.259483,6.8493499755859375
1619090585.68987,1.647732,6.8649702072143555
1619090585.7055,2.515827,6.8805999755859375
1619090585.72112,4.062782,6.8962202072143555
1619090585.73675,6.244511,6.9118499755859375
1619090585.75237,8.778206,6.9274702072143555
1619090585.768,11.33746,6.9430999755859375
1619090585.78363,13.72433,6.958729982376099
1619090585.79925,15.86939,6.9743499755859375
1619090585.81488,17.80074,6.989979982376099
1619090585.8305,19.528,7.0055999755859375
1619090585.84613,20.92776,7.021229982376099
1619090585.86175,21.84952,7.0368499755859375
1619090585.87738,22.24798,7.052479982376099
1619090585.89301,22.29169,7.06810998916626
1619090585.90863,22.32741,7.083729982376099
1619090585.92426,22.71117,7.09935998916626
1619090585.93988,23.5406,7.114979982376099
1619090585.95551,24.56552,7.13060998916626
1619090585.97113,25.29608,7.146229982376099
1619090585.98676,25.26212,7.16185998916626
1619090586.00239,24.26455,7.177489995956421
1619090586.01801,22.45786,7.19310998916626
1619090586.03364,20.23103,7.208739995956421
1619090586.04926,17.94085,7.22435998916626
1619090586.06489,15.77751,7.239989995956421
1619090586.08051,13.71954,7.25560998916626
1619090586.09614,11.69594,7.271239995956421
1619090586.11177,9.729019,7.286870002746582
1619090586.12739,7.92532,7.302489995956421
1619090586.14302,6.440311,7.318120002746582
1619090586.15864,5.324402,7.333739995956421
1619090586.17427,4.484798,7.349370002746582
1619090586.18989,3.69883,7.364989995956421
1619090586.20552,2.763721,7.380620002746582
1619090586.22115,1.605682,7.396250009536743
1619090586.23677,0.3507233,7.411870002746582
1619090586.2524,-0.8006744,7.427500009536743
1619090586.26802,-1.686104,7.443120002746582
1619090586.28365,-2.331604,7.458750009536743
1619090586.29928,-3.016037,7.474380016326904
1619090586.3149,-4.145485,7.490000009536743
1619090586.33053,-6.048584,7.505630016326904
1619090586.34615,-8.768089,7.521250009536743
1619090586.36178,-11.97302,7.536880016326904
1619090586.3774,-15.0705,7.552500009536743
1619090586.39303,-17.51417,7.568130016326904
1619090586.40866,-19.04762,7.583760023117065
1619090586.42428,-19.81454,7.599380016326904
1619090586.43991,-20.20295,7.615010023117065
1619090586.45553,-20.59211,7.630630016326904
1619090586.47116,-21.19106,7.646260023117065
1619090586.48678,-21.95715,7.661880016326904
1619090586.50241,-22.80116,7.677510023117065
1619090586.51804,-23.65978,7.693140029907227
1619090586.53366,-24.52824,7.708760023117065
1619090586.54929,-25.38631,7.724390029907227
1619090586.56491,-26.06385,7.740010023117065
1619090586.58054,-26.24799,7.755640029907227
1619090586.59616,-25.63655,7.771260023117065
1619090586.61179,-24.10974,7.786890029907227
1619090586.62742,-21.91215,7.802520036697388
1619090586.64304,-19.6538,7.818140029907227
1619090586.65867,-18.12687,7.833770036697388
1619090586.67429,-18.02335,7.849390029907227
1619090586.68992,-19.66196,7.865020036697388
1619090586.70554,-22.83134,7.880640029907227
1619090586.72117,-26.84842,7.896270036697388
1619090586.7368,-30.75006,7.911900043487549
1619090586.75242,-33.66273,7.927520036697388
1619090586.76805,-35.06816,7.943150043487549
1619090586.78367,-34.97775,7.958770036697388
1619090586.7993,-33.83154,7.974400043487549
1619090586.81492,-32.28232,7.990020036697388
1619090586.83055,-30.82938,8.005650043487549
1619090586.84618,-29.71305,8.02128005027771
1619090586.8618,-28.9322,8.036900043487549
1619090586.87743,-28.37686,8.05253005027771
1619090586.89305,-27.97951,8.068150043487549
1619090586.90868,-27.69125,8.08378005027771
1619090586.9243,-27.35336,8.099400043487549
1619090586.93993,-26.60616,8.11503005027771
1619090586.95556,-24.931,8.130660057067871
1619090586.97118,-21.91149,8.14628005027771
1619090586.98681,-17.51793,8.161910057067871
1619090587.00243,-12.33723,8.17753005027771
1619090587.01806,-7.380991,8.193160057067871
1619090587.03368,-3.740824,8.20878005027771
1619090587.04931,-2.182791,8.224410057067871
1619090587.06494,-2.910414,8.240040063858032
1619090587.08056,-5.608662,8.255660057067871
1619090587.09619,-9.76705,8.271290063858032
1619090587.11181,-14.90641,8.286910057067871
1619090587.12744,-20.55942,8.302540063858032
1619090587.14306,-26.11692,8.318160057067871
1619090587.15869,-30.5753,8.333790063858032
1619090587.17432,-32.57766,8.349420070648193
1619090587.18994,-30.84666,8.365040063858032
1619090587.20557,-24.76452,8.380670070648193
1619090587.22119,-14.85211,8.396290063858032
1619090587.23682,-2.766615,8.411920070648193
1619090587.25244,9.226566,8.427540063858032
1619090587.26807,19.04992,8.443170070648193
1619090587.2837,25.52353,8.458800077438354
1619090587.29932,28.63876,8.474420070648193
1619090587.31495,29.1914,8.490050077438354
1619090587.33057,28.21749,8.505670070648193
1619090587.3462,26.49028,8.521300077438354
1619090587.36182,24.38637,8.536920070648193
1619090587.37745,22.13109,8.552550077438354
1619090587.39308,20.06224,8.568180084228516
1619090587.4087,18.70898,8.583800077438354
1619090587.42433,18.5785,8.599430084228516
1619090587.43995,19.76377,8.615050077438354
1619090587.45558,21.73579,8.630680084228516
1619090587.4712,23.5285,8.646300077438354
1619090587.48683,24.28485,8.661930084228516
1619090587.50246,23.76708,8.677560091018677
1619090587.51808,22.61895,8.693180084228516
1619090587.53371,22.11862,8.708810091018677
1619090587.54933,23.51706,8.724430084228516
1619090587.56496,27.39059,8.740060091018677
1619090587.58058,33.34814,8.755680084228516
1619090587.59621,40.20022,8.771310091018677
1619090587.61184,46.4381,8.786940097808838
1619090587.62746,50.83952,8.802560091018677
1619090587.64309,52.75871,8.818190097808838
1619090587.65871,52.17765,8.833810091018677
1619090587.67434,49.56124,8.849440097808838
1619090587.68996,45.59228,8.865060091018677
1619090587.70559,40.99248,8.880690097808838
1619090587.72122,36.36226,8.896320104598999
1619090587.73684,32.17238,8.911940097808838
1619090587.75247,28.74915,8.927570104598999
1619090587.76809,26.29462,8.943190097808838
1619090587.78372,24.82172,8.958820104598999
1619090587.79934,24.16994,8.974440097808838
1619090587.81497,24.03743,8.990070104598999
1619090587.8306,23.99549,9.00570011138916
1619090587.84622,23.62535,9.021320104598999
1619090587.86185,22.58632,9.03695011138916
1619090587.87747,20.76999,9.052570104598999
1619090587.8931,18.34377,9.06820011138916
1619090587.90872,15.69754,9.083820104598999
1619090587.92435,13.32862,9.09945011138916
1619090587.93998,11.6582,9.115080118179321
1619090587.9556,10.89642,9.13070011138916
1619090587.97123,10.97976,9.146330118179321
1619090587.98685,11.62242,9.16195011138916
1619090588.00248,12.37581,9.177580118179321
1619090588.0181,12.81169,9.19320011138916
1619090588.03373,12.58947,9.208830118179321
1619090588.04936,11.52702,9.224460124969482
1619090588.06498,9.582855,9.240080118179321
1619090588.08061,6.820862,9.255710124969482
1619090588.09623,3.34256,9.271330118179321
1619090588.11186,-0.7152023,9.286960124969482
1619090588.12748,-5.099213,9.302580118179321
1619090588.14311,-9.401306,9.318210124969482
1619090588.15874,-13.00864,9.333840131759644
1619090588.17436,-15.26334,9.349460124969482
1619090588.18999,-15.63283,9.365090131759644
1619090588.20561,-13.96535,9.380710124969482
1619090588.22124,-10.55851,9.396340131759644
1619090588.23686,-6.122025,9.411960124969482
1619090588.25249,-1.550392,9.427590131759644
1619090588.26812,2.358093,9.443220138549805
1619090588.28374,4.968285,9.458840131759644
1619090588.29937,5.882332,9.474470138549805
1619090588.31499,5.008049,9.490090131759644
1619090588.33062,2.5354,9.505720138549805
1619090588.34624,-0.9953766,9.521340131759644
1619090588.36187,-4.691093,9.536970138549805
1619090588.3775,-7.420181,9.552600145339966
1619090588.39312,-8.089172,9.568220138549805
1619090588.40875,-5.979034,9.583850145339966
1619090588.42437,-1.044411,9.599470138549805
1619090588.44,6.004921,9.615100145339966
1619090588.45562,13.89348,9.630720138549805
1619090588.47125,21.08331,9.646350145339966
1619090588.48688,26.15271,9.661980152130127
1619090588.5025,28.08368,9.677600145339966
1619090588.51813,26.50786,9.693230152130127
1619090588.53375,21.71463,9.708850145339966
1619090588.54938,14.57307,9.724480152130127
1619090588.56501,6.25555,9.740110158920288
1619090588.58063,-2.006149,9.755730152130127
1619090588.59626,-9.208336,9.771360158920288
1619090588.61188,-14.71137,9.786980152130127
1619090588.62751,-18.21,9.802610158920288
1619090588.64313,-19.75816,9.818230152130127
1619090588.65876,-19.60752,9.833860158920288
1619090588.67439,-18.2235,9.84949016571045
1619090588.69001,-16.09083,9.865110158920288
1619090588.70564,-13.66751,9.88074016571045
1619090588.72126,-11.20964,9.896360158920288
1619090588.73689,-8.758736,9.91199016571045
1619090588.75251,-6.254131,9.927610158920288
1619090588.76814,-3.542904,9.94324016571045
1619090588.78377,-0.6208973,9.95887017250061
1619090588.79939,2.318756,9.97449016571045
1619090588.81502,4.928753,9.99012017250061
1619090588.83064,6.861925,10.00574016571045
1619090588.84627,7.859419,10.02137017250061
1619090588.86189,7.854441,10.03699016571045
1619090588.87752,7.002136,10.05262017250061
1619090588.89315,5.65638,10.068250179290771
1619090588.90877,4.324873,10.08387017250061
1619090588.9244,3.497477,10.099500179290771
1619090588.94002,3.505808,10.11512017250061
1619090588.95565,4.385955,10.130750179290771
1619090588.97127,5.893443,10.14637017250061
1619090588.9869,7.646913,10.162000179290771
1619090589.00253,9.328129,10.177630186080933
1619090589.01815,10.79708,10.193250179290771
1619090589.03378,12.1274,10.208880186080933
1619090589.0494,13.41011,10.224500179290771
1619090589.06503,14.56894,10.240130186080933
1619090589.08065,15.41067,10.255750179290771
1619090589.09628,15.71448,10.271380186080933
1619090589.11191,15.42236,10.287010192871094
1619090589.12753,14.7551,10.302630186080933
1619090589.14316,14.03077,10.318260192871094
1619090589.15878,13.516,10.333880186080933
1619090589.17441,13.27091,10.349510192871094
1619090589.19003,13.13383,10.365130186080933
1619090589.20566,12.80414,10.380760192871094
1619090589.22129,11.95224,10.396390199661255
1619090589.23691,10.34273,10.412010192871094
1619090589.25254,7.781534,10.427640199661255
1619090589.26816,4.295706,10.443260192871094
1619090589.28379,0.09737587,10.458890199661255
1619090589.29941,-4.399521,10.474510192871094
1619090589.31504,-8.660866,10.490140199661255
1619090589.33067,-12.20085,10.505770206451416
1619090589.34629,-14.70558,10.521390199661255
1619090589.36192,-16.08761,10.537020206451416
1619090589.37754,-16.4794,10.552640199661255
1619090589.39317,-16.16951,10.568270206451416
1619090589.40879,-15.47631,10.583890199661255
1619090589.42442,-14.80034,10.599520206451416
1619090589.44005,-14.55223,10.615149974822998
1619090589.45567,-15.05379,10.630770206451416
1619090589.4713,-16.41298,10.646399974822998
1619090589.48692,-18.38969,10.662020206451416
1619090589.50255,-20.4197,10.677649974822998
1619090589.51817,-21.86473,10.693270206451416
1619090589.5338,-22.18903,10.708899974822998
1619090589.54943,-21.18347,10.72452998161316
1619090589.56505,-18.95143,10.740149974822998
1619090589.58068,-15.70657,10.75577998161316
1619090589.5963,-11.70558,10.771399974822998
1619090589.61193,-7.219391,10.78702998161316
1619090589.62755,-2.571983,10.802649974822998
1619090589.64318,1.723244,10.81827998161316
1619090589.65881,5.065956,10.83390998840332
1619090589.67443,6.983452,10.84952998161316
1619090589.69006,7.343575,10.86515998840332
1619090589.70568,6.497215,10.88077998161316
1619090589.72131,5.159096,10.89640998840332
1619090589.73693,4.18531,10.91202998161316
1619090589.75256,4.204605,10.92765998840332
1619090589.76819,5.533676,10.943289995193481
1619090589.78381,8.149597,10.95890998840332
1619090589.79944,11.79041,10.974539995193481
1619090589.81506,16.08207,10.99015998840332
1619090589.83069,20.51529,11.005789995193481
1619090589.84631,24.48266,11.02140998840332
1619090589.86194,27.29343,11.037039995193481
1619090589.87757,28.36233,11.052670001983643
1619090589.89319,27.3879,11.068289995193481
1619090589.90882,24.53149,11.083920001983643
1619090589.92444,20.33665,11.099539995193481
1619090589.94007,15.46701,11.115170001983643
1619090589.95569,10.49107,11.130789995193481
1619090589.97132,5.631203,11.146420001983643
1619090589.98695,0.7939148,11.162050008773804
1619090590.00257,-4.262192,11.177670001983643
1619090590.0182,-9.657585,11.193300008773804
1619090590.03382,-15.18867,11.208920001983643
1619090590.04945,-20.31862,11.224550008773804
1619090590.06507,-24.37709,11.240170001983643
1619090590.0807,-26.81288,11.255800008773804
1619090590.09633,-27.43492,11.271430015563965
1619090590.11195,-26.54839,11.287050008773804
1619090590.12758,-24.75337,11.302680015563965
1619090590.1432,-22.77061,11.318300008773804
1619090590.15883,-21.07979,11.333930015563965
1619090590.17445,-19.7682,11.349550008773804
1619090590.19008,-18.57925,11.365180015563965
1619090590.20571,-17.11195,11.380810022354126
1619090590.22133,-15.0667,11.396430015563965
1619090590.23696,-12.32437,11.412060022354126
1619090590.25258,-8.986389,11.427680015563965
1619090590.26821,-5.227692,11.443310022354126
1619090590.28383,-1.273346,11.458930015563965
1619090590.29946,2.602631,11.474560022354126
1619090590.31509,6.023468,11.490190029144287
1619090590.33071,8.470322,11.505810022354126
1619090590.34634,9.469269,11.521440029144287
1619090590.36196,8.756805,11.537060022354126
1619090590.37759,6.449799,11.552690029144287
1619090590.39321,3.037048,11.568310022354126
1619090590.40884,-0.7379456,11.583940029144287
1619090590.42447,-4.07457,11.599570035934448
1619090590.44009,-6.364746,11.615190029144287
1619090590.45572,-7.311493,11.630820035934448
1619090590.47134,-6.972626,11.646440029144287
1619090590.48697,-5.723282,11.662070035934448
1619090590.50259,-4.130386,11.677690029144287
1619090590.51822,-2.760406,11.693320035934448
1619090590.53385,-2.059387,11.70895004272461
1619090590.54947,-2.167236,11.724570035934448
1619090590.5651,-3.011017,11.74020004272461
1619090590.58072,-4.307831,11.755820035934448
1619090590.59635,-5.7258,11.77145004272461
1619090590.61197,-6.991959,11.787070035934448
1619090590.6276,-7.931595,11.80270004272461
1619090590.64323,-8.44986,11.81833004951477
1619090590.65885,-8.483109,11.83395004272461
1619090590.67448,-8.014893,11.84958004951477
1619090590.6901,-7.067566,11.86520004272461
1619090590.70573,-5.838196,11.88083004951477
1619090590.72135,-4.615738,11.89645004272461
1619090590.73698,-3.712082,11.91208004951477
1619090590.75261,-3.292725,11.927710056304932
1619090590.76823,-3.312302,11.94333004951477
1619090590.78386,-3.556549,11.958960056304932
1619090590.79948,-3.739838,11.97458004951477
1619090590.81511,-3.631317,11.990210056304932
1619090590.83073,-3.147278,12.00583004951477
1619090590.84636,-2.356522,12.021460056304932
1619090590.86199,-1.424881,12.037090063095093
1619090590.87761,-0.4841156,12.052710056304932
1619090590.89324,0.4079895,12.068340063095093
1619090590.90886,1.267517,12.083960056304932
1619090590.92449,2.096619,12.099590063095093
1619090590.94011,2.833527,12.115210056304932
1619090590.95574,3.278107,12.130840063095093
1619090590.97137,3.19313,12.146470069885254
1619090590.98699,2.401077,12.162090063095093
1619090591.00262,0.8472748,12.177720069885254
1619090591.01824,-1.407822,12.193340063095093
1619090591.03387,-4.163651,12.208970069885254
1619090591.04949,-7.025055,12.224590063095093
1619090591.06512,-9.419708,12.240220069885254
1619090591.08075,-10.60014,12.255850076675415
1619090591.09637,-9.918381,12.271470069885254
1619090591.112,-7.120331,12.287100076675415
1619090591.12762,-2.57489,12.302720069885254
1619090591.14325,2.710541,12.318350076675415
1619090591.15888,7.398026,12.333980083465576
1619090591.1745,10.2885,12.349600076675415
1619090591.19013,10.78972,12.365230083465576
1619090591.20575,9.033707,12.380850076675415
1619090591.22138,5.654755,12.396480083465576
1619090591.237,1.434448,12.412100076675415
1619090591.25263,-2.998657,12.427730083465576
1619090591.26826,-7.210541,12.443360090255737
1619090591.28388,-10.83418,12.458980083465576
1619090591.29951,-13.41893,12.474610090255737
1619090591.31513,-14.47305,12.490230083465576
1619090591.33076,-13.67567,12.505860090255737
1619090591.34638,-11.12444,12.521480083465576
1619090591.36201,-7.464813,12.537110090255737
1619090591.37764,-3.648376,12.552740097045898
1619090591.39326,-0.5779419,12.568360090255737
1619090591.40889,1.262115,12.583990097045898
1619090591.42451,1.87352,12.599610090255737
1619090591.44014,1.583771,12.615240097045898
1619090591.45576,0.7381439,12.630860090255737
1619090591.47139,-0.5715027,12.646490097045898
1619090591.48702,-2.547882,12.66212010383606
1619090591.50264,-5.386612,12.677740097045898
1619090591.51827,-9.047897,12.69337010383606
1619090591.53389,-13.00406,12.708990097045898
1619090591.54952,-16.41287,12.72462010383606
1619090591.56514,-18.46088,12.740240097045898
1619090591.58077,-18.71936,12.75587010383606
1619090591.5964,-17.26773,12.77150011062622
1619090591.61202,-14.59056,12.78712010383606
1619090591.62765,-11.2244,12.80275011062622
1619090591.64327,-7.516464,12.81837010383606
1619090591.6589,-3.600021,12.83400011062622
1619090591.67452,0.4061737,12.84962010383606
1619090591.69015,4.1707,12.86525011062622
1619090591.70578,7.15387,12.880880117416382
1619090591.7214,8.705582,12.89650011062622
1619090591.73703,8.415588,12.912130117416382
1619090591.75265,6.295227,12.92775011062622
1619090591.76828,2.830887,12.943380117416382
1619090591.7839,-1.243713,12.95900011062622
1619090591.79953,-5.122025,12.974630117416382
1619090591.81516,-8.200653,12.990260124206543
1619090591.83078,-10.21017,13.005880117416382
1619090591.84641,-11.16727,13.021510124206543
1619090591.86203,-11.3858,13.037130117416382
1619090591.87766,-11.4026,13.052760124206543
1619090591.89328,-11.87663,13.068380117416382
1619090591.90891,-13.31833,13.084010124206543
1619090591.92454,-15.9368,13.099640130996704
1619090591.94016,-19.48222,13.115260124206543
1619090591.95579,-23.18446,13.130890130996704
1619090591.97141,-25.92392,13.146510124206543
1619090591.98704,-26.50832,13.162140130996704
1619090592.00266,-23.93333,13.177760124206543
1619090592.01829,-17.62614,13.193390130996704
1619090592.03392,-7.631287,13.209020137786865
1619090592.04954,5.400314,13.224640130996704
1619090592.06517,20.19017,13.240270137786865
1619090592.08079,35.04099,13.255890130996704
1619090592.09642,48.14226,13.271520137786865
1619090592.11204,57.908,13.287140130996704
1619090592.12767,63.36615,13.302770137786865
1619090592.1433,64.3597,13.318400144577026
1619090592.15892,61.46936,13.334020137786865
1619090592.17455,55.76863,13.349650144577026
1619090592.19017,48.4579,13.365270137786865
1619090592.2058,40.5459,13.380900144577026
1619090592.22142,32.74857,13.396520137786865
1619090592.23705,25.59871,13.412150144577026
1619090592.25268,19.52756,13.427780151367188
1619090592.2683,15.00412,13.443400144577026
1619090592.28393,12.3046,13.459030151367188
1619090592.29955,11.41751,13.474650144577026
1619090592.31518,11.85846,13.490280151367188
1619090592.3308,12.80804,13.505900144577026
1619090592.34643,13.41364,13.521530151367188
1619090592.36206,13.11227,13.537160158157349
1619090592.37768,11.85147,13.552780151367188
1619090592.39331,9.851929,13.568410158157349
1619090592.40893,7.422455,13.584030151367188
1619090592.42456,4.567444,13.599660158157349
1619090592.44018,1.019073,13.615280151367188
1619090592.45581,-3.474396,13.630910158157349
1619090592.47144,-8.668518,13.64654016494751
1619090592.48706,-13.55054,13.662160158157349
1619090592.50269,-16.44861,13.67779016494751
1619090592.51831,-15.36395,13.693410158157349
1619090592.53394,-8.68869,13.70904016494751
1619090592.54956,4.262909,13.724660158157349
1619090592.56519,22.72455,13.74029016494751
1619090592.58082,44.42316,13.755920171737671
1619090592.59644,65.95175,13.77154016494751
1619090592.61207,83.53616,13.787170171737671
1619090592.62769,94.07349,13.80279016494751
1619090592.64332,96.12189,13.818420171737671
1619090592.65894,90.25269,13.83404016494751
1619090592.67457,78.80731,13.849670171737671
1619090592.6902,64.96628,13.865300178527832
1619090592.70582,51.48425,13.880920171737671
1619090592.72145,39.73169,13.896550178527832
1619090592.73707,29.5083,13.912170171737671
1619090592.7527,19.56207,13.927800178527832
1619090592.76832,8.519989,13.943420171737671
1619090592.78395,-4.289551,13.959050178527832
1619090592.79958,-18.64957,13.974680185317993
1619090592.8152,-33.73169,13.990300178527832
1619090592.83083,-48.59933,14.005930185317993
1619090592.84645,-62.62619,14.021550178527832
1619090592.86208,-75.57184,14.037180185317993
1619090592.8777,-87.36655,14.052800178527832
1619090592.89333,-97.83636,14.068430185317993
1619090592.90896,-106.4673,14.084060192108154
1619090592.92458,-112.4362,14.099680185317993
1619090592.94021,-114.8239,14.115310192108154
1619090592.95583,-113.0165,14.130930185317993
1619090592.97146,-106.912,14.146560192108154
1619090592.98708,-97.08569,14.162180185317993
1619090593.00271,-84.71439,14.177810192108154
1619090593.01834,-71.30475,14.193440198898315
1619090593.03396,-58.37155,14.209060192108154
1619090593.04959,-47.16183,14.224690198898315
1619090593.06521,-38.43347,14.240310192108154
1619090593.08084,-32.45456,14.255940198898315
1619090593.09646,-29.16284,14.271560192108154
1619090593.11209,-28.39264,14.287190198898315
1619090593.12772,-30.01016,14.302820205688477
1619090593.14334,-33.89215,14.318440198898315
1619090593.15897,-39.82895,14.334070205688477
1619090593.17459,-47.30322,14.349690198898315
1619090593.19022,-55.42749,14.365320205688477
1619090593.20584,-62.97324,14.380940198898315
1619090593.22147,-68.61639,14.396570205688477
1619090593.2371,-71.27405,14.412199974060059
1619090593.25272,-70.3063,14.427820205688477
1619090593.26835,-65.6673,14.443449974060059
1619090593.28397,-57.75467,14.459070205688477
1619090593.2996,-47.20105,14.474699974060059
1619090593.31522,-34.58432,14.490320205688477
1619090593.33085,-20.44354,14.505949974060059
1619090593.34648,-5.367096,14.52157998085022
1619090593.3621,9.786346,14.537199974060059
1619090593.37773,23.78226,14.55282998085022
1619090593.39335,35.21579,14.568449974060059
1619090593.40898,42.91336,14.58407998085022
1619090593.42461,46.36572,14.59970998764038
1619090593.44023,45.97052,14.61532998085022
1619090593.45586,42.87061,14.63095998764038
1619090593.47148,38.58865,14.64657998085022
1619090593.48711,34.49622,14.66220998764038
1619090593.50273,31.41898,14.67782998085022
1619090593.51836,29.53009,14.69345998764038
1619090593.53399,28.52808,14.709089994430542
1619090593.54961,27.93823,14.72470998764038
1619090593.56524,27.35812,14.740339994430542
1619090593.58086,26.61951,14.75595998764038
1619090593.59649,25.71017,14.771589994430542
1619090593.61211,24.64523,14.78720998764038
1619090593.62774,23.40561,14.802839994430542
1619090593.64337,21.95346,14.818470001220703
1619090593.65899,20.26697,14.834089994430542
1619090593.67462,18.46179,14.849720001220703
1619090593.69024,16.77716,14.865339994430542
1619090593.70587,15.48779,14.880970001220703
1619090593.72149,14.78271,14.896589994430542
1619090593.73712,14.6438,14.912220001220703
1619090593.75275,14.90198,14.927850008010864
1619090593.76837,15.32349,14.943470001220703
1619090593.784,15.77213,14.959100008010864
1619090593.79962,16.24127,14.974720001220703
1619090593.81525,16.8591,14.990350008010864
1619090593.83087,17.73636,15.005970001220703
1619090593.8465,18.83716,15.021600008010864
1619090593.86213,19.90958,15.037230014801025
1619090593.87775,20.54791,15.052850008010864
1619090593.89338,20.36136,15.068480014801025
1619090593.909,19.13712,15.084100008010864
1619090593.92463,16.96844,15.099730014801025
1619090593.94025,14.24658,15.115350008010864
1619090593.95588,11.4483,15.130980014801025
1619090593.97151,8.950226,15.146610021591187
1619090593.98713,6.909851,15.162230014801025
1619090594.00276,5.210724,15.177860021591187
1619090594.01838,3.660919,15.193480014801025
1619090594.03401,2.109589,15.209110021591187
1619090594.04963,0.5449829,15.224730014801025
1619090594.06526,-0.9825134,15.240360021591187
1619090594.08089,-2.448486,15.255990028381348
1619090594.09651,-4.029602,15.271610021591187
1619090594.11214,-6.042938,15.287240028381348
1619090594.12776,-8.797699,15.302860021591187
1619090594.14339,-12.3739,15.318490028381348
1619090594.15901,-16.46561,15.334110021591187
1619090594.17464,-20.41321,15.349740028381348
1619090594.19027,-23.43564,15.365370035171509
1619090594.20589,-24.93851,15.380990028381348
1619090594.22152,-24.72379,15.396620035171509
1619090594.23714,-23.0759,15.412240028381348
1619090594.25277,-20.58105,15.427870035171509
1619090594.26839,-17.90128,15.443490028381348
1619090594.28402,-15.5607,15.459120035171509
1619090594.29965,-13.84851,15.47475004196167
1619090594.31527,-12.85544,15.490370035171509
1619090594.3309,-12.5643,15.50600004196167
1619090594.34652,-12.90341,15.521620035171509
1619090594.36215,-13.77341,15.53725004196167
1619090594.37777,-14.99353,15.552870035171509
1619090594.3934,-16.25851,15.56850004196167
1619090594.40903,-17.22198,15.584130048751831
1619090594.42465,-17.58997,15.59975004196167
1619090594.44028,-17.2348,15.615380048751831
1619090594.4559,-16.27051,15.63100004196167
1619090594.47153,-15.03665,15.646630048751831
1619090594.48715,-13.90048,15.66225004196167
1619090594.50278,-13.15604,15.677880048751831
1619090594.51841,-12.85632,15.693510055541992
1619090594.53403,-12.78654,15.709130048751831
1619090594.54966,-12.61609,15.724760055541992
1619090594.56528,-11.99911,15.740380048751831
1619090594.58091,-10.75023,15.756010055541992
1619090594.59653,-8.858963,15.771630048751831
1619090594.61216,-6.453598,15.787260055541992
1619090594.62779,-3.638229,15.802890062332153
1619090594.64341,-0.4030151,15.818510055541992
1619090594.65904,3.3909,15.834140062332153
1619090594.67466,7.91362,15.849760055541992
1619090594.69029,13.17638,15.865390062332153
1619090594.70591,18.90811,15.881010055541992
1619090594.72154,24.51978,15.896640062332153
1619090594.73717,29.27283,15.912270069122314
1619090594.75279,32.49509,15.927890062332153
1619090594.76842,33.83887,15.943520069122314
1619090594.78404,33.37651,15.959140062332153
1619090594.79967,31.54346,15.974770069122314
1619090594.81529,28.98784,15.990390062332153
1619090594.83092,26.27727,16.006020069122314
1619090594.84655,23.73598,16.021650075912476
1619090594.86217,21.34819,16.037270069122314
1619090594.8778,18.83006,16.052900075912476
1619090594.89342,15.88402,16.068520069122314
1619090594.90905,12.40001,16.084150075912476
1619090594.92467,8.537384,16.099770069122314
1619090594.9403,4.692337,16.115400075912476
1619090594.95593,1.340836,16.131030082702637
1619090594.97155,-1.190369,16.146650075912476
1619090594.98718,-2.771133,16.162280082702637
1619090595.0028,-3.466797,16.177900075912476
1619090595.01843,-3.456207,16.193530082702637
1619090595.03405,-2.90947,16.209150075912476
1619090595.04968,-2.032654,16.224780082702637
1619090595.06531,-1.072021,16.240410089492798
1619090595.08093,-0.3491516,16.256030082702637
1619090595.09656,-0.1542053,16.271660089492798
1619090595.11218,-0.6051178,16.287280082702637
1619090595.12781,-1.551758,16.302910089492798
1619090595.14343,-2.592911,16.318530082702637
1619090595.15906,-3.313812,16.334160089492798
1619090595.17469,-3.513412,16.34979009628296
1619090595.19031,-3.341934,16.365410089492798
1619090595.20594,-3.194275,16.38104009628296
1619090595.22156,-3.465118,16.396660089492798
1619090595.23719,-4.329178,16.41229009628296
1619090595.25281,-5.640976,16.427910089492798
1619090595.26844,-7.083252,16.44354009628296
1619090595.28407,-8.315247,16.45917010307312
1619090595.29969,-9.152679,16.47479009628296
1619090595.31532,-9.514175,16.49042010307312
1619090595.33094,-9.343674,16.50604009628296
1619090595.34657,-8.55838,16.52167010307312
1619090595.36219,-7.082245,16.53729009628296
1619090595.37782,-5.018814,16.55292010307312
1619090595.39345,-2.697266,16.56855010986328
1619090595.40907,-0.5935669,16.58417010307312
1619090595.4247,0.8557739,16.59980010986328
1619090595.44032,1.456467,16.61542010307312
1619090595.45595,1.334412,16.63105010986328
1619090595.47157,0.8127136,16.64667010307312
1619090595.4872,0.2265778,16.66230010986328
1619090595.50283,-0.1813965,16.677930116653442
1619090595.51845,-0.3740082,16.69355010986328
1619090595.53408,-0.374588,16.709180116653442
1619090595.5497,-0.1616974,16.72480010986328
1619090595.56533,0.3414001,16.740430116653442
1619090595.58096,1.223785,16.756060123443604
1619090595.59658,2.454239,16.771680116653442
1619090595.61221,3.827942,16.787310123443604
1619090595.62783,4.983673,16.802930116653442
1619090595.64346,5.645416,16.818560123443604
1619090595.65908,5.725891,16.834180116653442
1619090595.67471,5.383011,16.849810123443604
1619090595.69034,4.903076,16.865440130233765
1619090595.70596,4.503937,16.881060123443604
1619090595.72159,4.268158,16.896690130233765
1619090595.73721,4.106262,16.912310123443604
1619090595.75284,3.922043,16.927940130233765
1619090595.76846,3.686417,16.943560123443604
1619090595.78409,3.477509,16.959190130233765
1619090595.79972,3.396866,16.974820137023926
1619090595.81534,3.420731,16.990440130233765
1619090595.83097,3.386612,17.006070137023926
1619090595.84659,3.069275,17.021690130233765
1619090595.86222,2.381348,17.037320137023926
1619090595.87784,1.48735,17.052940130233765
1619090595.89347,0.775589,17.068570137023926
1619090595.9091,0.6747742,17.084200143814087
1619090595.92472,1.454254,17.099820137023926
1619090595.94035,3.091202,17.115450143814087
1619090595.95597,5.312134,17.131070137023926
1619090595.9716,7.773819,17.146700143814087
1619090595.98722,10.14882,17.162320137023926
1619090596.00285,12.26379,17.177950143814087
1619090596.01848,13.99947,17.193580150604248
1619090596.0341,15.24695,17.209200143814087
1619090596.04973,15.87303,17.224830150604248
1619090596.06535,15.73424,17.240450143814087
1619090596.08098,14.70335,17.256080150604248
1619090596.0966,12.75377,17.271700143814087
1619090596.11223,10.02489,17.287330150604248
1619090596.12786,6.756546,17.30296015739441
1619090596.14348,3.321182,17.318580150604248
1619090596.15911,0.1286926,17.33421015739441
1619090596.17473,-2.486267,17.349830150604248
1619090596.19036,-4.372635,17.36546015739441
1619090596.20598,-5.617096,17.381080150604248
1619090596.22161,-6.485947,17.39671015739441
1619090596.23724,-7.333679,17.41234016418457
1619090596.25286,-8.361298,17.42796015739441
1619090596.26849,-9.539566,17.44359016418457
1619090596.28411,-10.58894,17.45921015739441
1619090596.29974,-11.13021,17.47484016418457
1619090596.31536,-10.87409,17.49046015739441
1619090596.33099,-9.744225,17.50609016418457
1619090596.34662,-7.897362,17.52172017097473
1619090596.36224,-5.625092,17.53734016418457
1619090596.37787,-3.298653,17.55297017097473
1619090596.39349,-1.414047,17.56859016418457
1619090596.40912,-0.6726913,17.58422017097473
1619090596.42474,-1.896187,17.59984016418457
1619090596.44037,-5.76857,17.61547017097473
1619090596.456,-12.42473,17.631100177764893
1619090596.47162,-21.16553,17.64672017097473
1619090596.48725,-30.62573,17.662350177764893
1619090596.50287,-39.28211,17.67797017097473
1619090596.5185,-46.15777,17.693600177764893
1619090596.53412,-51.17558,17.70922017097473
1619090596.54975,-54.98965,17.724850177764893
1619090596.56538,-58.3007,17.740480184555054
1619090596.581,-61.30051,17.756100177764893
1619090596.59663,-63.50632,17.771730184555054
1619090596.61225,-64.17841,17.787350177764893
1619090596.62788,-63.04987,17.802980184555054
1619090596.6435,-60.76299,17.818600177764893
1619090596.65913,-58.66994,17.834230184555054
1619090596.67476,-58.13329,17.849860191345215
1619090596.69038,-59.73266,17.865480184555054
1619090596.70601,-62.93845,17.881110191345215
1619090596.72163,-66.44119,17.896730184555054
1619090596.73726,-68.88551,17.912360191345215
1619090596.75288,-69.43462,17.927980184555054
1619090596.76851,-67.90572,17.943610191345215
1619090596.78414,-64.4456,17.959240198135376
1619090596.79976,-59.03796,17.974860191345215
1619090596.81539,-51.20562,17.990490198135376
1619090596.83101,-40.15588,18.006110191345215
1619090596.84664,-25.29083,18.021740198135376
1619090596.86226,-6.703552,18.037360191345215
1619090596.87789,14.63801,18.052990198135376
1619090596.89352,37.1535,18.068620204925537
1619090596.90914,59.1726,18.084240198135376
1619090596.92477,79.26736,18.099870204925537
1619090596.94039,96.34007,18.115490198135376
1619090596.95602,109.6322,18.131120204925537
1619090596.97164,118.6603,18.146740198135376
1619090596.98727,123.2543,18.162370204925537
1619090597.0029,123.6854,18.17799997329712
1619090597.01852,120.6631,18.193620204925537
1619090597.03415,115.1604,18.20924997329712
1619090597.04977,108.0954,18.224870204925537
1619090597.0654,99.61354,18.24049997329712
1619090597.08102,88.96095,18.256120204925537
1619090597.09665,75.00765,18.27174997329712
1619090597.11228,57.1674,18.28737998008728
1619090597.1279,36.07342,18.30299997329712
1619090597.14353,13.61793,18.31862998008728
1619090597.15915,-7.683868,18.33424997329712
1619090597.17478,-25.5827,18.34987998008728
1619090597.1904,-38.4119,18.36549997329712
1619090597.20603,-45.97104,18.38112998008728
1619090597.22166,-49.33773,18.39675998687744
1619090597.23728,-50.10044,18.41237998008728
1619090597.25291,-49.53241,18.42800998687744
1619090597.26853,-48.16241,18.44362998008728
1619090597.28416,-45.87968,18.45925998687744
1619090597.29978,-42.23814,18.47487998008728
1619090597.31541,-36.63004,18.49050998687744
1619090597.33104,-27.78201,18.506139993667603
1619090597.34666,-14.76413,18.52175998687744
1619090597.36229,2.623131,18.537389993667603
1619090597.37791,24.09014,18.55300998687744
1619090597.39354,49.21033,18.568639993667603
1619090597.40916,77.49593,18.58425998687744
1619090597.42479,108.2622,18.599889993667603
1619090597.44042,140.4803,18.615520000457764
1619090597.45604,173.0182,18.631139993667603
1619090597.47167,205.5776,18.646770000457764
1619090597.48729,236.9509,18.662389993667603
1619090597.50292,264.2301,18.678020000457764
1619090597.51854,282.7951,18.693639993667603
1619090597.53417,287.4165,18.709270000457764
1619090597.5498,273.9602,18.724900007247925
1619090597.56542,240.9683,18.740520000457764
1619090597.58105,190.5225,18.756150007247925
1619090597.59667,123.0834,18.771770000457764
1619090597.6123,46.30248,18.787400007247925
1619090597.62792,-27.74994,18.803020000457764
1619090597.64355,-87.49953,18.818650007247925
1619090597.65918,-127.2486,18.834280014038086
1619090597.6748,-148.3349,18.849900007247925
1619090597.69043,-155.907,18.865530014038086
1619090597.70605,-154.9268,18.881150007247925
1619090597.72168,-148.452,18.896780014038086
1619090597.7373,-138.0649,18.912400007247925
1619090597.75293,-124.2423,18.928030014038086
1619090597.76856,-108.4814,18.943660020828247
1619090597.78418,-93.27964,18.959280014038086
1619090597.79981,-81.11581,18.974910020828247
1619090597.81543,-73.12406,18.990530014038086
1619090597.83106,-68.6986,19.006160020828247
1619090597.84668,-65.91811,19.021780014038086
1619090597.86231,-62.84341,19.037410020828247
1619090597.87794,-58.27416,19.053040027618408
1619090597.89356,-51.41042,19.068660020828247
1619090597.90919,-42.84237,19.084290027618408
1619090597.92481,-34.08131,19.099910020828247
1619090597.94044,-26.82018,19.115540027618408
1619090597.95606,-21.94817,19.131160020828247
1619090597.97169,-19.13066,19.146790027618408
1619090597.98732,-17.1963,19.16242003440857
1619090598.00294,-14.89894,19.178040027618408
1619090598.01857,-11.4456,19.19367003440857
1619090598.03419,-6.316349,19.209290027618408
1619090598.04982,0.1756668,19.22492003440857
1619090598.06544,7.131573,19.240540027618408
1619090598.08107,13.47258,19.25617003440857
1619090598.0967,18.51284,19.27180004119873
1619090598.11232,22.25962,19.28742003440857
1619090598.12795,25.19112,19.30305004119873
1619090598.14357,27.83234,19.31867003440857
1619090598.1592,30.46555,19.33430004119873
1619090598.17482,33.27669,19.34992003440857
1619090598.19045,35.77819,19.36555004119873
1619090598.20608,37.7951,19.38118004798889
1619090598.2217,39.04805,19.39680004119873
1619090598.23733,39.3112,19.41243004798889
1619090598.25295,38.80126,19.42805004119873
1619090598.26858,37.97655,19.44368004798889
1619090598.28421,37.35063,19.459310054779053
1619090598.29983,37.29716,19.47493004798889
1619090598.31546,38.08945,19.490560054779053
1619090598.33108,39.78906,19.50618004798889
1619090598.34671,42.37762,19.521810054779053
1619090598.36233,45.73294,19.53743004798889
1619090598.37796,49.41098,19.553060054779053
1619090598.39359,53.20024,19.568690061569214
1619090598.40921,56.98763,19.584310054779053
1619090598.42484,60.73637,19.599940061569214
1619090598.44046,64.45634,19.615560054779053
1619090598.45609,68.20375,19.631190061569214
1619090598.47171,72.07883,19.646810054779053
1619090598.48734,76.34132,19.662440061569214
1619090598.50297,81.28545,19.678070068359375
1619090598.51859,86.68777,19.693690061569214
1619090598.53422,92.50304,19.709320068359375
1619090598.54984,98.71642,19.724940061569214
1619090598.56547,105.3257,19.740570068359375
1619090598.58109,112.3004,19.756190061569214
1619090598.59672,119.6098,19.771820068359375
1619090598.61235,127.2198,19.787450075149536
1619090598.62797,135.1689,19.803070068359375
1619090598.6436,143.5731,19.818700075149536
1619090598.65922,151.8131,19.834320068359375
1619090598.67485,159.4908,19.849950075149536
1619090598.69047,166.2717,19.865570068359375
1619090598.7061,171.8207,19.881200075149536
1619090598.72173,175.7107,19.896830081939697
1619090598.73735,177.3297,19.912450075149536
1619090598.75298,175.7184,19.928080081939697
1619090598.7686,169.216,19.943700075149536
1619090598.78423,160.8984,19.959330081939697
1619090598.79985,151.5748,19.974950075149536
1619090598.81548,141.7438,19.990580081939697
1619090598.83111,131.7374,20.00621008872986
1619090598.84673,121.7919,20.021830081939697
1619090598.86236,112.1107,20.03746008872986
1619090598.87798,102.8425,20.053080081939697
1619090598.89361,94.16937,20.06871008872986
1619090598.90923,86.30957,20.084330081939697
1619090598.92486,79.57587,20.09996008872986
1619090598.94049,73.53217,20.11559009552002
1619090598.95611,67.96906,20.13121008872986
1619090598.97174,62.76184,20.14684009552002
1619090598.98736,57.83118,20.16246008872986
1619090599.00299,53.12866,20.17809009552002
1619090599.01861,48.63812,20.19371008872986
1619090599.03424,44.39905,20.20934009552002
1619090599.04987,40.49835,20.22497010231018
1619090599.06549,37.16541,20.24059009552002
1619090599.08112,34.07251,20.25622010231018
1619090599.09674,31.10498,20.27184009552002
1619090599.11237,28.2251,20.28747010231018
1619090599.12799,25.4375,20.30309009552002
1619090599.14362,22.78662,20.31872010231018
1619090599.15925,20.3205,20.334350109100342
1619090599.17487,18.117,20.34997010231018
1619090599.1905,16.26068,20.365600109100342
1619090599.20612,14.90186,20.38122010231018
1619090599.22175,13.83191,20.396850109100342
1619090599.23737,12.94153,20.41247010231018
1619090599.253,12.16138,20.428100109100342
1619090599.26863,11.45264,20.443730115890503
1619090599.28425,10.79761,20.459350109100342
1619090599.29988,10.17786,20.474980115890503
1619090599.3155,9.585693,20.490600109100342
1619090599.33113,9.048706,20.506230115890503
1619090599.34675,8.618896,20.521850109100342
1619090599.36238,8.166138,20.537480115890503
1619090599.37801,7.641357,20.553110122680664
1619090599.39363,6.999146,20.568730115890503
1619090599.40926,6.210571,20.584360122680664
1619090599.42488,5.300903,20.599980115890503
1619090599.44051,4.28064,20.615610122680664
1619090599.45613,3.171997,20.631230115890503
1619090599.47176,2.043213,20.646860122680664
1619090599.48739,0.9523926,20.662490129470825
1619090599.50301,-0.08874512,20.678110122680664
1619090599.51864,-1.065674,20.693740129470825
1619090599.53426,-1.963135,20.709360122680664
1619090599.54989,-2.769409,20.724990129470825
1619090599.56551,-3.483643,20.740610122680664
1619090599.58114,-4.126953,20.756240129470825
1619090599.59677,-4.706787,20.771870136260986
1619090599.61239,-5.230835,20.787490129470825
1619090599.62802,-5.724976,20.803120136260986
1619090599.64364,-6.181519,20.818740129470825
1619090599.65927,-6.60437,20.834370136260986
1619090599.67489,-6.962524,20.849990129470825
1619090599.69052,-7.237549,20.865620136260986
1619090599.70615,-7.401855,20.881250143051147
1619090599.72177,-7.475464,20.896870136260986
1619090599.7374,-7.452393,20.912500143051147
1619090599.75302,-7.381348,20.928120136260986
1619090599.76865,-7.316895,20.943750143051147
1619090599.78427,-7.318115,20.959370136260986
1619090599.7999,-7.42627,20.975000143051147
1619090599.81553,-7.687012,20.99063014984131
1619090599.83115,-8.133789,21.006250143051147
1619090599.84678,-8.765137,21.02188014984131
1619090599.8624,-9.61084,21.037500143051147
1619090599.87803,-10.69019,21.05313014984131
1619090599.89365,-12.01392,21.068750143051147
1619090599.90928,-13.59668,21.08438014984131
1619090599.92491,-15.40845,21.10001015663147
1619090599.94053,-17.37402,21.11563014984131
1619090599.95616,-19.38037,21.13126015663147
1619090599.97178,-21.31714,21.14688014984131
1619090599.98741,-23.06299,21.16251015663147
1619090600.00303,-24.56689,21.17813014984131
1619090600.01866,-25.8269,21.19376015663147
1619090600.03429,-26.91821,21.20939016342163
1619090600.04991,-27.9519,21.22501015663147
1619090600.06554,-29.00806,21.24064016342163
1619090600.08116,-30.14478,21.25626015663147
1619090600.09679,-31.35156,21.27189016342163
1619090600.11241,-32.55298,21.28751015663147
1619090600.12804,-33.70801,21.30314016342163
1619090600.14367,-34.8418,21.318770170211792
1619090600.15929,-36.07544,21.33439016342163
1619090600.17492,-37.62476,21.350020170211792
1619090600.19054,-39.73608,21.36564016342163
1619090600.20617,-42.53687,21.381270170211792
1619090600.22179,-45.99023,21.39689016342163
1619090600.23742,-49.90234,21.412520170211792
1619090600.25305,-53.95117,21.428150177001953
1619090600.26867,-57.85962,21.443770170211792
1619090600.2843,-61.5625,21.459400177001953
1619090600.29992,-65.23608,21.475020170211792
1619090600.31555,-69.29712,21.490650177001953
1619090600.33117,-74.25317,21.506270170211792
1619090600.3468,-80.45654,21.521900177001953
1619090600.36243,-87.95947,21.537530183792114
1619090600.37805,-96.46558,21.553150177001953
1619090600.39368,-105.4592,21.568780183792114
1619090600.4093,-114.4497,21.584400177001953
1619090600.42493,-123.2568,21.600030183792114
1619090600.44056,-132.115,21.615660190582275
1619090600.45618,-141.6177,21.631280183792114
1619090600.47181,-152.4922,21.646910190582275
1619090600.48743,-165.2188,21.662530183792114
1619090600.50306,-179.8428,21.678160190582275
1619090600.51868,-195.9204,21.693780183792114
1619090600.53431,-212.7605,21.709410190582275
1619090600.54994,-229.6838,21.725040197372437
1619090600.56556,-246.3579,21.740660190582275
1619090600.58119,-262.8552,21.756290197372437
1619090600.59681,-279.5833,21.771910190582275
1619090600.61244,-297.2139,21.787540197372437
1619090600.62806,-316.5759,21.803160190582275
1619090600.64369,-338.5664,21.818790197372437
1619090600.65932,-363.8276,21.834420204162598
1619090600.67494,-392.0627,21.850040197372437
1619090600.69057,-421.4287,21.865670204162598
1619090600.70619,-448.3506,21.881290197372437
1619090600.72182,-468.1174,21.896920204162598
1619090600.73744,-476.2434,21.912540197372437
1619090600.75307,-470.0618,21.928170204162598
1619090600.7687,-449.6667,21.94379997253418
1619090600.78432,-417.8328,21.959420204162598
1619090600.79995,-378.926,21.97504997253418
1619090600.81557,-337.363,21.990670204162598
1619090600.8312,-296.5107,22.00629997253418
1619090600.84682,-258.3696,22.021920204162598
1619090600.86245,-223.939,22.03754997253418
1619090600.87808,-193.7375,22.05317997932434
1619090600.8937,-168.1296,22.06879997253418
1619090600.90933,-147.1018,22.08442997932434
1619090600.92495,-130.0454,22.10004997253418
1619090600.94058,-115.5559,22.11567997932434
1619090600.9562,-101.7856,22.13129997253418
1619090600.97183,-87.00391,22.14692997932434
1619090600.98746,-70.29834,22.162559986114502
1619090601.00308,-51.89038,22.17817997932434
1619090601.01871,-33.10718,22.193809986114502
1619090601.03433,-15.96509,22.20942997932434
1619090601.04996,-2.371582,22.225059986114502
1619090601.06558,6.48291,22.24067997932434
1619090601.08121,10.61597,22.256309986114502
1619090601.09684,11.17725,22.271939992904663
1619090601.11246,10.01416,22.287559986114502
1619090601.12809,9.018066,22.303189992904663
1619090601.14371,9.503418,22.318809986114502
1619090601.15934,11.86304,22.334439992904663
1619090601.17496,15.66846,22.350059986114502
1619090601.19059,20.0354,22.365689992904663
1619090601.20622,24.05273,22.381319999694824
1619090601.22184,27.03784,22.396939992904663
1619090601.23747,28.61694,22.412569999694824
1619090601.25309,28.61401,22.428189992904663
1619090601.26872,26.96362,22.443819999694824
1619090601.28434,23.62085,22.459439992904663
1619090601.29997,18.69189,22.475069999694824
1619090601.3156,12.41406,22.490700006484985
1619090601.33122,5.214844,22.506319999694824
1619090601.34685,-2.375977,22.521950006484985
1619090601.36247,-9.948242,22.537569999694824
1619090601.3781,-17.32251,22.553200006484985
1619090601.39372,-24.60571,22.568819999694824
1619090601.40935,-31.97583,22.584450006484985
1619090601.42498,-39.35107,22.600080013275146
1619090601.4406,-46.14038,22.615700006484985
1619090601.45623,-51.18774,22.631330013275146
1619090601.47185,-53.0769,22.646950006484985
1619090601.48748,-50.62329,22.662580013275146
1619090601.5031,-43.42261,22.678200006484985
1619090601.51873,-32.02393,22.693830013275146
1619090601.53436,-17.86035,22.709460020065308
1619090601.54998,-2.672363,22.725080013275146
1619090601.56561,11.92993,22.740710020065308
1619090601.58123,24.97949,22.756330013275146
1619090601.59686,36.21826,22.771960020065308
1619090601.61248,45.92529,22.787580013275146
1619090601.62811,54.68066,22.803210020065308
1619090601.64374,63.08472,22.81884002685547
1619090601.65936,71.64917,22.834460020065308
1619090601.67499,80.72559,22.85009002685547
1619090601.69061,90.4104,22.865710020065308
1619090601.70624,100.5181,22.88134002685547
1619090601.72186,110.5435,22.896960020065308
1619090601.73749,119.7754,22.91259002685547
1619090601.75312,127.4907,22.92822003364563
1619090601.76874,133.1829,22.94384002685547
1619090601.78437,136.624,22.95947003364563
1619090601.79999,137.9006,22.97509002685547
1619090601.81562,137.2139,22.99072003364563
1619090601.83124,134.7405,23.00634002685547
1619090601.84687,130.5664,23.02197003364563
1619090601.8625,124.7505,23.03760004043579
1619090601.87812,117.5088,23.05322003364563
1619090601.89375,109.2681,23.06885004043579
1619090601.90937,100.6543,23.08447003364563
1619090601.925,92.23853,23.10010004043579
1619090601.94062,84.36523,23.11572003364563
1619090601.95625,77.07129,23.13135004043579
1619090601.97188,70.271,23.146980047225952
1619090601.9875,64.04321,23.16260004043579
1619090602.00313,58.72437,23.178230047225952
1619090602.01875,54.88501,23.19385004043579
1619090602.03438,52.93579,23.209480047225952
1619090602.05,52.81348,23.22510004043579
1619090602.06563,53.73657,23.240730047225952
1619090602.08126,54.42432,23.256360054016113
1619090602.09688,53.60034,23.271980047225952
1619090602.11251,50.43921,23.287610054016113
1619090602.12813,44.99121,23.303230047225952
1619090602.14376,37.99756,23.318860054016113
1619090602.15938,30.53125,23.334480047225952
1619090602.17501,23.47998,23.350110054016113
1619090602.19064,17.33813,23.365740060806274
1619090602.20626,12.25562,23.381360054016113
1619090602.22189,8.165771,23.396990060806274
1619090602.23751,4.761475,23.412610054016113
1619090602.25314,1.234619,23.428240060806274
1619090602.26876,-4.00293,23.443860054016113
1619090602.28439,-13.2616,23.459490060806274
1619090602.30002,-28.90247,23.475120067596436
1619090602.31564,-52.15918,23.490740060806274
1619090602.33127,-81.89954,23.506370067596436
1619090602.34689,-114.1212,23.521990060806274
1619090602.36252,-142.6764,23.537620067596436
1619090602.37814,-161.0856,23.553240060806274
1619090602.39377,-164.9105,23.568870067596436
1619090602.4094,-153.3641,23.584500074386597
1619090602.42502,-129.6826,23.600120067596436
1619090602.44065,-99.72534,23.615750074386597
1619090602.45627,-69.70654,23.631370067596436
1619090602.4719,-44.07971,23.647000074386597
1619090602.48752,-24.41101,23.662620067596436
1619090602.50315,-9.726807,23.678250074386597
1619090602.51878,2.183594,23.693880081176758
1619090602.5344,13.34192,23.709500074386597
1619090602.55003,24.72961,23.725130081176758
1619090602.56565,36.25891,23.740750074386597
1619090602.58128,47.36621,23.756380081176758
1619090602.5969,57.51526,23.772000074386597
1619090602.61253,66.37036,23.787630081176758
1619090602.62816,73.58484,23.80326008796692
1619090602.64378,78.56213,23.818880081176758
1619090602.65941,80.51636,23.83451008796692
1619090602.67503,78.97595,23.850130081176758
1619090602.69066,74.20959,23.86576008796692
1619090602.70629,67.47217,23.88139009475708
1619090602.72191,60.75671,23.89701008796692
1619090602.73754,56.04309,23.91264009475708
1619090602.75316,54.59631,23.92826008796692
1619090602.76879,56.62292,23.94389009475708
1619090602.78441,61.28748,23.95951008796692
1619090602.80004,67.1416,23.97514009475708
1619090602.81567,72.73743,23.99077010154724
1619090602.83129,76.95654,24.00639009475708
1619090602.84692,79.23547,24.02202010154724
1619090602.86254,79.4696,24.03764009475708
1619090602.87817,77.85254,24.05327010154724
1619090602.89379,74.63318,24.06889009475708
1619090602.90942,70.08972,24.08452010154724
1619090602.92505,64.5531,24.100150108337402
1619090602.94067,58.49841,24.11577010154724
1619090602.9563,52.6051,24.131400108337402
1619090602.97192,47.56824,24.14702010154724
1619090602.98755,43.93347,24.162650108337402
1619090603.00317,41.87305,24.17827010154724
1619090603.0188,41.04529,24.193900108337402
1619090603.03443,40.72168,24.209530115127563
1619090603.05005,39.92273,24.225150108337402
1619090603.06568,37.62073,24.240780115127563
1619090603.0813,32.86292,24.256400108337402
1619090603.09693,24.85803,24.272030115127563
1619090603.11255,13.09033,24.287650108337402
1619090603.12818,-2.458618,24.303280115127563
1619090603.14381,-21.13464,24.318910121917725
1619090603.15943,-41.67151,24.334530115127563
1619090603.17506,-62.30457,24.350160121917725
1619090603.19068,-81.18201,24.365780115127563
1619090603.20631,-96.82556,24.381410121917725
1619090603.22193,-108.5131,24.397030115127563
1619090603.23756,-116.3448,24.412660121917725
1619090603.25319,-121.1816,24.428290128707886
1619090603.26881,-124.2433,24.443910121917725
1619090603.28444,-126.6675,24.459540128707886
1619090603.30006,-129.1885,24.475160121917725
1619090603.31569,-131.8446,24.490790128707886
1619090603.33131,-134.0742,24.506410121917725
1619090603.34694,-134.9191,24.522040128707886
1619090603.36257,-133.4907,24.537670135498047
1619090603.37819,-129.2736,24.553290128707886
1619090603.39382,-122.2467,24.568920135498047
1619090603.40944,-112.8309,24.584540128707886
1619090603.42507,-101.7861,24.600170135498047
1619090603.44069,-90.09717,24.615790128707886
1619090603.45632,-78.95178,24.631420135498047
1619090603.47195,-69.71411,24.647050142288208
1619090603.48757,-63.62842,24.662670135498047
1619090603.5032,-61.6283,24.678300142288208
1619090603.51882,-63.95923,24.693920135498047
1619090603.53445,-70.13489,24.709550142288208
1619090603.55007,-79.09003,24.725170135498047
1619090603.5657,-89.40198,24.740800142288208
1619090603.58133,-99.60034,24.75643014907837
1619090603.59695,-108.4198,24.772050142288208
1619090603.61258,-115.064,24.78768014907837
1619090603.6282,-119.4323,24.803300142288208
1619090603.64383,-122.2414,24.81893014907837
1619090603.65945,-124.8959,24.834550142288208
1619090603.67508,-129.0052,24.85018014907837
1619090603.69071,-135.5445,24.86581015586853
1619090603.70633,-144.0254,24.88143014907837
1619090603.72196,-152.3135,24.89706015586853
1619090603.73758,-157.2224,24.91268014907837
1619090603.75321,-155.6776,24.92831015586853
1619090603.76883,-146.0676,24.94393014907837
1619090603.78446,-128.8674,24.95956015586853
1619090603.80009,-106.4534,24.97519016265869
1619090603.81571,-82.15082,24.99081015586853
1619090603.83134,-59.09222,25.00644016265869
1619090603.84696,-39.37183,25.02206015586853
1619090603.86259,-23.82935,25.03769016265869
1619090603.87821,-12.3175,25.05331015586853
1619090603.89384,-4.12735,25.06894016265869
1619090603.90947,1.731903,25.084570169448853
1619090603.92509,6.407257,25.10019016265869
1619090603.94072,11.2041,25.115820169448853
1619090603.95634,17.48663,25.13144016265869
1619090603.97197,26.43155,25.147070169448853
1619090603.98759,38.74289,25.16269016265869
1619090604.00322,54.52283,25.178320169448853
1619090604.01885,73.38254,25.193950176239014
1619090604.03447,94.73883,25.209570169448853
1619090604.0501,118.1358,25.225200176239014
1619090604.06572,143.4226,25.240820169448853
1619090604.08135,170.6948,25.256450176239014
1619090604.09697,200.014,25.272070169448853
1619090604.1126,231.1949,25.287700176239014
1619090604.12823,263.6301,25.303330183029175
1619090604.14385,296.3863,25.318950176239014
1619090604.15948,328.5754,25.334580183029175
1619090604.1751,359.575,25.350200176239014
1619090604.19073,389.3286,25.365830183029175
1619090604.20635,418.5213,25.381450176239014
1619090604.22198,448.5662,25.397080183029175
1619090604.23761,481.2148,25.412710189819336
1619090604.25323,517.8444,25.428330183029175
1619090604.26886,558.3623,25.443960189819336
1619090604.28448,600.3472,25.459580183029175
1619090604.30011,638.7548,25.475210189819336
1619090604.31573,666.752,25.490830183029175
1619090604.33136,677.5757,25.506460189819336
1619090604.34699,666.7111,25.522090196609497
1619090604.36261,633.5622,25.537710189819336
1619090604.37824,581.7471,25.553340196609497
1619090604.39386,517.9359,25.568960189819336
1619090604.40949,449.7524,25.584590196609497
1619090604.42511,383.7038,25.600210189819336
1619090604.44074,323.9403,25.615840196609497
1619090604.45637,272.1909,25.631470203399658
1619090604.47199,228.5488,25.647090196609497
1619090604.48762,192.4006,25.662720203399658
1619090604.50324,163.0492,25.678340196609497
1619090604.51887,139.8342,25.693970203399658
1619090604.53449,121.9059,25.709590196609497
1619090604.55012,108.0362,25.725220203399658
1619090604.56575,96.62167,25.74084997177124
1619090604.58137,86.02318,25.756470203399658
1619090604.597,74.88477,25.77209997177124
1619090604.61262,62.54004,25.787720203399658
1619090604.62825,48.96591,25.80334997177124
1619090604.64387,34.58017,25.818970203399658
1619090604.6595,19.93787,25.83459997177124
1619090604.67513,5.314789,25.8502299785614
1619090604.69075,-9.415924,25.86584997177124
1619090604.70638,-24.84329,25.8814799785614
1619090604.722,-41.71933,25.89709997177124
1619090604.73763,-60.72275,25.9127299785614
1619090604.75325,-82.13727,25.92834997177124
1619090604.76888,-105.8772,25.9439799785614
1619090604.78451,-131.6576,25.959609985351562
1619090604.80013,-159.1487,25.9752299785614
1619090604.81576,-187.9799,25.990859985351562
1619090604.83138,-217.4336,26.0064799785614
1619090604.84701,-246.1061,26.022109985351562
1619090604.86263,-271.762,26.0377299785614
1619090604.87826,-291.7954,26.053359985351562
1619090604.89389,-304.0909,26.068989992141724
1619090604.90951,-308.0269,26.084609985351562
1619090604.92514,-304.837,26.100239992141724
1619090604.94076,-297.2083,26.115859985351562
1619090604.95639,-288.067,26.131489992141724
1619090604.97201,-279.3232,26.147109985351562
1619090604.98764,-271.2039,26.162739992141724
1619090605.00327,-262.5461,26.178369998931885
1619090605.01889,-251.9543,26.193989992141724
1619090605.03452,-238.9228,26.209619998931885
1619090605.05014,-224.3591,26.225239992141724
1619090605.06577,-210.2187,26.240869998931885
1619090605.08139,-198.4697,26.256489992141724
1619090605.09702,-190.0771,26.272119998931885
1619090605.11265,-184.6256,26.287750005722046
1619090605.12827,-180.6889,26.303369998931885
1619090605.1439,-176.6785,26.319000005722046
1619090605.15952,-171.7032,26.334619998931885
1619090605.17515,-165.9046,26.350250005722046
1619090605.19077,-160.1396,26.365869998931885
1619090605.2064,-155.4001,26.381500005722046
1619090605.22203,-152.2045,26.397130012512207
1619090605.23765,-150.4542,26.412750005722046
1619090605.25328,-149.6243,26.428380012512207
1619090605.2689,-149.1196,26.444000005722046
1619090605.28453,-148.4872,26.459630012512207
1619090605.30015,-147.3851,26.475250005722046
1619090605.31578,-145.319,26.490880012512207
1619090605.33141,-141.4738,26.506510019302368
1619090605.34703,-134.8423,26.522130012512207
1619090605.36266,-124.6578,26.537760019302368
1619090605.37828,-110.8452,26.553380012512207
1619090605.39391,-94.21869,26.569010019302368
1619090605.40954,-76.33417,26.58464002609253
1619090605.42516,-58.87457,26.600260019302368
1619090605.44079,-43.12592,26.61589002609253
1619090605.45641,-29.6546,26.631510019302368
1619090605.47204,-18.3103,26.64714002609253
1619090605.48766,-8.597107,26.662760019302368
1619090605.50329,0.002258301,26.67839002609253
1619090605.51892,7.818909,26.69402003288269
1619090605.53454,14.9812,26.70964002609253
1619090605.55017,21.47675,26.72527003288269
1619090605.56579,27.26001,26.74089002609253
1619090605.58142,32.24158,26.75652003288269
1619090605.59704,36.3089,26.77214002609253
1619090605.61267,39.3078,26.78777003288269
1619090605.6283,41.14386,26.80340003967285
1619090605.64392,41.86993,26.81902003288269
1619090605.65955,41.74164,26.83465003967285
1619090605.67517,41.26685,26.85027003288269
1619090605.6908,41.00568,26.86590003967285
1619090605.70642,41.38385,26.88152003288269
1619090605.72205,42.56976,26.89715003967285
1619090605.73768,44.38489,26.912780046463013
1619090605.7533,46.4173,26.92840003967285
1619090605.76893,48.20984,26.944030046463013
1619090605.78455,49.41241,26.95965003967285
1619090605.80018,49.94073,26.975280046463013
1619090605.8158,49.9552,26.99090003967285
1619090605.83143,49.69257,27.006530046463013
1619090605.84706,49.35919,27.022160053253174
1619090605.86268,48.92444,27.037780046463013
1619090605.87831,48.1568,27.053410053253174
1619090605.89393,46.76935,27.069030046463013
1619090605.90956,44.57776,27.084660053253174
1619090605.92518,41.61945,27.100280046463013
1619090605.94081,38.20319,27.115910053253174
1619090605.95644,34.72717,27.131540060043335
1619090605.97206,31.59326,27.147160053253174
1619090605.98769,29.06262,27.162790060043335
1619090606.00331,27.17108,27.178410053253174
1619090606.01894,25.77838,27.194040060043335
1619090606.03456,24.62048,27.209660053253174
1619090606.05019,23.43109,27.225290060043335
1619090606.06582,21.95984,27.240920066833496
1619090606.08144,20.06165,27.256540060043335
1619090606.09707,17.69934,27.272170066833496
1619090606.11269,14.96375,27.287790060043335
1619090606.12832,12.04144,27.303420066833496
1619090606.14394,9.129211,27.319040060043335
1619090606.15957,6.30719,27.334670066833496
1619090606.1752,3.572144,27.350300073623657
1619090606.19082,0.7485352,27.365920066833496
1619090606.20645,-2.353394,27.381550073623657
1619090606.22207,-5.860474,27.397170066833496
1619090606.2377,-9.724976,27.412800073623657
1619090606.25332,-13.79626,27.428420066833496
1619090606.26895,-17.84369,27.444050073623657
1619090606.28458,-21.75195,27.45968008041382
1619090606.3002,-25.59741,27.475300073623657
1619090606.31583,-29.65546,27.49093008041382
1619090606.33145,-34.37555,27.506550073623657
1619090606.34708,-40.1488,27.52218008041382
1619090606.3627,-47.05194,27.537800073623657
1619090606.37833,-54.66455,27.55343008041382
1619090606.39396,-61.9986,27.56906008720398
1619090606.40958,-67.65808,27.58468008041382
1619090606.42521,-70.20215,27.60031008720398
1619090606.44083,-68.5874,27.61593008041382
1619090606.45646,-62.49908,27.63156008720398
1619090606.47208,-52.49207,27.64718008041382
1619090606.48771,-39.83191,27.66281008720398
1619090606.50334,-26.05646,27.67844009399414
1619090606.51896,-12.617,27.69406008720398
1619090606.53459,-0.548645,27.70969009399414
1619090606.55021,9.707581,27.72531008720398
1619090606.56584,18.15985,27.74094009399414
1619090606.58146,25.15076,27.75656008720398
1619090606.59709,31.10229,27.77219009399414
1619090606.61272,36.37726,27.7878201007843
1619090606.62834,41.17767,27.80344009399414
1619090606.64397,45.52402,27.8190701007843
1619090606.65959,49.23376,27.83469009399414
1619090606.67522,52.08084,27.8503201007843
1619090606.69084,53.8414,27.86594009399414
1619090606.70647,54.51926,27.8815701007843
1619090606.7221,54.29156,27.897200107574463
1619090606.73772,53.52884,27.9128201007843
1619090606.75335,52.63281,27.928450107574463
1619090606.76897,51.96347,27.9440701007843
1619090606.7846,51.74854,27.959700107574463
1619090606.80022,51.99658,27.9753201007843
1619090606.81585,52.65622,27.990950107574463
1619090606.83148,53.50256,28.006580114364624
1619090606.8471,54.35046,28.022200107574463
1619090606.86273,54.93359,28.037830114364624
1619090606.87835,55.0321,28.053450107574463
1619090606.89398,54.48819,28.069080114364624
1619090606.9096,53.20016,28.084700107574463
1619090606.92523,51.23276,28.100330114364624
1619090606.94086,48.71124,28.115960121154785
1619090606.95648,45.84006,28.131580114364624
1619090606.97211,42.82593,28.147210121154785
1619090606.98773,39.81308,28.162830114364624
1619090607.00336,36.8916,28.178460121154785
1619090607.01898,34.07465,28.194080114364624
1619090607.03461,31.40854,28.209710121154785
1619090607.05024,28.94763,28.225340127944946
1619090607.06586,26.76578,28.240960121154785
1619090607.08149,24.94733,28.256590127944946
1619090607.09711,23.50684,28.272210121154785
1619090607.11274,22.30966,28.287840127944946
1619090607.12836,21.09332,28.303460121154785
1619090607.14399,19.52594,28.319090127944946
1619090607.15962,17.29352,28.334720134735107
1619090607.17524,14.25797,28.350340127944946
1619090607.19087,10.47519,28.365970134735107
1619090607.20649,6.225525,28.381590127944946
1619090607.22212,1.901703,28.397220134735107
1619090607.23774,-2.141113,28.412840127944946
1619090607.25337,-5.687317,28.428470134735107
1619090607.269,-8.72934,28.44410014152527
1619090607.28462,-11.4397,28.459720134735107
1619090607.30025,-14.07819,28.47535014152527
1619090607.31587,-16.82898,28.490970134735107
1619090607.3315,-19.84222,28.50660014152527
1619090607.34712,-23.07098,28.522220134735107
1619090607.36275,-26.41159,28.53785014152527
1619090607.37838,-29.78479,28.55348014831543
1619090607.394,-33.20349,28.56910014152527
1619090607.40963,-36.85385,28.58473014831543
1619090607.42525,-40.99268,28.60035014152527
1619090607.44088,-45.89539,28.61598014831543
1619090607.4565,-51.63531,28.63160014152527
1619090607.47213,-57.99384,28.64723014831543
1619090607.48776,-64.32495,28.66286015510559
1619090607.50338,-69.62521,28.67848014831543
1619090607.51901,-72.75214,28.69411015510559
1619090607.53463,-72.6749,28.70973014831543
1619090607.55026,-68.85995,28.72536015510559
1619090607.56589,-61.43594,28.740990161895752
1619090607.58151,-51.24127,28.75661015510559
1619090607.59714,-39.53928,28.772240161895752
1619090607.61276,-27.72943,28.78786015510559
1619090607.62839,-16.91663,28.803490161895752
1619090607.64401,-7.670197,28.81911015510559
1619090607.65964,-0.05856323,28.834740161895752
1619090607.67527,6.321198,28.850370168685913
1619090607.69089,11.99423,28.865990161895752
1619090607.70652,17.39639,28.881620168685913
1619090607.72214,22.72803,28.897240161895752
1619090607.73777,27.9386,28.912870168685913
1619090607.75339,32.73526,28.928490161895752
1619090607.76902,36.80209,28.944120168685913
1619090607.78465,39.89581,28.959750175476074
1619090607.80027,41.93106,28.975370168685913
1619090607.8159,43.04132,28.991000175476074
1619090607.83152,43.44806,29.006620168685913
1619090607.84715,43.4653,29.022250175476074
1619090607.86277,43.33682,29.037870168685913
1619090607.8784,43.29553,29.053500175476074
1619090607.89403,43.43527,29.069130182266235
1619090607.90965,43.79623,29.084750175476074
1619090607.92528,44.31906,29.100380182266235
1619090607.9409,44.83783,29.116000175476074
1619090607.95653,45.14096,29.131630182266235
1619090607.97215,44.98309,29.147250175476074
1619090607.98778,44.23138,29.162880182266235
1619090608.00341,42.88257,29.178510189056396
1619090608.01903,41.08267,29.194130182266235
1619090608.03466,39.05457,29.209760189056396
1619090608.05028,37.03076,29.225380182266235
1619090608.06591,35.19757,29.241010189056396
1619090608.08153,33.61761,29.256630182266235
1619090608.09716,32.32355,29.272260189056396
1619090608.11279,31.20981,29.287890195846558
1619090608.12841,30.09891,29.303510189056396
1619090608.14404,28.82538,29.319140195846558
1619090608.15966,27.24155,29.334760189056396
1619090608.17529,25.3027,29.350390195846558
1619090608.19091,23.14749,29.366010189056396
1619090608.20654,20.98315,29.381640195846558
1619090608.22217,18.98688,29.39727020263672
1619090608.23779,17.26654,29.412890195846558
1619090608.25342,15.70404,29.42852020263672
1619090608.26904,14.12241,29.444140195846558
1619090608.28467,12.32645,29.45977020263672
1619090608.30029,10.19559,29.475390195846558
1619090608.31592,7.700928,29.49102020263672
1619090608.33155,4.921936,29.5066499710083
1619090608.34717,1.981506,29.52227020263672
1619090608.3628,-1.034149,29.5378999710083
1619090608.37842,-4.027496,29.55352020263672
1619090608.39405,-6.998749,29.5691499710083
1619090608.40967,-9.996063,29.58477020263672
1619090608.4253,-13.09955,29.6003999710083
1619090608.44093,-16.45715,29.616029977798462
1619090608.45655,-20.15784,29.6316499710083
1619090608.47218,-24.20392,29.647279977798462
1619090608.4878,-28.52686,29.6628999710083
1619090608.50343,-32.98425,29.678529977798462
1619090608.51905,-37.39664,29.6941499710083
1619090608.53468,-41.65479,29.709779977798462
1619090608.55031,-45.6749,29.725409984588623
1619090608.56593,-49.48227,29.741029977798462
1619090608.58156,-53.22754,29.756659984588623
1619090608.59718,-57.1918,29.772279977798462
1619090608.61281,-61.71429,29.787909984588623
1619090608.62843,-67.07632,29.803529977798462
1619090608.64406,-73.16122,29.819159984588623
1619090608.65969,-79.29465,29.834789991378784
1619090608.67531,-84.24008,29.850409984588623
1619090608.69094,-86.47366,29.866039991378784
1619090608.70656,-84.68573,29.881659984588623
1619090608.72219,-78.31461,29.897289991378784
1619090608.73781,-67.76544,29.912909984588623
1619090608.75344,-54.3699,29.928539991378784
1619090608.76907,-39.94357,29.944169998168945
1619090608.78469,-26.17868,29.959789991378784
1619090608.80032,-14.22189,29.975419998168945
1619090608.81594,-4.505585,29.991039991378784
1619090608.83157,3.135895,30.006669998168945
1619090608.84719,9.223206,30.022289991378784
1619090608.86282,14.30994,30.037919998168945
1619090608.87845,18.89618,30.053550004959106
1619090608.89407,23.30347,30.069169998168945
1619090608.9097,27.6615,30.084800004959106
1619090608.92532,31.94769,30.100419998168945
1619090608.94095,35.98306,30.116050004959106
1619090608.95657,39.46912,30.131669998168945
1619090608.9722,42.12711,30.147300004959106
1619090608.98783,43.73392,30.162930011749268
1619090609.00345,44.23602,30.178550004959106
1619090609.01908,43.77747,30.194180011749268
1619090609.0347,42.66782,30.209800004959106
1619090609.05033,41.30667,30.225430011749268
1619090609.06595,40.11639,30.241050004959106
1619090609.08158,39.36032,30.256680011749268
1619090609.09721,39.12427,30.27231001853943
1619090609.11283,39.29538,30.287930011749268
1619090609.12846,39.57477,30.30356001853943
1619090609.14408,39.61005,30.319180011749268
1619090609.15971,39.12943,30.33481001853943
1619090609.17533,37.93307,30.350430011749268
1619090609.19096,35.98599,30.36606001853943
1619090609.20659,33.35333,30.38169002532959
1619090609.22221,30.24274,30.39731001853943
1619090609.23784,26.93564,30.41294002532959
1619090609.25346,23.76862,30.42856001853943
1619090609.26909,21.02023,30.44419002532959
1619090609.28471,18.84018,30.45981001853943
1619090609.30034,17.17154,30.47544002532959
1619090609.31597,15.7471,30.49107003211975
1619090609.33159,14.28922,30.50669002532959
1619090609.34722,12.61539,30.52232003211975
1619090609.36284,10.73401,30.53794002532959
1619090609.37847,8.826782,30.55357003211975
1619090609.39409,7.114716,30.56919002532959
1619090609.40972,5.743988,30.58482003211975
1619090609.42535,4.652557,30.600450038909912
1619090609.44097,3.678436,30.61607003211975
1619090609.4566,2.532227,30.631700038909912
1619090609.47222,1.01825,30.64732003211975
1619090609.48785,-0.9428101,30.662950038909912
1619090609.50347,-3.240082,30.67857003211975
1619090609.5191,-5.618622,30.694200038909912
1619090609.53473,-7.811523,30.709830045700073
1619090609.55035,-9.665619,30.725450038909912
1619090609.56598,-11.28711,30.741080045700073
1619090609.5816,-12.99188,30.756700038909912
1619090609.59723,-15.22226,30.772330045700073
1619090609.61285,-18.24976,30.787950038909912
1619090609.62848,-22.05765,30.803580045700073
1619090609.64411,-26.37891,30.819210052490234
1619090609.65973,-30.78241,30.834830045700073
1619090609.67536,-35.0217,30.850460052490234
1619090609.69098,-39.09766,30.866080045700073
1619090609.70661,-43.30655,30.881710052490234
1619090609.72223,-47.98401,30.897330045700073
1619090609.73786,-53.41394,30.912960052490234
1619090609.75349,-59.68539,30.928590059280396
1619090609.76911,-66.67679,30.944210052490234
1619090609.78474,-73.99384,30.959840059280396
1619090609.80036,-80.914,30.975460052490234
1619090609.81599,-86.4646,30.991090059280396
1619090609.83161,-89.3891,31.006710052490234
1619090609.84724,-88.6008,31.022340059280396
1619090609.86287,-83.53387,31.037970066070557
1619090609.87849,-74.51956,31.053590059280396
1619090609.89412,-62.78387,31.069220066070557
1619090609.90974,-50.06424,31.084840059280396
1619090609.92537,-38.01047,31.100470066070557
1619090609.94099,-27.65479,31.116090059280396
1619090609.95662,-19.25854,31.131720066070557
1619090609.97225,-12.42319,31.147350072860718
1619090609.98787,-6.568268,31.162970066070557
1619090610.0035,-1.232849,31.178600072860718
1619090610.01912,3.768402,31.194220066070557
1619090610.03475,8.441956,31.209850072860718
1619090610.05037,12.77328,31.225470066070557
1619090610.066,16.80115,31.241100072860718
1619090610.08163,20.56451,31.25673007965088
1619090610.09725,23.92566,31.272350072860718
1619090610.11288,26.63928,31.28798007965088
1619090610.1285,28.35034,31.303600072860718
1619090610.14413,28.80594,31.31923007965088
1619090610.15975,28.03271,31.334850072860718
1619090610.17538,26.36826,31.35048007965088
1619090610.19101,24.37927,31.36611008644104
1619090610.20663,22.65884,31.38173007965088
1619090610.22226,21.6593,31.39736008644104
1619090610.23788,21.46353,31.41298007965088
1619090610.25351,21.80521,31.42861008644104
1619090610.26914,22.10275,31.4442400932312
1619090610.28476,21.6485,31.45986008644104
1619090610.30039,19.90448,31.4754900932312
1619090610.31601,16.6922,31.49111008644104
1619090610.33164,12.25491,31.5067400932312
1619090610.34726,7.180603,31.52236008644104
1619090610.36289,2.130249,31.5379900932312
1619090610.37852,-2.455292,31.553620100021362
1619090610.39414,-6.487366,31.5692400932312
1619090610.40977,-10.22574,31.584870100021362
1619090610.42539,-14.01166,31.6004900932312
1619090610.44102,-18.06421,31.616120100021362
1619090610.45664,-22.34705,31.6317400932312
1619090610.47227,-26.6011,31.647370100021362
1619090610.4879,-30.47876,31.663000106811523
1619090610.50352,-33.62918,31.678620100021362
1619090610.51915,-35.67017,31.694250106811523
1619090610.53477,-36.13831,31.709870100021362
1619090610.5504,-34.66473,31.725500106811523
1619090610.56602,-31.14917,31.741120100021362
1619090610.58165,-25.96924,31.756750106811523
1619090610.59728,-19.96271,31.772380113601685
1619090610.6129,-13.97174,31.788000106811523
1619090610.62853,-8.243195,31.803630113601685
1619090610.64415,-2.005157,31.819250106811523
1619090610.65978,6.430084,31.834880113601685
1619090610.6754,19.03778,31.850500106811523
1619090610.69103,37.07275,31.866130113601685
1619090610.70666,60.42697,31.881760120391846
1619090610.72228,87.52896,31.897380113601685
1619090610.73791,115.8172,31.913010120391846
1619090610.75353,142.5581,31.928630113601685
1619090610.76916,165.4252,31.944260120391846
1619090610.78478,182.7101,31.959880113601685
1619090610.80041,193.1354,31.975510120391846
1619090610.81604,195.7249,31.991140127182007
1619090610.83166,189.7705,32.006760120391846
1619090610.84729,175.0837,32.02239012718201
1619090610.86291,152.1743,32.038010120391846
1619090610.87854,122.2851,32.05364012718201
1619090610.89416,87.25131,32.069260120391846
1619090610.90979,49.23755,32.08489012718201
1619090610.92542,10.59412,32.10052013397217
1619090610.94104,-26.35876,32.11614012718201
1619090610.95667,-59.44717,32.13177013397217
1619090610.97229,-86.86517,32.14739012718201
1619090610.98792,-107.4674,32.16302013397217
1619090611.00354,-120.8984,32.17864012718201
1619090611.01917,-127.6186,32.19427013397217
1619090611.0348,-128.7058,32.20990014076233
1619090611.05042,-125.5329,32.22552013397217
1619090611.06605,-119.4566,32.24115014076233
1619090611.08167,-111.6764,32.25677013397217
1619090611.0973,-103.1735,32.27240014076233
1619090611.11292,-94.76144,32.28802013397217
1619090611.12855,-87.10495,32.30365014076233
1619090611.14418,-80.63602,32.31928014755249
1619090611.1598,-75.59683,32.33490014076233
1619090611.17543,-71.89868,32.35053014755249
1619090611.19105,-69.27649,32.36615014076233
1619090611.20668,-67.35794,32.38178014755249
1619090611.2223,-65.81464,32.39740014076233
1619090611.23793,-64.45386,32.41303014755249
1619090611.25356,-63.21597,32.42866015434265
1619090611.26918,-62.14713,32.44428014755249
1619090611.28481,-61.34485,32.45991015434265
1619090611.30043,-60.95477,32.47553014755249
1619090611.31606,-61.14297,32.49116015434265
1619090611.33168,-62.2121,32.50678014755249
1619090611.34731,-64.39423,32.52241015434265
1619090611.36294,-67.65442,32.53804016113281
1619090611.37856,-71.35501,32.55366015434265
1619090611.39419,-74.14523,32.56929016113281
1619090611.40981,-74.13434,32.58491015434265
1619090611.42544,-69.43777,32.60054016113281
1619090611.44106,-58.77005,32.61616015434265
1619090611.45669,-41.88974,32.63179016113281
1619090611.47232,-19.57684,32.647420167922974
1619090611.48794,6.66095,32.66304016113281
1619090611.50357,34.97086,32.678670167922974
1619090611.51919,63.41922,32.69429016113281
1619090611.53482,90.04352,32.709920167922974
1619090611.55044,112.9001,32.72554016113281
1619090611.56607,130.2333,32.741170167922974
1619090611.5817,140.8283,32.756800174713135
1619090611.59732,144.3351,32.772420167922974
1619090611.61295,141.395,32.788050174713135
1619090611.62857,133.3544,32.803670167922974
1619090611.6442,121.8055,32.819300174713135
1619090611.65982,108.068,32.834920167922974
1619090611.67545,92.99463,32.850550174713135
1619090611.69108,77.05946,32.866180181503296
1619090611.7067,60.59033,32.881800174713135
1619090611.72233,43.95016,32.897430181503296
1619090611.73795,27.52402,32.913050174713135
1619090611.75358,11.59152,32.928680181503296
1619090611.7692,-3.761429,32.944300174713135
1619090611.78483,-18.6353,32.959930181503296
1619090611.80046,-33.11497,32.97556018829346
1619090611.81608,-47.09038,32.991180181503296
1619090611.83171,-60.19946,33.00681018829346
1619090611.84733,-71.87959,33.022430181503296
1619090611.86296,-81.58566,33.03806018829346
1619090611.87858,-88.94908,33.053680181503296
1619090611.89421,-93.93515,33.06931018829346
1619090611.90984,-96.72641,33.08494019508362
1619090611.92546,-97.53722,33.10056018829346
1619090611.94109,-96.30882,33.11619019508362
1619090611.95671,-92.56842,33.13181018829346
1619090611.97234,-85.50325,33.14744019508362
1619090611.98796,-74.42699,33.16306018829346
1619090612.00359,-59.26112,33.17869019508362
1619090612.01922,-40.90611,33.19432020187378
1619090612.03484,-21.19946,33.20994019508362
1619090612.05047,-2.37912,33.22557020187378
1619090612.06609,13.70259,33.24119019508362
1619090612.08172,26.23686,33.25682020187378
1619090612.09734,35.57025,33.27244019508362
1619090612.11297,42.84535,33.28807020187378
1619090612.1286,49.33936,33.30369997024536
1619090612.14422,55.94475,33.31932020187378
1619090612.15985,63.01236,33.33494997024536
1619090612.17547,70.54984,33.35057020187378
1619090612.1911,78.43011,33.36619997024536
1619090612.20672,86.48099,33.38182020187378
1619090612.22235,94.27454,33.39744997024536
1619090612.23798,100.9948,33.41307997703552
1619090612.2536,105.4784,33.42869997024536
1619090612.26923,106.6674,33.44432997703552
1619090612.28485,104.0493,33.45994997024536
1619090612.30048,98.02249,33.47557997703552
1619090612.3161,89.73743,33.49119997024536
1619090612.33173,80.63907,33.50682997703552
1619090612.34736,71.86679,33.522459983825684
1619090612.36298,63.87694,33.53807997703552
1619090612.37861,56.48254,33.553709983825684
1619090612.39423,49.16265,33.56932997703552
1619090612.40986,41.51107,33.584959983825684
1619090612.42549,33.34418,33.600589990615845
1619090612.44111,24.70757,33.616209983825684
1619090612.45674,15.56448,33.631839990615845
1619090612.47236,5.683182,33.647459983825684
1619090612.48799,-5.428749,33.663089990615845
1619090612.50361,-18.20596,33.678709983825684
1619090612.51924,-32.79345,33.694339990615845
1619090612.53487,-48.85564,33.709969997406006
1619090612.55049,-65.65657,33.725589990615845
1619090612.56612,-82.43325,33.741219997406006
1619090612.58174,-98.74017,33.756839990615845
1619090612.59737,-114.7402,33.772469997406006
1619090612.61299,-131.105,33.788089990615845
1619090612.62862,-148.6321,33.803719997406006
1619090612.64425,-167.7596,33.81935000419617
1619090612.65987,-188.1073,33.834969997406006
1619090612.6755,-208.3687,33.85060000419617
1619090612.69112,-226.4496,33.866219997406006
1619090612.70675,-239.8677,33.88185000419617
1619090612.72237,-246.1282,33.897469997406006
1619090612.738,-243.1091,33.91310000419617
1619090612.75363,-229.4596,33.92873001098633
1619090612.76925,-204.946,33.94435000419617
1619090612.78488,-170.885,33.95998001098633
1619090612.8005,-130.2176,33.97560000419617
1619090612.81613,-87.09283,33.99123001098633
1619090612.83175,-45.91834,34.00685000419617
1619090612.84738,-10.15691,34.02248001098633
1619090612.86301,18.66675,34.03811001777649
1619090612.87863,41.12952,34.05373001098633
1619090612.89426,59.2702,34.06936001777649
1619090612.90988,75.52705,34.08498001098633
1619090612.92551,91.68445,34.10061001777649
1619090612.94113,108.4336,34.11623001098633
1619090612.95676,125.622,34.13186001777649
1619090612.97239,142.8004,34.14749002456665
1619090612.98801,159.5667,34.16311001777649
1619090613.00364,175.6095,34.17874002456665
1619090613.01926,190.4439,34.19436001777649
1619090613.03489,203.1787,34.20999002456665
1619090613.05051,212.6136,34.22561001777649
1619090613.06614,217.5579,34.24124002456665
1619090613.08177,217.3043,34.25687003135681
1619090613.09739,211.8301,34.27249002456665
1619090613.11302,201.7109,34.28812003135681
1619090613.12864,187.9282,34.30374002456665
1619090613.14427,171.6539,34.31937003135681
1619090613.15989,154.1615,34.33499002456665
1619090613.17552,136.8185,34.35062003135681
1619090613.19115,121.0698,34.36625003814697
1619090613.20677,108.188,34.38187003135681
1619090613.2224,99.00632,34.39750003814697
1619090613.23802,93.66842,34.41312003135681
1619090613.25365,91.51067,34.42875003814697
1619090613.26927,91.24212,34.44437003135681
1619090613.2849,91.37462,34.46000003814697
1619090613.30053,90.52792,34.475630044937134
1619090613.31615,87.80708,34.49125003814697
1619090613.33178,82.81477,34.506880044937134
1619090613.3474,75.63218,34.52250003814697
1619090613.36303,66.7289,34.538130044937134
1619090613.37865,56.88655,34.55375003814697
1619090613.39428,47.27024,34.569380044937134
1619090613.40991,39.25981,34.585010051727295
1619090613.42553,34.22577,34.600630044937134
1619090613.44116,32.99618,34.616260051727295
1619090613.45678,35.52289,34.631880044937134
1619090613.47241,40.70964,34.647510051727295
1619090613.48803,46.79765,34.663130044937134
1619090613.50366,51.94086,34.678760051727295
1619090613.51929,54.88869,34.694390058517456
1619090613.53491,55.29496,34.710010051727295
1619090613.55054,53.60983,34.725640058517456
1619090613.56616,50.60815,34.741260051727295
1619090613.58179,46.89724,34.756890058517456
1619090613.59741,42.78137,34.772510051727295
1619090613.61304,38.34199,34.788140058517456
1619090613.62867,33.68301,34.80377006530762
1619090613.64429,28.93398,34.819390058517456
1619090613.65992,24.16605,34.83502006530762
1619090613.67554,19.27885,34.850640058517456
1619090613.69117,14.02499,34.86627006530762
1619090613.70679,8.243507,34.881890058517456
1619090613.72242,1.957199,34.89752006530762
1619090613.73805,-4.644142,34.91315007209778
1619090613.75367,-11.54997,34.92877006530762
1619090613.7693,-19.23071,34.94440007209778
1619090613.78492,-28.69254,34.96002006530762
1619090613.80055,-41.19209,34.97565007209778
1619090613.81617,-57.55556,34.99127006530762
1619090613.8318,-77.69559,35.00690007209778
1619090613.84743,-100.3813,35.02253007888794
1619090613.86305,-123.5955,35.03815007209778
1619090613.87868,-145.1854,35.05378007888794
1619090613.8943,-163.4752,35.06940007209778
1619090613.90993,-177.5201,35.08503007888794
1619090613.92555,-186.9465,35.10065007209778
1619090613.94118,-191.6824,35.11628007888794
1619090613.95681,-191.6302,35.1319100856781
1619090613.97243,-186.6612,35.14753007888794
1619090613.98806,-176.7391,35.1631600856781
1619090614.00368,-162.3053,35.17878007888794
1619090614.01931,-144.4477,35.1944100856781
1619090614.03493,-124.9101,35.21003007888794
1619090614.05056,-105.5958,35.2256600856781
1619090614.06619,-87.8772,35.24129009246826
1619090614.08181,-72.03877,35.2569100856781
1619090614.09744,-57.19655,35.27254009246826
1619090614.11306,-41.96634,35.2881600856781
1619090614.12869,-25.52888,35.30379009246826
1619090614.14431,-8.566864,35.3194100856781
1619090614.15994,6.590195,35.33504009246826
1619090614.17557,16.70184,35.35067009925842
1619090614.19119,19.00414,35.36629009246826
1619090614.20682,12.49963,35.38192009925842
1619090614.22244,-1.523666,35.39754009246826
1619090614.23807,-19.82597,35.41317009925842
1619090614.25369,-38.34308,35.42879009246826
1619090614.26932,-53.40808,35.44442009925842
1619090614.28495,-62.45514,35.460050106048584
1619090614.30057,-64.22845,35.47567009925842
1619090614.3162,-58.55276,35.491300106048584
1619090614.33182,-46.14226,35.50692009925842
1619090614.34745,-28.43689,35.522550106048584
1619090614.36307,-7.686279,35.53817009925842
1619090614.3787,13.24698,35.553800106048584
1619090614.39433,31.31966,35.569430112838745
1619090614.40995,44.01109,35.585050106048584
1619090614.42558,49.96275,35.600680112838745
1619090614.4412,49.35147,35.616300106048584
1619090614.45683,43.68698,35.631930112838745
1619090614.47245,35.14908,35.647550106048584
1619090614.48808,25.73241,35.663180112838745
1619090614.50371,16.61969,35.678810119628906
1619090614.51933,8.018265,35.694430112838745
1619090614.53496,-0.5506592,35.710060119628906
1619090614.55058,-9.644882,35.725680112838745
1619090614.56621,-19.38086,35.741310119628906
1619090614.58183,-29.1703,35.756930112838745
1619090614.59746,-37.93024,35.772560119628906
1619090614.61309,-44.41051,35.78819012641907
1619090614.62871,-47.52373,35.803810119628906
1619090614.64434,-46.55368,35.81944012641907
1619090614.65996,-41.12126,35.835060119628906
1619090614.67559,-31.21202,35.85069012641907
1619090614.69122,-17.20268,35.86632013320923
1619090614.70684,0.01937866,35.88194012641907
1619090614.72247,18.9642,35.89757013320923
1619090614.73809,37.64075,35.91319012641907
1619090614.75372,53.92365,35.92882013320923
1619090614.76934,65.97252,35.94444012641907
1619090614.78497,72.77687,35.96007013320923
1619090614.8006,74.32947,35.97570013999939
1619090614.81622,71.56396,35.99132013320923
1619090614.83185,65.96298,36.00695013999939
1619090614.84747,59.06711,36.02257013320923
1619090614.8631,52.01772,36.03820013999939
1619090614.87872,45.31747,36.05382013320923
1619090614.89435,38.88512,36.06945013999939
1619090614.90998,32.2605,36.08508014678955
1619090614.9256,24.90408,36.10070013999939
1619090614.94123,16.43095,36.11633014678955
1619090614.95685,6.728561,36.13195013999939
1619090614.97248,-3.895401,36.14758014678955
1619090614.9881,-14.789,36.16320013999939
1619090615.00373,-25.09325,36.17883014678955
1619090615.01936,-33.94337,36.19446015357971
1619090615.03498,-40.81335,36.21008014678955
1619090615.05061,-45.62276,36.22571015357971
1619090615.06623,-48.88095,36.24133014678955
1619090615.08186,-51.40222,36.25696015357971
1619090615.09748,-54.03934,36.27258014678955
1619090615.11311,-57.28917,36.28821015357971
1619090615.12874,-61.04781,36.30384016036987
1619090615.14436,-64.57468,36.31946015357971
1619090615.15999,-66.6459,36.33509016036987
1619090615.17561,-65.91678,36.35071015357971
1619090615.19124,-61.31348,36.36634016036987
1619090615.20686,-52.45229,36.38196015357971
1619090615.22249,-39.89236,36.39759016036987
1619090615.23812,-25.09549,36.413220167160034
1619090615.25374,-10.14754,36.42884016036987
1619090615.26937,2.854889,36.444470167160034
1619090615.28499,12.44968,36.46009016036987
1619090615.30062,18.20346,36.475720167160034
1619090615.31624,20.81772,36.49134016036987
1619090615.33187,21.73148,36.506970167160034
1619090615.3475,22.47531,36.522600173950195
1619090615.36312,24.08464,36.538220167160034
1619090615.37875,26.63083,36.553850173950195
1619090615.39437,29.26024,36.569470167160034
1619090615.41,30.46496,36.585100173950195
1619090615.42562,28.71592,36.600720167160034
1619090615.44125,22.98226,36.616350173950195
1619090615.45688,13.1185,36.631980180740356
1619090615.4725,-0.1106567,36.647600173950195
1619090615.48813,-15.21709,36.663230180740356
1619090615.50375,-30.45317,36.678850173950195
1619090615.51938,-44.24946,36.694480180740356
1619090615.535,-55.56797,36.710100173950195
1619090615.55063,-63.97472,36.725730180740356
1619090615.56626,-69.52419,36.74136018753052
1619090615.58188,-72.55563,36.756980180740356
1619090615.59751,-73.4863,36.77261018753052
1619090615.61313,-72.73311,36.788230180740356
1619090615.62876,-70.69421,36.80386018753052
1619090615.64438,-67.95184,36.819480180740356
1619090615.66001,-65.25632,36.83511018753052
1619090615.67564,-63.46888,36.85074019432068
1619090615.69126,-63.44841,36.86636018753052
1619090615.70689,-65.73191,36.88199019432068
1619090615.72251,-70.46722,36.89761018753052
1619090615.73814,-77.28049,36.91324019432068
1619090615.75376,-85.46249,36.92886018753052
1619090615.76939,-94.25855,36.94449019432068
1619090615.78502,-103.1086,36.96012020111084
1619090615.80064,-111.8561,36.97574019432068
1619090615.81627,-120.6913,36.99137020111084
1619090615.83189,-129.9534,37.00699019432068
1619090615.84752,-139.8359,37.02262020111084
1619090615.86314,-150.3001,37.03824019432068
1619090615.87877,-161.1308,37.05387020111084
1619090615.8944,-171.9586,37.06949996948242
1619090615.91002,-182.3255,37.08512020111084
1619090615.92565,-191.4334,37.10074996948242
1619090615.94127,-198.0065,37.11637020111084
1619090615.9569,-200.3033,37.13199996948242
1619090615.97252,-196.5703,37.14762020111084
1619090615.98815,-185.6539,37.16324996948242
1619090616.00378,-167.6422,37.17887997627258
1619090616.0194,-143.9953,37.19449996948242
1619090616.03503,-117.1615,37.21012997627258
1619090616.05065,-89.81729,37.22574996948242
1619090616.06628,-64.10184,37.24137997627258
1619090616.0819,-41.22226,37.25699996948242
1619090616.09753,-21.49442,37.27262997627258
1619090616.11316,-4.61554,37.288259983062744
1619090616.12878,10.20822,37.30387997627258
1619090616.14441,24.12372,37.319509983062744
1619090616.16003,38.66516,37.33512997627258
1619090616.17566,55.62308,37.350759983062744
1619090616.19128,76.55185,37.36637997627258
1619090616.20691,102.3504,37.382009983062744
1619090616.22254,132.8804,37.397639989852905
1619090616.23816,167.0057,37.413259983062744
1619090616.25379,203.0949,37.428889989852905
1619090616.26941,239.6109,37.444509983062744
1619090616.28504,275.6206,37.460139989852905
1619090616.30066,311.1461,37.475759983062744
1619090616.31629,347.1257,37.491389989852905
1619090616.33192,385.1578,37.507019996643066
1619090616.34754,427.0211,37.522639989852905
1619090616.36317,473.7686,37.538269996643066
1619090616.37879,524.6705,37.553889989852905
1619090616.39442,576.4506,37.569519996643066
1619090616.41004,623.2197,37.585139989852905
1619090616.42567,657.5915,37.600769996643066
1619090616.4413,672.7625,37.61640000343323
1619090616.45692,664.707,37.632019996643066
1619090616.47255,633.6556,37.64765000343323
1619090616.48817,583.9629,37.663269996643066
1619090616.5038,522.5649,37.67890000343323
1619090616.51942,456.8329,37.694519996643066
1619090616.53505,392.6619,37.71015000343323
1619090616.55068,333.6715,37.72578001022339
1619090616.5663,281.4398,37.74140000343323
1619090616.58193,236.4041,37.75703001022339
1619090616.59755,198.5169,37.77265000343323
1619090616.61318,167.519,37.78828001022339
1619090616.6288,142.8227,37.80390000343323
1619090616.64443,123.2547,37.81953001022339
1619090616.66006,107.1662,37.83516001701355
1619090616.67568,92.84375,37.85078001022339
1619090616.69131,78.86584,37.86641001701355
1619090616.70693,64.4621,37.88203001022339
1619090616.72256,49.60229,37.89766001701355
1619090616.73818,34.63043,37.91328001022339
1619090616.75381,19.94388,37.92891001701355
1619090616.76944,5.663452,37.94454002380371
1619090616.78506,-8.547836,37.96016001701355
1619090616.80069,-23.31794,37.97579002380371
1619090616.81631,-39.31409,37.99141001701355
1619090616.83194,-57.07706,38.00704002380371
1619090616.84756,-76.81544,38.02266001701355
1619090616.86319,-98.44917,38.03829002380371
1619090616.87882,-121.8032,38.05392003059387
1619090616.89444,-146.8052,38.06954002380371
1619090616.91007,-173.5252,38.08517003059387
1619090616.92569,-202.0614,38.10079002380371
1619090616.94132,-232.249,38.11642003059387
1619090616.95694,-263.309,38.13204002380371
1619090616.97257,-293.642,38.14767003059387
1619090616.9882,-320.9199,38.16330003738403
1619090617.00382,-342.5339,38.17892003059387
1619090617.01945,-356.3826,38.19455003738403
1619090617.03507,-361.562,38.21017003059387
1619090617.0507,-358.7521,38.22580003738403
1619090617.06632,-350.1436,38.24142003059387
1619090617.08195,-338.7086,38.25705003738403
1619090617.09758,-327.233,38.272680044174194
1619090617.1132,-317.541,38.28830003738403
1619090617.12883,-310.1446,38.303930044174194
1619090617.14445,-304.4802,38.31955003738403
1619090617.16008,-299.5389,38.335180044174194
1619090617.1757,-294.3515,38.35080003738403
1619090617.19133,-288.2162,38.366430044174194
1619090617.20696,-280.5493,38.382060050964355
1619090617.22258,-270.6558,38.397680044174194
1619090617.23821,-257.6803,38.413310050964355
1619090617.25383,-240.9438,38.428930044174194
1619090617.26946,-220.409,38.444560050964355
1619090617.28509,-197.054,38.46019005775452
1619090617.30071,-172.7484,38.475810050964355
1619090617.31634,-149.6178,38.49144005775452
1619090617.33196,-129.275,38.507060050964355
1619090617.34759,-112.2845,38.52269005775452
1619090617.36321,-97.99179,38.538310050964355
1619090617.37884,-84.98633,38.55394005775452
1619090617.39447,-71.75018,38.56957006454468
1619090617.41009,-57.24802,38.58519005775452
1619090617.42572,-41.26233,38.60082006454468
1619090617.44134,-24.30597,38.61644005775452
1619090617.45697,-7.357941,38.63207006454468
1619090617.47259,8.48291,38.64769005775452
1619090617.48822,22.21713,38.66332006454468
1619090617.50385,33.15985,38.67895007133484
1619090617.51947,40.98483,38.69457006454468
1619090617.5351,45.70364,38.71020007133484
1619090617.55072,47.70642,38.72582006454468
1619090617.56635,47.57651,38.74145007133484
1619090617.58197,46.04526,38.75707006454468
1619090617.5976,43.86368,38.77270007133484
1619090617.61323,41.76236,38.788330078125
1619090617.62885,40.34238,38.80395007133484
1619090617.64448,39.97751,38.819580078125
1619090617.6601,40.73651,38.83520007133484
1619090617.67573,42.34631,38.850830078125
1619090617.69135,44.22763,38.86645007133484
1619090617.70698,45.65561,38.882080078125
1619090617.72261,46.02191,38.89771008491516
1619090617.73823,45.0629,38.913330078125
1619090617.75386,43.05087,38.92896008491516
1619090617.76948,40.73499,38.944580078125
1619090617.78511,39.14261,38.96021008491516
1619090617.80073,39.21384,38.975830078125
1619090617.81636,41.423,38.99146008491516
1619090617.83199,45.61978,39.00709009170532
1619090617.84761,50.93616,39.02271008491516
1619090617.86324,56.17068,39.03834009170532
1619090617.87886,60.07892,39.05396008491516
1619090617.89449,61.85117,39.06959009170532
1619090617.91011,61.32452,39.08521008491516
1619090617.92574,58.9187,39.10084009170532
1619090617.94137,55.40321,39.11647009849548
1619090617.95699,51.48669,39.13209009170532
1619090617.97262,47.61664,39.14772009849548
1619090617.98824,43.82289,39.16334009170532
1619090618.00387,39.95679,39.17897009849548
1619090618.01949,35.80978,39.19459009170532
1619090618.03512,31.27441,39.21022009849548
1619090618.05075,26.38718,39.225850105285645
1619090618.06637,21.28853,39.24147009849548
1619090618.082,16.14017,39.257100105285645
1619090618.09762,11.13245,39.27272009849548
1619090618.11325,6.435623,39.288350105285645
1619090618.12887,2.175735,39.30397009849548
1619090618.1445,-1.654007,39.319600105285645
1619090618.16013,-5.25885,39.335230112075806
1619090618.17575,-9.008499,39.350850105285645
1619090618.19138,-13.29181,39.366480112075806
1619090618.207,-18.40819,39.382100105285645
1619090618.22263,-24.45924,39.397730112075806
1619090618.23825,-31.31091,39.413350105285645
1619090618.25388,-38.69638,39.428980112075806
1619090618.26951,-46.22466,39.44461011886597
1619090618.28513,-53.53819,39.460230112075806
1619090618.30076,-60.3015,39.47586011886597
1619090618.31638,-66.34337,39.491480112075806
1619090618.33201,-71.687,39.50711011886597
1619090618.34763,-76.66185,39.522730112075806
1619090618.36326,-81.76866,39.53836011886597
1619090618.37889,-87.44908,39.55399012565613
1619090618.39451,-93.67198,39.56961011886597
1619090618.41014,-99.60847,39.58524012565613
1619090618.42576,-103.7282,39.60086011886597
1619090618.44139,-104.1847,39.61649012565613
1619090618.45701,-99.52592,39.63211011886597
1619090618.47264,-89.21852,39.64774012565613
1619090618.48827,-73.91306,39.66337013244629
1619090618.50389,-55.25758,39.67899012565613
1619090618.51952,-35.38269,39.69462013244629
1619090618.53514,-16.36023,39.71024012565613
1619090618.55077,0.2727203,39.72587013244629
1619090618.56639,13.71194,39.74149012565613
1619090618.58202,23.93204,39.75712013244629
1619090618.59765,31.49303,39.77275013923645
1619090618.61327,37.30155,39.78837013244629
1619090618.6289,42.3236,39.80400013923645
1619090618.64452,47.27452,39.81962013244629
1619090618.66015,52.40855,39.83525013923645
1619090618.67577,57.48147,39.85087013244629
1619090618.6914,61.91692,39.86650013923645
1619090618.70703,65.14223,39.88213014602661
1619090618.72265,66.85102,39.89775013923645
1619090618.73828,67.22366,39.91338014602661
1619090618.7539,66.87546,39.92900013923645
1619090618.76953,66.81581,39.94463014602661
1619090618.78515,68.2294,39.96025013923645
1619090618.80078,72.18097,39.97588014602661
1619090618.81641,79.07611,39.99151015281677
1619090618.83203,88.21564,40.00713014602661
1619090618.84766,97.53142,40.02276015281677
1619090618.86328,104.0576,40.03838014602661
1619090618.87891,104.8604,40.05401015281677
1619090618.89453,98.38176,40.06963014602661
1619090618.91016,85.30957,40.08526015281677
1619090618.92579,68.61197,40.100890159606934
1619090618.94141,52.50314,40.11651015281677
1619090618.95704,40.73621,40.132140159606934
1619090618.97266,35.15162,40.14776015281677
1619090618.98829,35.10859,40.163390159606934
1619090619.00391,38.06668,40.17901015281677
1619090619.01954,40.96957,40.194640159606934
1619090619.03517,41.54555,40.210270166397095
1619090619.05079,39.02207,40.225890159606934
1619090619.06642,33.90382,40.241520166397095
1619090619.08204,27.2588,40.257140159606934
1619090619.09767,19.98519,40.272770166397095
1619090619.11329,12.55593,40.288390159606934
1619090619.12892,5.16997,40.304020166397095
1619090619.14455,-1.822544,40.319650173187256
1619090619.16017,-7.718483,40.335270166397095
1619090619.1758,-11.53963,40.350900173187256
1619090619.19142,-12.57569,40.366520166397095
1619090619.20705,-10.81963,40.382150173187256
1619090619.22267,-7.157352,40.397770166397095
1619090619.2383,-3.152449,40.413400173187256
1619090619.25393,-0.4188843,40.42903017997742
1619090619.26955,-0.06258202,40.444650173187256
1619090619.28518,-2.297735,40.46028017997742
1619090619.3008,-6.585644,40.475900173187256
1619090619.31643,-11.96428,40.49153017997742
1619090619.33205,-17.51102,40.507150173187256
1619090619.34768,-22.70867,40.52278017997742
1619090619.36331,-27.46101,40.53841018676758
1619090619.37893,-31.9459,40.55403017997742
1619090619.39456,-36.30437,40.56966018676758
1619090619.41018,-40.54781,40.58528017997742
1619090619.42581,-44.5652,40.60091018676758
1619090619.44143,-48.32897,40.61653017997742
1619090619.45706,-52.07308,40.63216018676758
1619090619.47269,-56.33911,40.64779019355774
1619090619.48831,-61.71375,40.66341018676758
1619090619.50394,-68.41301,40.67904019355774
1619090619.51956,-75.87255,40.69466018676758
1619090619.53519,-82.725,40.71029019355774
1619090619.55082,-87.0954,40.7259202003479
1619090619.56644,-87.25169,40.74154019355774
1619090619.58207,-82.26294,40.7571702003479
1619090619.59769,-72.325,40.77279019355774
1619090619.61332,-58.67265,40.7884202003479
1619090619.62894,-43.15704,40.80404019355774
1619090619.64457,-27.61701,40.8196702003479
1619090619.6602,-13.47492,40.83530020713806
1619090619.67582,-1.501583,40.8509202003479
1619090619.69145,8.116154,40.86655020713806
1619090619.70707,15.58473,40.8821702003479
1619090619.7227,21.30348,40.89780020713806
1619090619.73832,25.73119,40.9134202003479
1619090619.75395,29.30377,40.92905020713806
1619090619.76958,32.30531,40.944679975509644
1619090619.7852,34.94211,40.96030020713806
1619090619.80083,37.24215,40.975929975509644
1619090619.81645,39.17096,40.99155020713806
1619090619.83208,40.66722,41.007179975509644
1619090619.8477,41.71791,41.02280020713806
1619090619.86333,42.4198,41.038429975509644
1619090619.87896,43.01584,41.054059982299805
1619090619.89458,43.84387,41.069679975509644
1619090619.91021,45.24913,41.085309982299805
1619090619.92583,47.43989,41.100929975509644
1619090619.94146,50.35924,41.116559982299805
1619090619.95708,53.68794,41.132179975509644
1619090619.97271,56.90768,41.147809982299805
1619090619.98834,59.46148,41.163439989089966
1619090620.00396,60.87672,41.179059982299805
1619090620.01959,60.88111,41.194689989089966
1619090620.03521,59.44602,41.210309982299805
1619090620.05084,56.798,41.225939989089966
1619090620.06646,53.42609,41.241559982299805
1619090620.08209,49.88515,41.257189989089966
1619090620.09772,46.75238,41.27281999588013
1619090620.11334,44.39712,41.288439989089966
1619090620.12897,42.83889,41.30406999588013
1619090620.14459,41.72989,41.319689989089966
1619090620.16022,40.53199,41.33531999588013
1619090620.17584,38.79505,41.350939989089966
1619090620.19147,36.37256,41.36656999588013
1619090620.2071,33.54564,41.38220000267029
1619090620.22272,30.76295,41.39781999588013
1619090620.23835,28.46964,41.41345000267029
1619090620.25397,26.78826,41.42906999588013
1619090620.2696,25.46999,41.44470000267029
1619090620.28522,24.06023,41.46031999588013
1619090620.30085,22.12315,41.47595000267029
1619090620.31648,19.47871,41.49158000946045
1619090620.3321,16.29904,41.50720000267029
1619090620.34773,13.04646,41.52283000946045
1619090620.36335,10.15978,41.53845000267029
1619090620.37898,7.95155,41.55408000946045
1619090620.3946,6.412569,41.56970000267029
1619090620.41023,5.243156,41.58533000946045
1619090620.42586,3.940849,41.60096001625061
1619090620.44148,2.0578,41.61658000946045
1619090620.45711,-0.6294518,41.63221001625061
1619090620.47273,-3.861298,41.64783000946045
1619090620.48836,-6.862312,41.66346001625061
1619090620.50398,-8.385002,41.67908000946045
1619090620.51961,-7.081161,41.69471001625061
1619090620.53524,-2.117546,41.71034002304077
1619090620.55086,6.384232,41.72596001625061
1619090620.56649,17.04008,41.74159002304077
1619090620.58211,27.54341,41.75721001625061
1619090620.59774,35.45232,41.77284002304077
1619090620.61336,39.20395,41.78846001625061
1619090620.62899,38.94084,41.80409002304077
1619090620.64462,36.57214,41.81972002983093
1619090620.66024,35.17274,41.83534002304077
1619090620.67587,37.77955,41.85097002983093
1619090620.69149,46.2722,41.86659002304077
1619090620.70712,60.67931,41.88222002983093
1619090620.72274,79.18759,41.89784002304077
1619090620.73837,98.79773,41.91347002983093
1619090620.754,116.0025,41.929100036621094
1619090620.76962,127.5687,41.94472002983093
1619090620.78525,130.9708,41.960350036621094
1619090620.80087,124.7303,41.97597002983093
1619090620.8165,108.6001,41.991600036621094
1619090620.83212,83.62894,42.00722002983093
1619090620.84775,51.94965,42.022850036621094
1619090620.86338,16.34195,42.038480043411255
1619090620.879,-20.3166,42.054100036621094
1619090620.89463,-55.50948,42.069730043411255
1619090620.91025,-87.18568,42.085350036621094
1619090620.92588,-113.6561,42.100980043411255
1619090620.9415,-133.3279,42.116600036621094
1619090620.95713,-144.624,42.132230043411255
1619090620.97276,-145.9698,42.147860050201416
1619090620.98838,-136.2597,42.163480043411255
1619090621.00401,-115.3537,42.179110050201416
1619090621.01963,-84.59818,42.194730043411255
1619090621.03526,-46.99277,42.210360050201416
1619090621.05088,-6.82019,42.225980043411255
1619090621.06651,31.16809,42.241610050201416
1619090621.08214,63.02158,42.25724005699158
1619090621.09776,86.49191,42.272860050201416
1619090621.11339,101.4573,42.28849005699158
1619090621.12901,109.2666,42.304110050201416
1619090621.14464,111.6847,42.31974005699158
1619090621.16026,109.6149,42.335360050201416
1619090621.17589,102.5878,42.35099005699158
1619090621.19152,89.1875,42.36662006378174
1619090621.20714,68.22183,42.38224005699158
1619090621.22277,39.97287,42.39787006378174
1619090621.23839,6.820496,42.41349005699158
1619090621.25402,-27.24002,42.42912006378174
1619090621.26964,-57.83957,42.44474005699158
1619090621.28527,-81.58124,42.46037006378174
1619090621.3009,-96.99799,42.4760000705719
1619090621.31652,-104.6633,42.49162006378174
1619090621.33215,-106.5474,42.5072500705719
1619090621.34777,-105.1223,42.52287006378174
1619090621.3634,-102.461,42.5385000705719
1619090621.37902,-99.91776,42.55412006378174
1619090621.39465,-98.31403,42.5697500705719
1619090621.41028,-98.38278,42.58538007736206
1619090621.4259,-100.7624,42.6010000705719
1619090621.44153,-105.8785,42.61663007736206
1619090621.45715,-113.764,42.6322500705719
1619090621.47278,-123.8561,42.64788007736206
1619090621.4884,-135.2381,42.6635000705719
1619090621.50403,-147.0539,42.67913007736206
1619090621.51966,-158.9779,42.69476008415222
1619090621.53528,-171.1279,42.71038007736206
1619090621.55091,-183.8468,42.72601008415222
1619090621.56653,-196.4893,42.74163007736206
1619090621.58216,-207.0651,42.75726008415222
1619090621.59778,-212.9958,42.77288007736206
1619090621.61341,-212.2067,42.78851008415222
1619090621.62904,-204.1974,42.80414009094238
1619090621.64466,-190.4012,42.81976008415222
1619090621.66029,-173.7919,42.83539009094238
1619090621.67591,-157.7647,42.85101008415222
1619090621.69154,-145.3042,42.86664009094238
1619090621.70717,-137.3962,42.882270097732544
1619090621.72279,-133.1502,42.89789009094238
1619090621.73842,-130.8133,42.913520097732544
1619090621.75404,-128.4469,42.92914009094238
1619090621.76967,-123.7687,42.944770097732544
1619090621.78529,-113.8094,42.96039009094238
1619090621.80092,-95.34283,42.976020097732544
1619090621.81655,-66.35532,42.991650104522705
1619090621.83217,-28.72504,43.007270097732544
1619090621.8478,12.0463,43.022900104522705
1619090621.86342,47.49963,43.038520097732544
1619090621.87905,68.37381,43.054150104522705
1619090621.89467,68.29333,43.069770097732544
1619090621.9103,46.86725,43.085400104522705
1619090621.92593,10.48169,43.101030111312866
1619090621.94155,-30.23999,43.116650104522705
1619090621.95718,-64.75467,43.132280111312866
1619090621.9728,-87.22107,43.147900104522705
1619090621.98843,-95.81866,43.163530111312866
1619090622.00405,-91.73106,43.179150104522705
1619090622.01968,-77.66193,43.194780111312866
1619090622.03531,-56.20398,43.21041011810303
1619090622.05093,-29.34114,43.226030111312866
1619090622.06656,1.121384,43.24166011810303
1619090622.08218,32.77852,43.257280111312866
1619090622.09781,68.11359,43.27291011810303
1619090622.11343,101.3492,43.288530111312866
1619090622.12906,123.618,43.30416011810303
1619090622.14469,129.6499,43.31979012489319
1619090622.16031,120.8066,43.33541011810303
1619090622.17594,102.8108,43.35104012489319
1619090622.19156,81.51619,43.36666011810303
1619090622.20719,60.92481,43.38229012489319
1619090622.22281,42.9431,43.39791011810303
1619090622.23844,28.09538,43.41354012489319
1619090622.25407,15.34127,43.42917013168335
1619090622.26969,4.040106,43.44479012489319
1619090622.28532,-4.689739,43.46042013168335
1619090622.30094,-9.816226,43.47604012489319
1619090622.31657,-11.03541,43.49167013168335
1619090622.33219,-9.007016,43.50729012489319
1619090622.34782,-4.627018,43.52292013168335
1619090622.36345,1.478359,43.53855013847351
1619090622.37907,9.227821,43.55417013168335
1619090622.3947,18.34509,43.56980013847351
1619090622.41032,29.7287,43.58542013168335
1619090622.42595,45.20242,43.60105013847351
1619090622.44157,63.78873,43.61667013168335
1619090622.4572,84.20327,43.63230013847351
1619090622.47283,104.714,43.64793014526367
1619090622.48845,124.0084,43.66355013847351
1619090622.50408,141.5882,43.67918014526367
1619090622.5197,157.8615,43.69480013847351
1619090622.53533,173.6031,43.71043014526367
1619090622.55095,190.8387,43.72605013847351
1619090622.56658,212.4901,43.74168014526367
1619090622.58221,240.9864,43.75731015205383
1619090622.59783,277.1277,43.77293014526367
1619090622.61346,318.5542,43.78856015205383
1619090622.62908,359.7337,43.80418014526367
1619090622.64471,393.2031,43.81981015205383
1619090622.66033,412.1135,43.83543014526367
1619090622.67596,412.7632,43.85106015205383
1619090622.69159,396.5766,43.866690158843994
1619090622.70721,369.4922,43.88231015205383
1619090622.72284,339.1326,43.897940158843994
1619090622.73846,311.9927,43.91356015205383
1619090622.75409,291.1274,43.929190158843994
1619090622.76971,276.2162,43.94481015205383
1619090622.78534,265.0036,43.960440158843994
1619090622.80097,255.2292,43.976070165634155
1619090622.81659,245.598,43.991690158843994
1619090622.83222,235.7664,44.007320165634155
1619090622.84784,225.5136,44.022940158843994
1619090622.86347,213.8845,44.038570165634155
1619090622.87909,199.4519,44.054190158843994
1619090622.89472,180.9003,44.069820165634155
1619090622.91035,158.0736,44.085450172424316
1619090622.92597,132.1984,44.101070165634155
1619090622.9416,105.5504,44.116700172424316
1619090622.95722,80.50157,44.132320165634155
1619090622.97285,58.42233,44.147950172424316
1619090622.98847,39.15323,44.163570165634155
1619090623.0041,21.16946,44.179200172424316
1619090623.01973,2.441437,44.19483017921448
1619090623.03535,-18.67299,44.210450172424316
1619090623.05098,-42.62698,44.22608017921448
1619090623.0666,-68.65848,44.241700172424316
1619090623.08223,-95.08887,44.25733017921448
1619090623.09785,-120.1513,44.272950172424316
1619090623.11348,-142.7507,44.28858017921448
1619090623.12911,-162.8416,44.30421018600464
1619090623.14473,-181.3435,44.31983017921448
1619090623.16036,-199.81,44.33546018600464
1619090623.17598,-220.0034,44.35108017921448
1619090623.19161,-243.2837,44.36671018600464
