timestamp,value,norm_ts
1619375074.80412,-22.23047,0.6941201686859131
1619375074.81974,-2.801331,0.709740161895752
1619375074.83537,20.65143,0.7253701686859131
1619375074.85099,45.42426,0.740990161895752
1619375074.86662,68.69086,0.7566201686859131
1619375074.88225,88.28137,0.7722501754760742
1619375074.89787,103.2646,0.7878701686859131
1619375074.9135,114.056,0.8035001754760742
1619375074.92912,121.9394,0.8191201686859131
1619375074.94475,128.3273,0.8347501754760742
1619375074.96037,133.9437,0.8503701686859131
1619375074.976,138.48,0.8660001754760742
1619375074.99163,140.7849,0.8816301822662354
1619375075.00725,139.4188,0.8972501754760742
1619375075.02288,133.285,0.9128801822662354
1619375075.0385,122.0956,0.9285001754760742
1619375075.05413,106.4495,0.9441301822662354
1619375075.06975,87.69611,0.9597501754760742
1619375075.08538,67.66193,0.9753801822662354
1619375075.10101,48.39325,0.9910101890563965
1619375075.11663,31.95923,1.0066301822662354
1619375075.13226,20.05902,1.0222601890563965
1619375075.14788,13.62268,1.0378801822662354
1619375075.16351,12.37653,1.0535101890563965
1619375075.17913,14.83685,1.0691301822662354
1619375075.19476,18.68738,1.0847601890563965
1619375075.21039,21.5979,1.1003901958465576
1619375075.22601,22.09222,1.1160101890563965
1619375075.24164,19.88892,1.1316401958465576
1619375075.25726,15.80725,1.1472601890563965
1619375075.27289,11.117,1.1628901958465576
1619375075.28851,6.745911,1.1785101890563965
1619375075.30414,2.97821,1.1941401958465576
1619375075.31977,-0.4740601,1.2097702026367188
1619375075.33539,-4.007263,1.2253901958465576
1619375075.35102,-7.801636,1.2410202026367188
1619375075.36664,-11.74994,1.2566401958465576
1619375075.38227,-15.89618,1.2722702026367188
1619375075.39789,-20.83533,1.2878901958465576
1619375075.41352,-27.75226,1.3035202026367188
1619375075.42915,-38.0354,1.3191502094268799
1619375075.44477,-52.39349,1.3347702026367188
1619375075.4604,-70.23792,1.3504002094268799
1619375075.47602,-89.56641,1.3660202026367188
1619375075.49165,-107.5064,1.3816502094268799
1619375075.50727,-121.2811,1.3972702026367188
1619375075.5229,-129.1086,1.4129002094268799
1619375075.53853,-130.574,1.428530216217041
1619375075.55415,-126.3992,1.4441502094268799
1619375075.56978,-117.8094,1.459780216217041
1619375075.5854,-105.9659,1.4754002094268799
1619375075.60103,-91.86932,1.491030216217041
1619375075.61665,-76.61877,1.5066502094268799
1619375075.63228,-61.73236,1.522280216217041
1619375075.64791,-49.08801,1.5379102230072021
1619375075.66353,-40.37537,1.553530216217041
1619375075.67916,-36.35602,1.5691602230072021
1619375075.69478,-36.33545,1.584780216217041
1619375075.71041,-38.25085,1.6004102230072021
1619375075.72603,-39.50934,1.616030216217041
1619375075.74166,-38.03961,1.6316602230072021
1619375075.75729,-33.1048,1.6472899913787842
1619375075.77291,-25.40576,1.6629102230072021
1619375075.78854,-16.539,1.6785399913787842
1619375075.80416,-8.073547,1.6941602230072021
1619375075.81979,-0.8274536,1.7097899913787842
1619375075.83542,5.374817,1.7254199981689453
1619375075.85104,11.30823,1.7410399913787842
1619375075.86667,17.74286,1.7566699981689453
1619375075.88229,24.90723,1.7722899913787842
1619375075.89792,32.33813,1.7879199981689453
1619375075.91354,39.19391,1.8035399913787842
1619375075.92917,44.62268,1.8191699981689453
1619375075.9448,48.16687,1.8348000049591064
1619375075.96042,49.81769,1.8504199981689453
1619375075.97605,49.95709,1.8660500049591064
1619375075.99167,49.08716,1.8816699981689453
1619375076.0073,47.75934,1.8973000049591064
1619375076.02292,46.50238,1.9129199981689453
1619375076.03855,45.84247,1.9285500049591064
1619375076.05418,46.28534,1.9441800117492676
1619375076.0698,48.19379,1.9598000049591064
1619375076.08543,51.6731,1.9754300117492676
1619375076.10105,56.45575,1.9910500049591064
1619375076.11668,61.9668,2.0066800117492676
1619375076.1323,67.4472,2.0223000049591064
1619375076.14793,72.08319,2.0379300117492676
1619375076.16356,75.01965,2.0535600185394287
1619375076.17918,75.35107,2.0691800117492676
1619375076.19481,72.14886,2.0848100185394287
1619375076.21043,64.64899,2.1004300117492676
1619375076.22606,52.64954,2.1160600185394287
1619375076.24168,36.82666,2.1316800117492676
1619375076.25731,18.828,2.1473100185394287
1619375076.27294,0.9425659,2.16294002532959
1619375076.28856,-14.52142,2.1785600185394287
1619375076.30419,-25.95428,2.19419002532959
1619375076.31981,-32.84381,2.2098100185394287
1619375076.33544,-35.76208,2.22544002532959
1619375076.35106,-35.92175,2.2410600185394287
1619375076.36669,-34.58026,2.25669002532959
1619375076.38232,-32.57312,2.272320032119751
1619375076.39794,-30.25049,2.28794002532959
1619375076.41357,-27.67792,2.303570032119751
1619375076.42919,-24.979,2.31919002532959
1619375076.44482,-22.49005,2.334820032119751
1619375076.46044,-20.72607,2.35044002532959
1619375076.47607,-20.16284,2.366070032119751
1619375076.4917,-21.05804,2.381700038909912
1619375076.50732,-23.32025,2.397320032119751
1619375076.52295,-26.60156,2.412950038909912
1619375076.53857,-30.46436,2.428570032119751
1619375076.5542,-34.49976,2.444200038909912
1619375076.56982,-38.46545,2.459820032119751
1619375076.58545,-42.20905,2.475450038909912
1619375076.60108,-45.66687,2.4910800457000732
1619375076.6167,-48.88263,2.506700038909912
1619375076.63233,-51.92316,2.5223300457000732
1619375076.64795,-54.83478,2.537950038909912
1619375076.66358,-57.61639,2.5535800457000732
1619375076.6792,-60.18103,2.569200038909912
1619375076.69483,-62.36243,2.5848300457000732
1619375076.71046,-64.02899,2.6004600524902344
1619375076.72608,-65.12848,2.6160800457000732
1619375076.74171,-65.67548,2.6317100524902344
1619375076.75733,-65.71826,2.6473300457000732
1619375076.77296,-65.16943,2.6629600524902344
1619375076.78858,-63.85834,2.6785800457000732
1619375076.80421,-61.53351,2.6942100524902344
1619375076.81984,-57.93994,2.7098400592803955
1619375076.83546,-52.77234,2.7254600524902344
1619375076.85109,-45.70892,2.7410900592803955
1619375076.86671,-36.39923,2.7567100524902344
1619375076.88234,-24.5401,2.7723400592803955
1619375076.89796,-10.09259,2.7879600524902344
1619375076.91359,6.510681,2.8035900592803955
1619375076.92922,24.23956,2.8192200660705566
1619375076.94484,41.638,2.8348400592803955
1619375076.96047,57.20599,2.8504700660705566
1619375076.97609,69.88202,2.8660900592803955
1619375076.99172,79.26196,2.8817200660705566
1619375077.00734,85.58136,2.8973400592803955
1619375077.02297,89.38092,2.9129700660705566
1619375077.0386,91.13483,2.9286000728607178
1619375077.05422,91.08307,2.9442200660705566
1619375077.06985,89.1908,2.9598500728607178
1619375077.08547,85.4043,2.9754700660705566
1619375077.1011,79.85883,2.9911000728607178
1619375077.11672,72.95215,3.0067200660705566
1619375077.13235,65.21167,3.0223500728607178
1619375077.14798,57.2262,3.037980079650879
1619375077.1636,49.48212,3.0536000728607178
1619375077.17923,42.37683,3.069230079650879
1619375077.19485,36.33466,3.0848500728607178
1619375077.21048,31.76166,3.100480079650879
1619375077.2261,28.97711,3.1161000728607178
1619375077.24173,27.99011,3.131730079650879
1619375077.25736,28.28656,3.14736008644104
1619375077.27298,28.8396,3.162980079650879
1619375077.28861,28.33392,3.17861008644104
1619375077.30423,25.60913,3.194230079650879
1619375077.31986,20.0354,3.20986008644104
1619375077.33548,11.77948,3.225480079650879
1619375077.35111,1.645264,3.24111008644104
1619375077.36674,-9.207642,3.256740093231201
1619375077.38236,-19.63965,3.27236008644104
1619375077.39799,-28.77942,3.287990093231201
1619375077.41361,-35.94421,3.30361008644104
1619375077.42924,-40.55005,3.319240093231201
1619375077.44486,-41.94012,3.33486008644104
1619375077.46049,-39.51099,3.350490093231201
1619375077.47612,-33.00262,3.3661201000213623
1619375077.49174,-22.7674,3.381740093231201
1619375077.50737,-9.874084,3.3973701000213623
1619375077.52299,4.098267,3.412990093231201
1619375077.53862,17.52008,3.4286201000213623
1619375077.55424,29.22864,3.444240093231201
1619375077.56987,38.72992,3.4598701000213623
1619375077.5855,46.21625,3.4755001068115234
1619375077.60112,52.23303,3.4911201000213623
1619375077.61675,57.36322,3.5067501068115234
1619375077.63237,61.88464,3.5223701000213623
1619375077.648,65.68066,3.5380001068115234
1619375077.66362,68.28491,3.5536201000213623
1619375077.67925,69.04688,3.5692501068115234
1619375077.69488,67.3476,3.5848801136016846
1619375077.7105,62.6991,3.6005001068115234
1619375077.72613,54.86749,3.6161301136016846
1619375077.74175,43.94135,3.6317501068115234
1619375077.75738,30.41565,3.6473801136016846
1619375077.773,15.18073,3.6630001068115234
1619375077.78863,-0.5252686,3.6786301136016846
1619375077.80426,-15.18903,3.6942601203918457
1619375077.81988,-27.27576,3.7098801136016846
1619375077.83551,-35.51007,3.7255101203918457
1619375077.85113,-39.29675,3.7411301136016846
1619375077.86676,-38.87085,3.7567601203918457
1619375077.88238,-35.3562,3.7723801136016846
1619375077.89801,-30.40411,3.7880101203918457
1619375077.91364,-25.66077,3.803640127182007
1619375077.92926,-22.32227,3.8192601203918457
1619375077.94489,-20.83936,3.834890127182007
1619375077.96051,-21.04041,3.8505101203918457
1619375077.97614,-22.33948,3.866140127182007
1619375077.99176,-24.02948,3.8817601203918457
1619375078.00739,-25.40808,3.897390127182007
1619375078.02302,-25.79749,3.913020133972168
1619375078.03864,-24.43298,3.928640127182007
1619375078.05427,-20.60999,3.944270133972168
1619375078.06989,-13.9538,3.959890127182007
1619375078.08552,-4.720703,3.975520133972168
1619375078.10115,5.999146,3.991150140762329
1619375078.11677,16.59869,4.006770133972168
1619375078.1324,25.43414,4.022400140762329
1619375078.14802,31.49158,4.038020133972168
1619375078.16365,34.66315,4.053650140762329
1619375078.17927,35.66522,4.069270133972168
1619375078.1949,35.53674,4.084900140762329
1619375078.21053,35.09247,4.10053014755249
1619375078.22615,34.61432,4.116150140762329
1619375078.24178,33.85254,4.13178014755249
1619375078.2574,32.41077,4.147400140762329
1619375078.27303,29.96826,4.16303014755249
1619375078.28865,26.52356,4.178650140762329
1619375078.30428,22.34412,4.19428014755249
1619375078.31991,17.83929,4.209910154342651
1619375078.33553,13.43597,4.22553014755249
1619375078.35116,9.495544,4.241160154342651
1619375078.36678,6.380249,4.25678014755249
1619375078.38241,4.356995,4.272410154342651
1619375078.39803,3.578552,4.28803014755249
1619375078.41366,4.03833,4.303660154342651
1619375078.42929,5.454346,4.3192901611328125
1619375078.44491,7.297729,4.334910154342651
1619375078.46054,8.916626,4.3505401611328125
1619375078.47616,9.655945,4.366160154342651
1619375078.49179,9.043152,4.3817901611328125
1619375078.50741,6.943787,4.397410154342651
1619375078.52304,3.560181,4.4130401611328125
1619375078.53867,-0.5859985,4.428670167922974
1619375078.55429,-4.84845,4.4442901611328125
1619375078.56992,-8.730286,4.459920167922974
1619375078.58554,-12.07751,4.4755401611328125
1619375078.60117,-15.10895,4.491170167922974
1619375078.61679,-18.19739,4.5067901611328125
1619375078.63242,-21.56763,4.522420167922974
1619375078.64805,-25.04773,4.538050174713135
1619375078.66367,-28.07416,4.553670167922974
1619375078.6793,-29.86243,4.569300174713135
1619375078.69492,-29.80188,4.584920167922974
1619375078.71055,-27.68628,4.600550174713135
1619375078.72617,-23.86438,4.616170167922974
1619375078.7418,-19.07831,4.631800174713135
1619375078.75743,-14.16119,4.647430181503296
1619375078.77305,-9.727783,4.663050174713135
1619375078.78868,-6.033081,4.678680181503296
1619375078.8043,-3.0383,4.694300174713135
1619375078.81993,-0.5472717,4.709930181503296
1619375078.83555,1.605347,4.725550174713135
1619375078.85118,3.469879,4.741180181503296
1619375078.86681,4.985962,4.756810188293457
1619375078.88243,6.117523,4.772430181503296
1619375078.89806,6.850372,4.788060188293457
1619375078.91368,7.295166,4.803680181503296
1619375078.92931,7.594086,4.819310188293457
1619375078.94493,7.867249,4.834930181503296
1619375078.96056,8.138428,4.850560188293457
1619375078.97619,8.316101,4.866190195083618
1619375078.99181,8.20639,4.881810188293457
1619375079.00744,7.644531,4.897440195083618
1619375079.02306,6.497284,4.913060188293457
1619375079.03869,4.763794,4.928690195083618
1619375079.05431,2.549591,4.944310188293457
1619375079.06994,0.01538086,4.959940195083618
1619375079.08557,-2.665863,4.975570201873779
1619375079.10119,-5.328918,4.991190195083618
1619375079.11682,-7.87265,5.006820201873779
1619375079.13244,-10.29019,5.022440195083618
1619375079.14807,-12.60059,5.038070201873779
1619375079.16369,-14.88721,5.053690195083618
1619375079.17932,-17.26309,5.069320201873779
1619375079.19495,-19.83475,5.08495020866394
1619375079.21057,-22.64142,5.100570201873779
1619375079.2262,-25.56067,5.11620020866394
1619375079.24182,-28.29907,5.131820201873779
1619375079.25745,-30.3949,5.14745020866394
1619375079.27307,-31.34311,5.163070201873779
1619375079.2887,-30.68146,5.17870020866394
1619375079.30433,-28.14761,5.194330215454102
1619375079.31995,-23.78589,5.20995020866394
1619375079.33558,-17.9389,5.225580215454102
1619375079.3512,-11.25241,5.24120020866394
1619375079.36683,-4.505341,5.256830215454102
1619375079.38245,1.532104,5.27245020866394
1619375079.39808,6.297211,5.288080215454102
1619375079.41371,9.535767,5.303710222244263
1619375079.42933,11.30344,5.319330215454102
1619375079.44496,11.90152,5.334960222244263
1619375079.46058,11.64618,5.350580215454102
1619375079.47621,10.83704,5.366210222244263
1619375079.49183,9.644043,5.381830215454102
1619375079.50746,8.232574,5.397460222244263
1619375079.52309,6.758118,5.413089990615845
1619375079.53871,5.447113,5.428710222244263
1619375079.55434,4.5,5.444339990615845
1619375079.56996,4.010742,5.459960222244263
1619375079.58559,3.89093,5.475589990615845
1619375079.60121,3.852142,5.491210222244263
1619375079.61684,3.545532,5.506839990615845
1619375079.63247,2.667358,5.522469997406006
1619375079.64809,1.1474,5.538089990615845
1619375079.66372,-0.8937378,5.553719997406006
1619375079.67934,-3.176147,5.569339990615845
1619375079.69497,-5.394897,5.584969997406006
1619375079.71059,-7.397766,5.600589990615845
1619375079.72622,-9.199371,5.616219997406006
1619375079.74185,-10.96759,5.631850004196167
1619375079.75747,-12.86407,5.647469997406006
1619375079.7731,-14.99341,5.663100004196167
1619375079.78872,-17.29724,5.678719997406006
1619375079.80435,-19.67175,5.694350004196167
1619375079.81997,-21.98712,5.709969997406006
1619375079.8356,-24.15952,5.725600004196167
1619375079.85123,-26.11526,5.741230010986328
1619375079.86685,-27.68436,5.756850004196167
1619375079.88248,-28.57114,5.772480010986328
1619375079.8981,-28.32123,5.788100004196167
1619375079.91373,-26.53323,5.803730010986328
1619375079.92935,-22.97705,5.819350004196167
1619375079.94498,-17.77957,5.834980010986328
1619375079.96061,-11.43756,5.850610017776489
1619375079.97623,-4.704285,5.866230010986328
1619375079.99186,1.648071,5.881860017776489
1619375080.00748,7.089203,5.897480010986328
1619375080.02311,11.42249,5.913110017776489
1619375080.03873,14.80621,5.928730010986328
1619375080.05436,17.4339,5.944360017776489
1619375080.06999,19.34286,5.95999002456665
1619375080.08561,20.28888,5.975610017776489
1619375080.10124,19.87836,5.99124002456665
1619375080.11686,17.80511,6.006860017776489
1619375080.13249,14.16583,6.02249002456665
1619375080.14811,9.608643,6.038110017776489
1619375080.16374,5.175079,6.05374002456665
1619375080.17937,1.934448,6.0693700313568115
1619375080.19499,0.5860596,6.08499002456665
1619375080.21062,1.177734,6.1006200313568115
1619375080.22624,3.133514,6.11624002456665
1619375080.24187,5.583496,6.1318700313568115
1619375080.25749,7.780518,6.14749002456665
1619375080.27312,9.364746,6.1631200313568115
1619375080.28875,10.39981,6.178750038146973
1619375080.30437,11.13742,6.1943700313568115
1619375080.32,11.78806,6.210000038146973
1619375080.33562,12.30862,6.2256200313568115
1619375080.35125,12.50075,6.241250038146973
1619375080.36687,12.11334,6.2568700313568115
1619375080.3825,10.99298,6.272500038146973
1619375080.39813,9.201843,6.288130044937134
1619375080.41375,6.889877,6.303750038146973
1619375080.42938,4.240036,6.319380044937134
1619375080.445,1.397797,6.335000038146973
1619375080.46063,-1.398605,6.350630044937134
1619375080.47625,-3.831223,6.366250038146973
1619375080.49188,-5.460815,6.381880044937134
1619375080.50751,-5.825821,6.397510051727295
1619375080.52313,-4.647888,6.413130044937134
1619375080.53876,-1.925247,6.428760051727295
1619375080.55438,2.018341,6.444380044937134
1619375080.57001,6.66246,6.460010051727295
1619375080.58563,11.43103,6.475630044937134
1619375080.60126,15.87117,6.491260051727295
1619375080.61689,19.67813,6.506890058517456
1619375080.63251,22.6976,6.522510051727295
1619375080.64814,24.81952,6.538140058517456
1619375080.66376,25.84436,6.553760051727295
1619375080.67939,25.30193,6.569390058517456
1619375080.69502,22.43692,6.585020065307617
1619375080.71064,16.41132,6.600640058517456
1619375080.72627,6.657578,6.616270065307617
1619375080.74189,-6.673126,6.631890058517456
1619375080.75752,-22.4803,6.647520065307617
1619375080.77314,-38.80128,6.663140058517456
1619375080.78877,-53.4142,6.678770065307617
1619375080.8044,-64.40408,6.694400072097778
1619375080.82002,-70.8288,6.710020065307617
1619375080.83565,-72.84286,6.725650072097778
1619375080.85127,-71.48393,6.741270065307617
1619375080.8669,-68.0535,6.756900072097778
1619375080.88252,-63.64203,6.772520065307617
1619375080.89815,-58.83418,6.788150072097778
1619375080.91378,-53.75572,6.8037800788879395
1619375080.9294,-48.42088,6.819400072097778
1619375080.94503,-42.90521,6.8350300788879395
1619375080.96065,-37.44421,6.850650072097778
1619375080.97628,-32.29721,6.8662800788879395
1619375080.9919,-27.56735,6.881900072097778
1619375081.00753,-23.14938,6.8975300788879395
1619375081.02316,-18.77715,6.913160085678101
1619375081.03878,-14.37222,6.9287800788879395
1619375081.05441,-10.09009,6.944410085678101
1619375081.07003,-6.360306,6.9600300788879395
1619375081.08566,-3.565018,6.975660085678101
1619375081.10128,-1.744919,6.9912800788879395
1619375081.11691,-0.4514313,7.006910085678101
1619375081.13254,1.130905,7.022540092468262
1619375081.14816,3.749222,7.038160085678101
1619375081.16379,7.776993,7.053790092468262
1619375081.17941,12.96715,7.069410085678101
1619375081.19504,18.5741,7.085040092468262
1619375081.21066,23.70593,7.100660085678101
1619375081.22629,27.63741,7.116290092468262
1619375081.24192,29.9977,7.131920099258423
1619375081.25754,30.75139,7.147540092468262
1619375081.27317,30.12161,7.163170099258423
1619375081.28879,28.367,7.178790092468262
1619375081.30442,25.80823,7.194420099258423
1619375081.32004,22.79221,7.210040092468262
1619375081.33567,19.69931,7.225670099258423
1619375081.3513,16.90164,7.241300106048584
1619375081.36692,14.69276,7.256920099258423
1619375081.38255,13.19167,7.272550106048584
1619375081.39817,12.29526,7.288170099258423
1619375081.4138,11.7693,7.303800106048584
1619375081.42942,11.28539,7.319420099258423
1619375081.44505,10.61151,7.335050106048584
1619375081.46068,9.655762,7.350680112838745
1619375081.4763,8.475266,7.366300106048584
1619375081.49193,7.186996,7.381930112838745
1619375081.50755,5.873352,7.397550106048584
1619375081.52318,4.596069,7.413180112838745
1619375081.5388,3.375061,7.428800106048584
1619375081.55443,2.164902,7.444430112838745
1619375081.57006,0.8723297,7.460060119628906
1619375081.58568,-0.6270447,7.475680112838745
1619375081.60131,-2.495361,7.491310119628906
1619375081.61693,-4.839111,7.506930112838745
1619375081.63256,-7.630661,7.522560119628906
1619375081.64818,-10.65039,7.538180112838745
1619375081.66381,-13.50742,7.553810119628906
1619375081.67944,-15.71672,7.569440126419067
1619375081.69506,-16.86203,7.585060119628906
1619375081.71069,-16.68095,7.600690126419067
1619375081.72631,-15.08012,7.616310119628906
1619375081.74194,-12.10681,7.631940126419067
1619375081.75756,-7.907715,7.647560119628906
1619375081.77319,-2.717987,7.663190126419067
1619375081.78882,3.085495,7.6788201332092285
1619375081.80444,8.936111,7.694440126419067
1619375081.82007,14.15825,7.7100701332092285
1619375081.83569,18.04105,7.725690126419067
1619375081.85132,20.0071,7.7413201332092285
1619375081.86694,19.78967,7.756940126419067
1619375081.88257,17.44081,7.7725701332092285
1619375081.8982,13.37578,7.78820013999939
1619375081.91382,8.220551,7.8038201332092285
1619375081.92945,2.705719,7.81945013999939
1619375081.94507,-2.485123,7.8350701332092285
1619375081.9607,-6.831329,7.85070013999939
1619375081.97632,-10.05235,7.8663201332092285
1619375081.99195,-12.0726,7.88195013999939
1619375082.00758,-12.97374,7.897580146789551
1619375082.0232,-12.97029,7.91320013999939
1619375082.03883,-12.29433,7.928830146789551
1619375082.05445,-11.2438,7.94445013999939
1619375082.07008,-10.08459,7.960080146789551
1619375082.0857,-9.061646,7.97570013999939
1619375082.10133,-8.336082,7.991330146789551
1619375082.11696,-7.999496,8.006960153579712
1619375082.13258,-8.053932,8.02258014678955
1619375082.14821,-8.432991,8.038210153579712
1619375082.16383,-8.99411,8.05383014678955
1619375082.17946,-9.600639,8.069460153579712
1619375082.19508,-10.11099,8.08508014678955
1619375082.21071,-10.44044,8.100710153579712
1619375082.22634,-10.64028,8.116340160369873
1619375082.24196,-10.93748,8.131960153579712
1619375082.25759,-11.74435,8.147590160369873
1619375082.27321,-13.47332,8.163210153579712
1619375082.28884,-16.32902,8.178840160369873
1619375082.30446,-20.13102,8.194460153579712
1619375082.32009,-24.24596,8.210090160369873
1619375082.33572,-27.74253,8.225720167160034
1619375082.35134,-29.7194,8.241340160369873
1619375082.36697,-29.60846,8.256970167160034
1619375082.38259,-27.34692,8.272590160369873
1619375082.39822,-23.3456,8.288220167160034
1619375082.41384,-18.25286,8.303840160369873
1619375082.42947,-12.764,8.319470167160034
1619375082.4451,-7.480148,8.335100173950195
1619375082.46072,-2.787201,8.350720167160034
1619375082.47635,1.057472,8.366350173950195
1619375082.49197,3.900604,8.381970167160034
1619375082.5076,5.675522,8.397600173950195
1619375082.52322,6.414642,8.413220167160034
1619375082.53885,6.263916,8.428850173950195
1619375082.55448,5.533997,8.444480180740356
1619375082.5701,4.626129,8.460100173950195
1619375082.58573,3.90799,8.475730180740356
1619375082.60135,3.682686,8.491350173950195
1619375082.61698,4.057114,8.506980180740356
1619375082.6326,4.866928,8.522600173950195
1619375082.64823,5.801422,8.538230180740356
1619375082.66386,6.498505,8.553860187530518
1619375082.67948,6.687393,8.569480180740356
1619375082.69511,6.308899,8.585110187530518
1619375082.71073,5.525116,8.600730180740356
1619375082.72636,4.585129,8.616360187530518
1619375082.74198,3.694595,8.631980180740356
1619375082.75761,2.938004,8.647610187530518
1619375082.77324,2.228363,8.663240194320679
1619375082.78886,1.416046,8.678860187530518
1619375082.80449,0.4159698,8.694490194320679
1619375082.82011,-0.769104,8.710110187530518
1619375082.83574,-2.102478,8.725740194320679
1619375082.85136,-3.559372,8.741360187530518
1619375082.86699,-5.248184,8.756990194320679
1619375082.88262,-7.361969,8.77262020111084
1619375082.89824,-10.08092,8.788240194320679
1619375082.91387,-13.36638,8.80387020111084
1619375082.92949,-16.78302,8.819490194320679
1619375082.94512,-19.57925,8.83512020111084
1619375082.96075,-20.88872,8.850750207901001
1619375082.97637,-20.0849,8.86637020111084
1619375082.992,-17.00699,8.882000207901001
1619375083.00762,-12.05244,8.89762020111084
1619375083.02325,-5.990433,8.913250207901001
1619375083.03887,0.2759857,8.92887020111084
1619375083.0545,5.971558,8.944500207901001
1619375083.07013,10.61966,8.960130214691162
1619375083.08575,14.00206,8.975750207901001
1619375083.10138,16.08241,8.991380214691162
1619375083.117,16.96552,9.007000207901001
1619375083.13263,16.8383,9.022630214691162
1619375083.14825,15.93378,9.038250207901001
1619375083.16388,14.5795,9.053880214691162
1619375083.17951,13.07445,9.069510221481323
1619375083.19513,11.6591,9.085130214691162
1619375083.21076,10.4362,9.100760221481323
1619375083.22638,9.436966,9.116380214691162
1619375083.24201,8.551163,9.132010221481323
1619375083.25763,7.693314,9.147630214691162
1619375083.27326,6.831635,9.163260221481323
1619375083.28889,5.98288,9.178889989852905
1619375083.30451,5.210648,9.194510221481323
1619375083.32014,4.597336,9.210139989852905
1619375083.33576,4.195343,9.225760221481323
1619375083.35139,4.002823,9.241389989852905
1619375083.36701,4.013748,9.257010221481323
1619375083.38264,4.108566,9.272639989852905
1619375083.39827,4.122314,9.288269996643066
1619375083.41389,3.851105,9.303889989852905
1619375083.42952,3.123566,9.319519996643066
1619375083.44514,1.90538,9.335139989852905
1619375083.46077,0.368515,9.350769996643066
1619375083.47639,-1.190536,9.366389989852905
1619375083.49202,-2.494766,9.382019996643066
1619375083.50765,-3.415985,9.397650003433228
1619375083.52327,-4.116211,9.413269996643066
1619375083.5389,-4.972382,9.428900003433228
1619375083.55452,-6.412994,9.444519996643066
1619375083.57015,-8.727707,9.460150003433228
1619375083.58577,-11.90547,9.475769996643066
1619375083.6014,-15.58455,9.491400003433228
1619375083.61703,-19.15045,9.507030010223389
1619375083.63265,-21.86177,9.522650003433228
1619375083.64828,-23.04436,9.538280010223389
1619375083.6639,-22.26874,9.553900003433228
1619375083.67953,-19.44295,9.569530010223389
1619375083.69515,-14.84833,9.585150003433228
1619375083.71078,-9.135818,9.600780010223389
1619375083.72641,-3.103317,9.61641001701355
1619375083.74203,2.468826,9.632030010223389
1619375083.75766,6.970001,9.64766001701355
1619375083.77328,10.11752,9.663280010223389
1619375083.78891,11.90614,9.67891001701355
1619375083.80453,12.50948,9.694530010223389
1619375083.82016,12.16635,9.71016001701355
1619375083.83579,11.09444,9.725790023803711
1619375083.85141,9.492615,9.74141001701355
1619375083.86704,7.603455,9.757040023803711
1619375083.88266,5.661713,9.77266001701355
1619375083.89829,3.931213,9.788290023803711
1619375083.91391,2.632629,9.80391001701355
1619375083.92954,1.902634,9.819540023803711
1619375083.94517,1.738266,9.835170030593872
1619375083.96079,2.018204,9.850790023803711
1619375083.97642,2.545441,9.866420030593872
1619375083.99204,3.097839,9.882040023803711
1619375084.00767,3.54071,9.897670030593872
1619375084.02329,3.840363,9.913290023803711
1619375084.03892,4.111588,9.928920030593872
1619375084.05455,4.535263,9.944550037384033
1619375084.07017,5.298004,9.960170030593872
1619375084.0858,6.420319,9.975800037384033
1619375084.10142,7.742828,9.991420030593872
1619375084.11705,8.900146,10.007050037384033
1619375084.13267,9.470627,10.022670030593872
1619375084.1483,9.133377,10.038300037384033
1619375084.16393,7.797195,10.053930044174194
1619375084.17955,5.66069,10.069550037384033
1619375084.19518,3.120331,10.085180044174194
1619375084.2108,0.5743713,10.100800037384033
1619375084.22643,-1.7453,10.116430044174194
1619375084.24205,-3.834305,10.132050037384033
1619375084.25768,-5.902115,10.147680044174194
1619375084.27331,-8.222702,10.163310050964355
1619375084.28893,-10.96593,10.178930044174194
1619375084.30456,-14.01907,10.194560050964355
1619375084.32018,-16.88556,10.210180044174194
1619375084.33581,-18.77687,10.225810050964355
1619375084.35143,-18.80653,10.241430044174194
1619375084.36706,-16.2982,10.257060050964355
1619375084.38269,-11.06798,10.272690057754517
1619375084.39831,-3.600037,10.288310050964355
1619375084.41394,5.028931,10.303940057754517
1619375084.42956,13.46931,10.319560050964355
1619375084.44519,20.48322,10.335190057754517
1619375084.46081,25.27333,10.350810050964355
1619375084.47644,27.70267,10.366440057754517
1619375084.49207,28.19156,10.382070064544678
1619375084.50769,27.45345,10.397690057754517
1619375084.52332,26.21352,10.413320064544678
1619375084.53894,24.89717,10.428940057754517
1619375084.55457,23.6024,10.444570064544678
1619375084.57019,22.21686,10.460190057754517
1619375084.58582,20.61665,10.475820064544678
1619375084.60145,18.80742,10.491450071334839
1619375084.61707,16.99037,10.507070064544678
1619375084.6327,15.41092,10.522700071334839
1619375084.64832,14.26604,10.538320064544678
1619375084.66395,13.49355,10.553950071334839
1619375084.67957,12.90361,10.569570064544678
1619375084.6952,12.25636,10.585200071334839
1619375084.71083,11.46225,10.600830078125
1619375084.72645,10.60115,10.616450071334839
1619375084.74208,9.798477,10.632080078125
1619375084.7577,9.119934,10.647700071334839
1619375084.77333,8.418503,10.663330078125
1619375084.78895,7.434753,10.678950071334839
1619375084.80458,5.826523,10.694580078125
1619375084.82021,3.428299,10.710210084915161
1619375084.83583,0.2502136,10.725830078125
1619375084.85146,-3.473038,10.741460084915161
1619375084.86708,-7.362473,10.757080078125
1619375084.88271,-11.00241,10.772710084915161
1619375084.89833,-14.01851,10.788330078125
1619375084.91396,-16.17004,10.803960084915161
1619375084.92959,-17.39954,10.819590091705322
1619375084.94521,-17.91086,10.835210084915161
1619375084.96084,-18.14706,10.850840091705322
1619375084.97646,-18.60802,10.866460084915161
1619375084.99209,-19.69846,10.882090091705322
1619375085.00771,-21.4608,10.897710084915161
1619375085.02334,-23.50455,10.913340091705322
1619375085.03897,-25.14798,10.928970098495483
1619375085.05459,-25.64832,10.944590091705322
1619375085.07022,-24.47412,10.960220098495483
1619375085.08584,-21.48489,10.975840091705322
1619375085.10147,-16.90999,10.991470098495483
1619375085.11709,-11.24809,11.007090091705322
1619375085.13272,-5.070511,11.022720098495483
1619375085.14835,1.100693,11.038350105285645
1619375085.16397,6.827713,11.053970098495483
1619375085.1796,11.78342,11.069600105285645
1619375085.19522,15.68672,11.085220098495483
1619375085.21085,18.38289,11.100850105285645
1619375085.22648,19.82599,11.116480112075806
1619375085.2421,20.18959,11.132100105285645
1619375085.25773,19.7316,11.147730112075806
1619375085.27335,18.75296,11.163350105285645
1619375085.28898,17.52051,11.178980112075806
1619375085.3046,16.1492,11.194600105285645
1619375085.32023,14.71054,11.210230112075806
1619375085.33586,13.25023,11.225860118865967
1619375085.35148,11.8634,11.241480112075806
1619375085.36711,10.66261,11.257110118865967
1619375085.38273,9.820984,11.272730112075806
1619375085.39836,9.343781,11.288360118865967
1619375085.41398,9.077011,11.303980112075806
1619375085.42961,8.737122,11.319610118865967
1619375085.44524,7.991547,11.335240125656128
1619375085.46086,6.642899,11.350860118865967
1619375085.47649,4.7444,11.366490125656128
1619375085.49211,2.574127,11.382110118865967
1619375085.50774,0.4410553,11.397740125656128
1619375085.52336,-1.353699,11.413360118865967
1619375085.53899,-2.726379,11.428990125656128
1619375085.55462,-3.740677,11.444620132446289
1619375085.57024,-4.512924,11.460240125656128
1619375085.58587,-5.123016,11.475870132446289
1619375085.60149,-5.528671,11.491490125656128
1619375085.61712,-5.748444,11.507120132446289
1619375085.63274,-5.893188,11.522740125656128
1619375085.64837,-6.295486,11.538370132446289
1619375085.664,-7.335007,11.55400013923645
1619375085.67962,-9.212494,11.569620132446289
1619375085.69525,-11.77512,11.58525013923645
1619375085.71087,-14.51015,11.600870132446289
1619375085.7265,-16.84003,11.61650013923645
1619375085.74212,-18.27298,11.632120132446289
1619375085.75775,-18.75879,11.64775013923645
1619375085.77338,-18.65605,11.663380146026611
1619375085.789,-18.58939,11.67900013923645
1619375085.80463,-19.13478,11.694630146026611
1619375085.82025,-20.58656,11.71025013923645
1619375085.83588,-22.75949,11.725880146026611
1619375085.8515,-25.00229,11.74150013923645
1619375085.86713,-26.39594,11.757130146026611
1619375085.88276,-26.0029,11.772760152816772
1619375085.89838,-23.17253,11.788380146026611
1619375085.91401,-17.80402,11.804010152816772
1619375085.92963,-10.45131,11.819630146026611
1619375085.94526,-2.116745,11.835260152816772
1619375085.96088,5.993027,11.850880146026611
1619375085.97651,12.88168,11.866510152816772
1619375085.99214,18.01584,11.882140159606934
1619375086.00776,21.35719,11.897760152816772
1619375086.02339,23.23187,11.913390159606934
1619375086.03901,24.06145,11.929010152816772
1619375086.05464,24.1796,11.944640159606934
1619375086.07026,23.76411,11.960260152816772
1619375086.08589,22.90714,11.975890159606934
1619375086.10152,21.69795,11.991520166397095
1619375086.11714,20.3502,12.007140159606934
1619375086.13277,19.09837,12.022770166397095
1619375086.14839,18.18021,12.038390159606934
1619375086.16402,17.69337,12.054020166397095
1619375086.17964,17.58243,12.069640159606934
1619375086.19527,17.67751,12.085270166397095
1619375086.2109,17.80122,12.100900173187256
1619375086.22652,17.83459,12.116520166397095
1619375086.24215,17.75583,12.132150173187256
1619375086.25777,17.63773,12.147770166397095
1619375086.2734,17.49681,12.163400173187256
1619375086.28902,17.28935,12.179020166397095
1619375086.30465,16.88513,12.194650173187256
1619375086.32028,16.13948,12.210280179977417
1619375086.3359,15.01001,12.225900173187256
1619375086.35153,13.59088,12.241530179977417
1619375086.36715,12.0872,12.257150173187256
1619375086.38278,10.64684,12.272780179977417
1619375086.3984,9.302322,12.288400173187256
1619375086.41403,7.92984,12.304030179977417
1619375086.42966,6.342682,12.319660186767578
1619375086.44528,4.381378,12.335280179977417
1619375086.46091,2.050018,12.350910186767578
1619375086.47653,-0.4865875,12.366530179977417
1619375086.49216,-2.960144,12.382160186767578
1619375086.50778,-5.089111,12.397780179977417
1619375086.52341,-6.725571,12.413410186767578
1619375086.53904,-7.83699,12.42904019355774
1619375086.55466,-8.566498,12.444660186767578
1619375086.57029,-9.174881,12.46029019355774
1619375086.58591,-9.916595,12.475910186767578
1619375086.60154,-10.99043,12.49154019355774
1619375086.61716,-12.42569,12.507160186767578
1619375086.63279,-14.17126,12.52279019355774
1619375086.64842,-16.06111,12.5384202003479
1619375086.66404,-17.97995,12.55404019355774
1619375086.67967,-19.77082,12.5696702003479
1619375086.69529,-21.22772,12.58529019355774
1619375086.71092,-22.02841,12.6009202003479
1619375086.72654,-21.80622,12.61654019355774
1619375086.74217,-20.23733,12.6321702003479
1619375086.7578,-17.23743,12.647800207138062
1619375086.77342,-13.07983,12.6634202003479
1619375086.78905,-8.291283,12.679050207138062
1619375086.80467,-3.541168,12.6946702003479
1619375086.8203,0.6020584,12.710300207138062
1619375086.83592,3.830872,12.7259202003479
1619375086.85155,6.098267,12.741550207138062
1619375086.86718,7.522644,12.757180213928223
1619375086.8828,8.312439,12.772800207138062
1619375086.89843,8.636887,12.788430213928223
1619375086.91405,8.629562,12.804050207138062
1619375086.92968,8.39856,12.819680213928223
1619375086.9453,7.998787,12.835300207138062
1619375086.96093,7.559402,12.850930213928223
1619375086.97656,7.200981,12.866560220718384
1619375086.99218,7.111664,12.882180213928223
1619375087.00781,7.475616,12.897810220718384
1619375087.02343,8.375481,12.913430213928223
1619375087.03906,9.718826,12.929060220718384
1619375087.05468,11.24756,12.944680213928223
1619375087.07031,12.58414,12.960310220718384
1619375087.08594,13.39694,12.975939989089966
1619375087.10156,13.54953,12.991560220718384
1619375087.11719,13.08618,13.007189989089966
1619375087.13281,12.21632,13.022810220718384
1619375087.14844,11.16015,13.038439989089966
1619375087.16406,9.99688,13.054060220718384
1619375087.17969,8.680916,13.069689989089966
1619375087.19532,7.118973,13.085319995880127
1619375087.21094,5.311302,13.100939989089966
1619375087.22657,3.429527,13.116569995880127
1619375087.24219,1.783241,13.132189989089966
1619375087.25782,0.5924225,13.147819995880127
1619375087.27344,-0.1134491,13.163439989089966
1619375087.28907,-0.5708618,13.179069995880127
1619375087.3047,-1.139626,13.194700002670288
1619375087.32032,-2.153374,13.210319995880127
1619375087.33595,-3.604919,13.225950002670288
1619375087.35157,-5.201118,13.241569995880127
1619375087.3672,-6.475838,13.257200002670288
1619375087.38282,-7.110481,13.272819995880127
1619375087.39845,-7.128174,13.288450002670288
1619375087.41408,-6.91404,13.30408000946045
1619375087.4297,-6.904411,13.319700002670288
1619375087.44533,-7.425842,13.33533000946045
1619375087.46095,-8.525803,13.350950002670288
1619375087.47658,-10.03605,13.36658000946045
1619375087.4922,-11.78444,13.382200002670288
1619375087.50783,-13.74158,13.39783000946045
1619375087.52346,-15.97335,13.41346001625061
1619375087.53908,-18.39315,13.42908000946045
1619375087.55471,-20.60332,13.44471001625061
1619375087.57033,-21.84171,13.46033000946045
1619375087.58596,-21.36998,13.47596001625061
1619375087.60158,-18.78543,13.49158000946045
1619375087.61721,-14.31301,13.50721001625061
1619375087.63284,-8.767788,13.522840023040771
1619375087.64846,-3.154533,13.53846001625061
1619375087.66409,1.711647,13.554090023040771
1619375087.67971,5.500462,13.56971001625061
1619375087.69534,8.242172,13.585340023040771
1619375087.71096,10.18071,13.60096001625061
1619375087.72659,11.45125,13.616590023040771
1619375087.74222,12.06016,13.632220029830933
1619375087.75784,11.96996,13.647840023040771
1619375087.77347,11.19138,13.663470029830933
1619375087.78909,9.882782,13.679090023040771
1619375087.80472,8.37915,13.694720029830933
1619375087.82035,7.012741,13.710350036621094
1619375087.83597,6.034946,13.725970029830933
1619375087.8516,5.529758,13.741600036621094
1619375087.86722,5.440481,13.757220029830933
1619375087.88285,5.623798,13.772850036621094
1619375087.89847,5.962973,13.788470029830933
1619375087.9141,6.356033,13.804100036621094
1619375087.92973,6.772436,13.819730043411255
1619375087.94535,7.294456,13.835350036621094
1619375087.96098,7.942816,13.850980043411255
1619375087.9766,8.685379,13.866600036621094
1619375087.99223,9.381651,13.882230043411255
1619375088.00785,9.791861,13.897850036621094
1619375088.02348,9.658728,13.913480043411255
1619375088.03911,8.855433,13.929110050201416
1619375088.05473,7.437519,13.944730043411255
1619375088.07036,5.597711,13.960360050201416
1619375088.08598,3.58893,13.975980043411255
1619375088.10161,1.628911,13.991610050201416
1619375088.11723,-0.142396,14.007230043411255
1619375088.13286,-1.62497,14.022860050201416
1619375088.14849,-2.774037,14.038490056991577
1619375088.16411,-3.642358,14.054110050201416
1619375088.17974,-4.365797,14.069740056991577
1619375088.19536,-5.192543,14.085360050201416
1619375088.21099,-6.382536,14.100990056991577
1619375088.22661,-8.079352,14.116610050201416
1619375088.24224,-10.19259,14.132240056991577
1619375088.25787,-12.42403,14.147870063781738
1619375088.27349,-14.34231,14.163490056991577
1619375088.28912,-15.62871,14.179120063781738
1619375088.30474,-16.20153,14.194740056991577
1619375088.32037,-16.33905,14.210370063781738
1619375088.33599,-16.48089,14.225990056991577
1619375088.35162,-17.08266,14.241620063781738
1619375088.36725,-18.30744,14.2572500705719
1619375088.38287,-19.99208,14.272870063781738
1619375088.3985,-21.63864,14.2885000705719
1619375088.41412,-22.57681,14.304120063781738
1619375088.42975,-22.25377,14.3197500705719
1619375088.44537,-20.3362,14.335370063781738
1619375088.461,-16.9069,14.3510000705719
1619375088.47663,-12.33837,14.36663007736206
1619375088.49225,-7.273489,14.3822500705719
1619375088.50788,-2.356857,14.39788007736206
1619375088.5235,1.847864,14.4135000705719
1619375088.53913,4.970831,14.42913007736206
1619375088.55475,6.914299,14.4447500705719
1619375088.57038,7.761541,14.46038007736206
1619375088.58601,7.791647,14.476010084152222
1619375088.60163,7.354588,14.49163007736206
1619375088.61726,6.853519,14.507260084152222
1619375088.63288,6.558857,14.52288007736206
1619375088.64851,6.548708,14.538510084152222
1619375088.66413,6.679607,14.55413007736206
1619375088.67976,6.719471,14.569760084152222
1619375088.69539,6.490515,14.585390090942383
1619375088.71101,5.985483,14.601010084152222
1619375088.72664,5.412174,14.616640090942383
1619375088.74226,5.074905,14.632260084152222
1619375088.75789,5.257507,14.647890090942383
1619375088.77351,6.008701,14.663510084152222
1619375088.78914,7.173748,14.679140090942383
1619375088.80477,8.428169,14.694770097732544
1619375088.82039,9.495247,14.710390090942383
1619375088.83602,10.21429,14.726020097732544
1619375088.85164,10.53855,14.741640090942383
1619375088.86727,10.55371,14.757270097732544
1619375088.88289,10.29739,14.772890090942383
1619375088.89852,9.762741,14.788520097732544
1619375088.91415,8.862339,14.804150104522705
1619375088.92977,7.488102,14.819770097732544
1619375088.9454,5.580795,14.835400104522705
1619375088.96102,3.206844,14.851020097732544
1619375088.97665,0.5817947,14.866650104522705
1619375088.99227,-1.964386,14.882270097732544
1619375089.0079,-4.08139,14.897900104522705
1619375089.02353,-5.56144,14.913530111312866
1619375089.03915,-6.451721,14.929150104522705
1619375089.05478,-7.008072,14.944780111312866
1619375089.0704,-7.618938,14.960400104522705
1619375089.08603,-8.610626,14.976030111312866
1619375089.10165,-10.11446,14.991650104522705
1619375089.11728,-12.03478,15.007280111312866
1619375089.13291,-14.09927,15.022910118103027
1619375089.14853,-16.00772,15.038530111312866
1619375089.16416,-17.59101,15.054160118103027
1619375089.17978,-18.86337,15.069780111312866
1619375089.19541,-20.01236,15.085410118103027
1619375089.21103,-21.22132,15.101030111312866
1619375089.22666,-22.50694,15.116660118103027
1619375089.24229,-23.62511,15.132290124893188
1619375089.25791,-24.05511,15.147910118103027
1619375089.27354,-23.25882,15.163540124893188
1619375089.28916,-20.83684,15.179160118103027
1619375089.30479,-16.85123,15.194790124893188
1619375089.32041,-11.71978,15.210410118103027
1619375089.33604,-6.129417,15.226040124893188
1619375089.35167,-0.8350868,15.24167013168335
1619375089.36729,3.557087,15.257290124893188
1619375089.38292,6.700237,15.27292013168335
1619375089.39854,8.532345,15.288540124893188
1619375089.41417,9.203812,15.30417013168335
1619375089.42979,9.075218,15.319790124893188
1619375089.44542,8.539818,15.33542013168335
1619375089.46105,7.990906,15.35105013847351
1619375089.47667,7.695908,15.36667013168335
1619375089.4923,7.684402,15.38230013847351
1619375089.50792,7.783592,15.39792013168335
1619375089.52355,7.721107,15.41355013847351
1619375089.53917,7.302536,15.42917013168335
1619375089.5548,6.556747,15.44480013847351
1619375089.57043,5.744041,15.460430145263672
1619375089.58605,5.207733,15.47605013847351
1619375089.60168,5.256989,15.491680145263672
1619375089.6173,5.958206,15.50730013847351
1619375089.63293,7.165405,15.522930145263672
1619375089.64855,8.531273,15.53855013847351
1619375089.66418,9.700966,15.554180145263672
1619375089.67981,10.41826,15.569810152053833
1619375089.69543,10.60705,15.585430145263672
1619375089.71106,10.36062,15.601060152053833
1619375089.72668,9.828209,15.616680145263672
1619375089.74231,9.165611,15.632310152053833
1619375089.75793,8.429688,15.647930145263672
1619375089.77356,7.656509,15.663560152053833
1619375089.78919,6.845879,15.679190158843994
1619375089.80481,6.023392,15.694810152053833
1619375089.82044,5.241989,15.710440158843994
1619375089.83606,4.529381,15.726060152053833
1619375089.85169,3.844185,15.741690158843994
1619375089.86731,3.012718,15.757310152053833
1619375089.88294,1.820152,15.772940158843994
1619375089.89857,0.09274292,15.788570165634155
1619375089.91419,-2.144943,15.804190158843994
1619375089.92982,-4.61483,15.819820165634155
1619375089.94544,-6.873695,15.835440158843994
1619375089.96107,-8.52079,15.851070165634155
1619375089.97669,-9.517891,15.866690158843994
1619375089.99232,-10.24956,15.882320165634155
1619375090.00795,-11.44805,15.897950172424316
1619375090.02357,-13.77744,15.913570165634155
1619375090.0392,-17.45612,15.929200172424316
1619375090.05482,-21.98495,15.944820165634155
1619375090.07045,-26.29985,15.960450172424316
1619375090.08608,-29.1832,15.976080179214478
1619375090.1017,-29.75623,15.991700172424316
1619375090.11733,-27.85748,16.007330179214478
1619375090.13295,-23.96744,16.022950172424316
1619375090.14858,-18.99304,16.038580179214478
1619375090.1642,-13.82056,16.054200172424316
1619375090.17983,-9.179581,16.069830179214478
1619375090.19546,-5.504105,16.08546018600464
1619375090.21108,-3.055374,16.101080179214478
1619375090.22671,-1.947983,16.11671018600464
1619375090.24233,-2.09996,16.132330179214478
1619375090.25796,-3.234306,16.14796018600464
1619375090.27358,-4.803558,16.163580179214478
1619375090.28921,-6.181763,16.17921018600464
1619375090.30484,-6.87886,16.1948401927948
1619375090.32046,-6.81913,16.21046018600464
1619375090.33609,-6.387939,16.2260901927948
1619375090.35171,-6.262611,16.24171018600464
1619375090.36734,-7.100296,16.2573401927948
1619375090.38296,-9.226028,16.27296018600464
1619375090.39859,-12.54572,16.2885901927948
1619375090.41422,-16.67071,16.30422019958496
1619375090.42984,-21.21239,16.3198401927948
1619375090.44547,-26.02747,16.33547019958496
1619375090.46109,-31.29395,16.3510901927948
1619375090.47672,-37.38762,16.36672019958496
1619375090.49234,-44.64175,16.3823401927948
1619375090.50797,-53.16534,16.39797019958496
1619375090.5236,-62.80902,16.413600206375122
1619375090.53922,-73.18878,16.42922019958496
1619375090.55485,-83.84113,16.444850206375122
1619375090.57047,-94.34849,16.46047019958496
1619375090.5861,-104.3944,16.476100206375122
1619375090.60172,-113.8995,16.49172019958496
1619375090.61735,-123.2193,16.507350206375122
1619375090.63298,-133.1984,16.522980213165283
1619375090.6486,-144.8157,16.538600206375122
1619375090.66423,-158.535,16.554230213165283
1619375090.67985,-173.4852,16.569850206375122
1619375090.69548,-187.0094,16.585480213165283
1619375090.7111,-195.0194,16.601100206375122
1619375090.72673,-192.9794,16.616730213165283
1619375090.74236,-177.3488,16.632360219955444
1619375090.75798,-146.4928,16.647980213165283
1619375090.77361,-101.098,16.663610219955444
1619375090.78923,-43.82738,16.679230213165283
1619375090.80486,21.27896,16.694860219955444
1619375090.82048,89.3123,16.710480213165283
1619375090.83611,154.8981,16.726110219955444
1619375090.85174,212.6578,16.741739988327026
1619375090.86736,258.0908,16.757360219955444
1619375090.88299,288.4903,16.772989988327026
1619375090.89861,303.8022,16.788610219955444
1619375090.91424,306.5753,16.804239988327026
1619375090.92986,301.0709,16.819860219955444
1619375090.94549,291.8378,16.835489988327026
1619375090.96112,282.3977,16.851119995117188
1619375090.97674,274.7047,16.866739988327026
1619375090.99237,269.2695,16.882369995117188
1619375091.00799,265.7757,16.897989988327026
1619375091.02362,263.4025,16.913619995117188
1619375091.03924,260.8315,16.929239988327026
1619375091.05487,256.0865,16.944869995117188
1619375091.0705,246.6987,16.96050000190735
1619375091.08612,230.5157,16.976119995117188
1619375091.10175,206.6819,16.99175000190735
1619375091.11737,176.3305,17.007369995117188
1619375091.133,142.2076,17.02300000190735
1619375091.14862,107.716,17.038619995117188
1619375091.16425,75.4724,17.05425000190735
1619375091.17988,46.55627,17.06988000869751
1619375091.1955,20.55676,17.08550000190735
1619375091.21113,-3.492556,17.10113000869751
1619375091.22675,-26.08513,17.11675000190735
1619375091.24238,-46.82266,17.13238000869751
1619375091.258,-64.59416,17.14800000190735
1619375091.27363,-78.45731,17.16363000869751
1619375091.28926,-88.26015,17.17926001548767
1619375091.30488,-94.90223,17.19488000869751
1619375091.32051,-99.85516,17.21051001548767
1619375091.33613,-104.5138,17.22613000869751
1619375091.35176,-109.6279,17.24176001548767
1619375091.36738,-115.1528,17.25738000869751
1619375091.38301,-120.4991,17.27301001548767
1619375091.39864,-124.8326,17.288640022277832
1619375091.41426,-127.5095,17.30426001548767
1619375091.42989,-128.3054,17.319890022277832
1619375091.44551,-127.583,17.33551001548767
1619375091.46114,-126.1902,17.351140022277832
1619375091.47676,-125.1192,17.36676001548767
1619375091.49239,-125.1797,17.382390022277832
1619375091.50802,-126.6387,17.398020029067993
1619375091.52364,-129.0724,17.413640022277832
1619375091.53927,-131.4924,17.429270029067993
1619375091.55489,-132.7061,17.444890022277832
1619375091.57052,-131.6399,17.460520029067993
1619375091.58614,-127.6622,17.476140022277832
1619375091.60177,-120.6833,17.491770029067993
1619375091.6174,-111.0305,17.507400035858154
1619375091.63302,-99.34142,17.523020029067993
1619375091.64865,-86.43864,17.538650035858154
1619375091.66427,-73.25495,17.554270029067993
1619375091.6799,-60.65453,17.569900035858154
1619375091.69552,-49.46566,17.585520029067993
1619375091.71115,-40.23875,17.601150035858154
1619375091.72678,-33.21625,17.616780042648315
1619375091.7424,-28.23765,17.632400035858154
1619375091.75803,-24.79192,17.648030042648315
1619375091.77365,-22.23489,17.663650035858154
1619375091.78928,-19.96412,17.679280042648315
1619375091.8049,-17.65437,17.694900035858154
1619375091.82053,-15.30145,17.710530042648315
1619375091.83616,-13.20948,17.726160049438477
1619375091.85178,-11.72952,17.741780042648315
1619375091.86741,-11.06458,17.757410049438477
1619375091.88303,-11.08672,17.773030042648315
1619375091.89866,-11.34235,17.788660049438477
1619375091.91428,-11.29477,17.804280042648315
1619375091.92991,-10.58302,17.819910049438477
1619375091.94554,-9.228981,17.835540056228638
1619375091.96116,-7.606926,17.851160049438477
1619375091.97679,-6.320961,17.866790056228638
1619375091.99241,-5.837517,17.882410049438477
1619375092.00804,-6.385139,17.898040056228638
1619375092.02366,-7.873131,17.913660049438477
1619375092.03929,-10.14688,17.929290056228638
1619375092.05492,-13.1998,17.9449200630188
1619375092.07054,-17.11745,17.960540056228638
1619375092.08617,-21.83715,17.9761700630188
1619375092.10179,-26.82027,17.991790056228638
1619375092.11742,-31.11219,18.0074200630188
1619375092.13304,-33.51866,18.023040056228638
1619375092.14867,-33.43505,18.0386700630188
1619375092.1643,-31.26698,18.05430006980896
1619375092.17992,-28.30797,18.0699200630188
1619375092.19555,-25.95874,18.08555006980896
1619375092.21117,-24.8845,18.1011700630188
1619375092.2268,-24.68458,18.11680006980896
1619375092.24242,-24.48247,18.1324200630188
1619375092.25805,-24.17577,18.14805006980896
1619375092.27368,-25.12963,18.16368007659912
1619375092.2893,-29.94086,18.17930006980896
1619375092.30493,-40.80046,18.19493007659912
1619375092.32055,-57.67261,18.21055006980896
1619375092.33618,-77.31975,18.22618007659912
1619375092.3518,-94.19526,18.24180006980896
1619375092.36743,-102.8495,18.25743007659912
1619375092.38306,-100.2692,18.273060083389282
1619375092.39868,-87.00612,18.28868007659912
1619375092.41431,-66.44441,18.304310083389282
1619375092.42993,-43.10909,18.31993007659912
1619375092.44556,-21.14892,18.335560083389282
1619375092.46118,-4.016914,18.35118007659912
1619375092.47681,5.064117,18.366810083389282
1619375092.49244,2.986938,18.382440090179443
1619375092.50806,-12.29419,18.398060083389282
1619375092.52369,-39.82669,18.413690090179443
1619375092.53931,-74.22903,18.429310083389282
1619375092.55494,-106.1128,18.444940090179443
1619375092.57056,-124.6979,18.460560083389282
1619375092.58619,-121.5339,18.476190090179443
1619375092.60182,-93.50845,18.491820096969604
1619375092.61744,-43.77388,18.507440090179443
1619375092.63307,19.87114,18.523070096969604
1619375092.64869,87.6844,18.538690090179443
1619375092.66432,150.5283,18.554320096969604
1619375092.67995,201.3781,18.569950103759766
1619375092.69557,235.781,18.585570096969604
1619375092.7112,251.8063,18.601200103759766
1619375092.72682,250.1904,18.616820096969604
1619375092.74245,234.4716,18.632450103759766
1619375092.75807,210.5984,18.648070096969604
1619375092.7737,185.8313,18.663700103759766
1619375092.78933,166.8112,18.679330110549927
1619375092.80495,157.4989,18.694950103759766
1619375092.82058,158.0287,18.710580110549927
1619375092.8362,164.9557,18.726200103759766
1619375092.85183,172.9136,18.741830110549927
1619375092.86745,176.735,18.757450103759766
1619375092.88308,173.5703,18.773080110549927
1619375092.89871,163.8882,18.788710117340088
1619375092.91433,151.1324,18.804330110549927
1619375092.92996,140.1152,18.819960117340088
1619375092.94558,135.0668,18.835580110549927
1619375092.96121,137.9137,18.851210117340088
1619375092.97683,147.6038,18.866830110549927
1619375092.99246,160.8197,18.882460117340088
1619375093.00809,173.1371,18.89809012413025
1619375093.02371,180.2774,18.913710117340088
1619375093.03934,178.6651,18.92934012413025
1619375093.05496,165.543,18.944960117340088
1619375093.07059,139.3902,18.96059012413025
1619375093.08621,100.8548,18.976210117340088
1619375093.10184,53.70306,18.99184012413025
1619375093.11747,4.985794,19.00747013092041
1619375093.13309,-36.25511,19.02309012413025
1619375093.14872,-61.9539,19.03872013092041
1619375093.16434,-68.16284,19.05434012413025
1619375093.17997,-56.92426,19.06997013092041
1619375093.19559,-35.67984,19.08559012413025
1619375093.21122,-14.26146,19.10122013092041
1619375093.22685,-1.017197,19.11685013771057
1619375093.24247,-0.06164551,19.13247013092041
1619375093.2581,-10.72653,19.14810013771057
1619375093.27372,-29.1837,19.16372013092041
1619375093.28935,-50.79968,19.17935013771057
1619375093.30497,-71.99738,19.19497013092041
1619375093.3206,-90.79832,19.21060013771057
1619375093.33623,-106.3089,19.226230144500732
1619375093.35185,-117.8816,19.24185013771057
1619375093.36748,-124.7906,19.257480144500732
1619375093.3831,-126.491,19.27310013771057
1619375093.39873,-123.0742,19.288730144500732
1619375093.41435,-115.6208,19.30435013771057
1619375093.42998,-106.1255,19.319980144500732
1619375093.44561,-96.85748,19.335610151290894
1619375093.46123,-89.56355,19.351230144500732
1619375093.47686,-84.93845,19.366860151290894
1619375093.49248,-82.51476,19.382480144500732
1619375093.50811,-81.12209,19.398110151290894
1619375093.52373,-79.5731,19.413730144500732
1619375093.53936,-77.14978,19.429360151290894
1619375093.55499,-73.91879,19.444990158081055
1619375093.57061,-70.5416,19.460610151290894
1619375093.58624,-67.87698,19.476240158081055
1619375093.60186,-66.4929,19.491860151290894
1619375093.61749,-66.50511,19.507490158081055
1619375093.63311,-67.52282,19.523110151290894
1619375093.64874,-68.97389,19.538740158081055
1619375093.66437,-70.34972,19.554370164871216
1619375093.67999,-71.41967,19.569990158081055
1619375093.69562,-72.17693,19.585620164871216
1619375093.71124,-72.60388,19.601240158081055
1619375093.72687,-72.43417,19.616870164871216
1619375093.74249,-71.02902,19.632490158081055
1619375093.75812,-67.60219,19.648120164871216
1619375093.77375,-61.54737,19.663750171661377
1619375093.78937,-52.84405,19.679370164871216
1619375093.805,-42.15384,19.695000171661377
1619375093.82062,-30.64394,19.710620164871216
1619375093.83625,-19.62215,19.726250171661377
1619375093.85187,-10.10608,19.741870164871216
1619375093.8675,-2.67395,19.757500171661377
1619375093.88313,2.583099,19.773130178451538
1619375093.89875,5.898758,19.788750171661377
1619375093.91438,7.646942,19.804380178451538
1619375093.93,8.233719,19.820000171661377
1619375093.94563,8.066391,19.835630178451538
1619375093.96125,7.516716,19.851250171661377
1619375093.97688,6.912605,19.866880178451538
1619375093.99251,6.470764,19.8825101852417
1619375094.00813,6.298279,19.898130178451538
1619375094.02376,6.415924,19.9137601852417
1619375094.03938,6.842323,19.929380178451538
1619375094.05501,7.583061,19.9450101852417
1619375094.07063,8.621971,19.960630178451538
1619375094.08626,9.895622,19.9762601852417
1619375094.10189,11.28604,19.99189019203186
1619375094.11751,12.63362,20.0075101852417
1619375094.13314,13.82586,20.02314019203186
1619375094.14876,14.82343,20.0387601852417
1619375094.16439,15.7249,20.05439019203186
1619375094.18001,16.65292,20.0700101852417
1619375094.19564,17.62873,20.08564019203186
1619375094.21127,18.47193,20.10127019882202
1619375094.22689,18.79431,20.11689019203186
1619375094.24252,18.11925,20.13252019882202
1619375094.25814,16.16109,20.14814019203186
1619375094.27377,12.98557,20.16377019882202
1619375094.28939,9.062195,20.17939019203186
1619375094.30502,5.083328,20.19502019882202
1619375094.32065,1.615112,20.210650205612183
1619375094.33627,-1.129501,20.22627019882202
1619375094.3519,-3.377365,20.241900205612183
1619375094.36752,-5.631912,20.25752019882202
1619375094.38315,-8.409439,20.273150205612183
1619375094.39877,-11.99625,20.28877019882202
1619375094.4144,-16.42505,20.304400205612183
1619375094.43003,-21.47363,20.320030212402344
1619375094.44565,-26.73035,20.335650205612183
1619375094.46128,-31.56985,20.351280212402344
1619375094.4769,-35.14551,20.366900205612183
1619375094.49253,-36.44843,20.382530212402344
1619375094.50815,-34.61533,20.398150205612183
1619375094.52378,-29.37622,20.413780212402344
1619375094.53941,-21.29222,20.429410219192505
1619375094.55503,-11.81122,20.445030212402344
1619375094.57066,-2.820053,20.460660219192505
1619375094.58628,4.041977,20.476280212402344
1619375094.60191,7.97052,20.491910219192505
1619375094.61753,9.270905,20.507530212402344
1619375094.63316,9.081436,20.523160219192505
1619375094.64879,8.828384,20.538789987564087
1619375094.66441,9.575043,20.554410219192505
1619375094.68004,11.70393,20.570039987564087
1619375094.69566,14.92555,20.585660219192505
1619375094.71129,18.56964,20.601289987564087
1619375094.72691,21.99655,20.616910219192505
1619375094.74254,24.79599,20.632539987564087
1619375094.75817,26.87706,20.648169994354248
1619375094.77379,28.31941,20.663789987564087
1619375094.78942,29.28171,20.679419994354248
1619375094.80504,29.86484,20.695039987564087
1619375094.82067,30.11409,20.710669994354248
1619375094.83629,30.04807,20.726289987564087
1619375094.85192,29.65726,20.741919994354248
1619375094.86755,28.91655,20.75755000114441
1619375094.88317,27.78748,20.773169994354248
1619375094.8988,26.29147,20.78880000114441
1619375094.91442,24.47162,20.804419994354248
1619375094.93005,22.50089,20.82005000114441
1619375094.94568,20.60287,20.83568000793457
1619375094.9613,19.06146,20.85130000114441
1619375094.97693,18.15512,20.86693000793457
1619375094.99255,18.04611,20.88255000114441
1619375095.00818,18.65305,20.89818000793457
1619375095.0238,19.52084,20.91380000114441
1619375095.03943,19.8382,20.92943000793457
1619375095.05506,18.48587,20.94506001472473
1619375095.07068,14.33023,20.96068000793457
1619375095.08631,6.543701,20.97631001472473
1619375095.10193,-5.02356,20.99193000793457
1619375095.11756,-19.76904,21.00756001472473
1619375095.13318,-36.49124,21.02318000793457
1619375095.14881,-53.72156,21.03881001472473
1619375095.16444,-70.17056,21.054440021514893
1619375095.18006,-84.98068,21.07006001472473
1619375095.19569,-97.75925,21.085690021514893
1619375095.21131,-108.3423,21.10131001472473
1619375095.22694,-116.3732,21.116940021514893
1619375095.24256,-121.0045,21.13256001472473
1619375095.25819,-120.9271,21.148190021514893
1619375095.27382,-114.8385,21.163820028305054
1619375095.28944,-102.0805,21.179440021514893
1619375095.30507,-83.13336,21.195070028305054
1619375095.32069,-59.62518,21.210690021514893
1619375095.33632,-33.70352,21.226320028305054
1619375095.35194,-7.283539,21.241940021514893
1619375095.36757,18.56927,21.257570028305054
1619375095.3832,43.49243,21.273200035095215
1619375095.39882,67.20761,21.288820028305054
1619375095.41445,88.72266,21.304450035095215
1619375095.43007,106.1421,21.320070028305054
1619375095.4457,117.2974,21.335700035095215
1619375095.46132,120.8541,21.351320028305054
1619375095.47695,117.263,21.366950035095215
1619375095.49258,108.7139,21.382580041885376
1619375095.5082,98.37708,21.398200035095215
1619375095.52383,89.09515,21.413830041885376
1619375095.53945,82.42755,21.429450035095215
1619375095.55508,78.45187,21.445080041885376
1619375095.5707,76.25009,21.460700035095215
1619375095.58633,74.67786,21.476330041885376
1619375095.60196,72.9184,21.491960048675537
1619375095.61758,70.58264,21.507580041885376
1619375095.63321,67.50958,21.523210048675537
1619375095.64883,63.62,21.538830041885376
1619375095.66446,58.76804,21.554460048675537
1619375095.68008,52.86386,21.570080041885376
1619375095.69571,45.96204,21.585710048675537
1619375095.71134,38.21216,21.6013400554657
1619375095.72696,29.85464,21.616960048675537
1619375095.74259,21.20081,21.6325900554657
1619375095.75821,12.75336,21.648210048675537
1619375095.77384,5.215118,21.6638400554657
1619375095.78946,-0.5432434,21.679460048675537
1619375095.80509,-3.819763,21.6950900554657
1619375095.82072,-4.45047,21.71072006225586
1619375095.83634,-2.916626,21.7263400554657
1619375095.85197,-0.2955933,21.74197006225586
1619375095.86759,2.1539,21.7575900554657
1619375095.88322,3.401215,21.77322006225586
1619375095.89884,2.950439,21.7888400554657
1619375095.91447,0.9467163,21.80447006225586
1619375095.9301,-2.084961,21.82010006904602
1619375095.94572,-5.541809,21.83572006225586
1619375095.96135,-8.981964,21.85135006904602
1619375095.97697,-12.11368,21.86697006225586
1619375095.9926,-14.86539,21.88260006904602
1619375096.00822,-17.20145,21.89822006225586
1619375096.02385,-19.10431,21.91385006904602
1619375096.03948,-20.59232,21.92948007583618
1619375096.0551,-21.70291,21.94510006904602
1619375096.07073,-22.48346,21.96073007583618
1619375096.08635,-22.91498,21.97635006904602
1619375096.10198,-22.86813,21.99198007583618
1619375096.1176,-21.99646,22.00760006904602
1619375096.13323,-19.92502,22.02323007583618
1619375096.14886,-16.34103,22.038860082626343
1619375096.16448,-11.19833,22.05448007583618
1619375096.18011,-4.814209,22.070110082626343
1619375096.19573,2.174957,22.08573007583618
1619375096.21136,8.947266,22.101360082626343
1619375096.22698,14.71017,22.11698007583618
1619375096.24261,18.83646,22.132610082626343
1619375096.25824,21.0668,22.148240089416504
1619375096.27386,21.40744,22.163860082626343
1619375096.28949,20.09912,22.179490089416504
1619375096.30511,17.55145,22.195110082626343
1619375096.32074,14.23575,22.210740089416504
1619375096.33636,10.65491,22.226360082626343
1619375096.35199,7.360779,22.241990089416504
1619375096.36762,4.877228,22.257620096206665
1619375096.38324,3.639771,22.273240089416504
1619375096.39887,3.834503,22.288870096206665
1619375096.41449,5.289917,22.304490089416504
1619375096.43012,7.534119,22.320120096206665
1619375096.44574,10.00934,22.335740089416504
1619375096.46137,12.31232,22.351370096206665
1619375096.477,14.43961,22.367000102996826
1619375096.49262,16.71069,22.382620096206665
1619375096.50825,19.4574,22.398250102996826
1619375096.52387,22.71899,22.413870096206665
1619375096.5395,25.96524,22.429500102996826
1619375096.55512,28.17609,22.445120096206665
1619375096.57075,28.28128,22.460750102996826
1619375096.58638,25.65952,22.476380109786987
1619375096.602,20.41544,22.492000102996826
1619375096.61763,13.42065,22.507630109786987
1619375096.63325,5.873138,22.523250102996826
1619375096.64888,-1.217041,22.538880109786987
1619375096.6645,-7.334167,22.554500102996826
1619375096.68013,-12.5784,22.570130109786987
1619375096.69576,-17.41306,22.58576011657715
1619375096.71138,-22.22333,22.601380109786987
1619375096.72701,-26.94894,22.61701011657715
1619375096.74263,-30.95938,22.632630109786987
1619375096.75826,-33.21219,22.64826011657715
1619375096.77388,-32.79242,22.663880109786987
1619375096.78951,-29.49103,22.67951011657715
1619375096.80514,-24.177,22.69514012336731
1619375096.82076,-18.74176,22.71076011657715
1619375096.83639,-15.48325,22.72639012336731
1619375096.85201,-16.10333,22.74201011657715
1619375096.86764,-20.70459,22.75764012336731
1619375096.88326,-27.45749,22.77326011657715
1619375096.89889,-33.02252,22.78889012336731
1619375096.91452,-33.99313,22.80452013015747
1619375096.93014,-28.40726,22.82014012336731
1619375096.94577,-16.8588,22.83577013015747
1619375096.96139,-2.484192,22.85139012336731
1619375096.97702,9.991638,22.86702013015747
1619375096.99264,15.87561,22.88264012336731
1619375097.00827,12.12714,22.89827013015747
1619375097.0239,-1.57077,22.913900136947632
1619375097.03952,-22.25928,22.92952013015747
1619375097.05515,-44.02783,22.945150136947632
1619375097.07077,-58.95831,22.96077013015747
1619375097.0864,-58.9873,22.976400136947632
1619375097.10203,-38.56265,22.992030143737793
1619375097.11765,2.779266,23.007650136947632
1619375097.13328,59.21127,23.023280143737793
1619375097.1489,119.6953,23.038900136947632
1619375097.16453,171.5709,23.054530143737793
1619375097.18015,204.9295,23.070150136947632
1619375097.19578,215.9332,23.085780143737793
1619375097.21141,207.5436,23.101410150527954
1619375097.22703,187.0784,23.117030143737793
1619375097.24266,162.3411,23.132660150527954
1619375097.25828,138.2804,23.148280143737793
1619375097.27391,115.7117,23.163910150527954
1619375097.28953,92.17059,23.179530143737793
1619375097.30516,64.24222,23.195160150527954
1619375097.32079,29.93956,23.210790157318115
1619375097.33641,-9.988815,23.226410150527954
1619375097.35204,-51.76677,23.242040157318115
1619375097.36766,-89.50945,23.257660150527954
1619375097.38329,-116.9552,23.273290157318115
1619375097.39891,-129.3417,23.288910150527954
1619375097.41454,-124.9246,23.304540157318115
1619375097.43017,-105.6473,23.320170164108276
1619375097.44579,-76.48961,23.335790157318115
1619375097.46142,-43.60458,23.351420164108276
1619375097.47704,-12.42889,23.367040157318115
1619375097.49267,13.57268,23.382670164108276
1619375097.50829,32.94791,23.398290157318115
1619375097.52392,45.38379,23.413920164108276
1619375097.53955,50.82144,23.429550170898438
1619375097.55517,49.26363,23.445170164108276
1619375097.5708,41.16153,23.460800170898438
1619375097.58642,28.12631,23.476420164108276
1619375097.60205,13.00905,23.492050170898438
1619375097.61767,-0.762085,23.507670164108276
1619375097.6333,-10.4257,23.523300170898438
1619375097.64893,-14.97696,23.5389301776886
1619375097.66455,-15.43279,23.554550170898438
1619375097.68018,-14.28405,23.5701801776886
1619375097.6958,-14.32973,23.585800170898438
1619375097.71143,-17.39983,23.6014301776886
1619375097.72705,-23.55125,23.617050170898438
1619375097.74268,-31.09632,23.6326801776886
1619375097.75831,-37.4466,23.64831018447876
1619375097.77393,-40.2944,23.6639301776886
1619375097.78956,-38.67218,23.67956018447876
1619375097.80518,-33.42023,23.6951801776886
1619375097.82081,-26.59756,23.71081018447876
1619375097.83643,-20.60913,23.7264301776886
1619375097.85206,-17.10722,23.74206018447876
1619375097.86769,-16.36546,23.75769019126892
1619375097.88331,-17.38438,23.77331018447876
1619375097.89894,-18.60562,23.78894019126892
1619375097.91456,-18.83477,23.80456018447876
1619375097.93019,-17.84467,23.82019019126892
1619375097.94581,-16.42378,23.83581018447876
1619375097.96144,-15.82073,23.85144019126892
1619375097.97707,-17.09439,23.867070198059082
1619375097.99269,-20.56552,23.88269019126892
1619375098.00832,-25.70246,23.898320198059082
1619375098.02394,-31.38185,23.91394019126892
1619375098.03957,-36.4197,23.929570198059082
1619375098.05519,-39.99781,23.94519019126892
1619375098.07082,-41.94757,23.960820198059082
1619375098.08645,-42.72076,23.976450204849243
1619375098.10207,-43.1106,23.992070198059082
1619375098.1177,-43.82992,24.007700204849243
1619375098.13332,-45.16942,24.023320198059082
1619375098.14895,-46.85677,24.038950204849243
1619375098.16457,-48.22247,24.054570198059082
1619375098.1802,-48.54763,24.070200204849243
1619375098.19583,-47.46291,24.085830211639404
1619375098.21145,-45.15814,24.101450204849243
1619375098.22708,-42.31844,24.117080211639404
1619375098.2427,-39.747,24.132700204849243
1619375098.25833,-37.90418,24.148330211639404
1619375098.27395,-36.65572,24.163950204849243
1619375098.28958,-35.24028,24.179580211639404
1619375098.30521,-32.82232,24.195210218429565
1619375098.32083,-28.77061,24.210830211639404
1619375098.33646,-22.99282,24.226460218429565
1619375098.35208,-16.04405,24.242080211639404
1619375098.36771,-9.018444,24.257710218429565
1619375098.38333,-3.237553,24.273330211639404
1619375098.39896,0.2147236,24.288960218429565
1619375098.41459,0.9290543,24.304589986801147
1619375098.43021,-0.5376339,24.320210218429565
1619375098.44584,-2.911983,24.335839986801147
1619375098.46146,-4.504202,24.351460218429565
1619375098.47709,-3.847458,24.367089986801147
1619375098.49271,-0.2730999,24.382710218429565
1619375098.50834,5.708702,24.398339986801147
1619375098.52397,12.74459,24.41396999359131
1619375098.53959,18.99758,24.429589986801147
1619375098.55522,22.84579,24.44521999359131
1619375098.57084,23.30659,24.460839986801147
1619375098.58647,19.81682,24.47646999359131
1619375098.60209,12.76437,24.492089986801147
1619375098.61772,4.119816,24.50771999359131
1619375098.63335,-2.102028,24.52335000038147
1619375098.64897,-0.4604263,24.53896999359131
1619375098.6646,14.07839,24.55460000038147
1619375098.68022,43.37982,24.57021999359131
1619375098.69585,84.23083,24.58585000038147
1619375098.71147,128.446,24.60146999359131
1619375098.7271,164.7036,24.61710000038147
1619375098.74273,183.7821,24.63273000717163
1619375098.75835,182.751,24.64835000038147
1619375098.77398,166.0795,24.66398000717163
1619375098.7896,142.9788,24.67960000038147
1619375098.80523,122.7099,24.69523000717163
1619375098.82085,110.6143,24.71085000038147
1619375098.83648,106.902,24.72648000717163
1619375098.85211,108.2833,24.742110013961792
1619375098.86773,109.0195,24.75773000717163
1619375098.88336,105.2762,24.773360013961792
1619375098.89898,96.83002,24.78898000717163
1619375098.91461,86.25489,24.804610013961792
1619375098.93023,76.42323,24.82023000717163
1619375098.94586,68.33054,24.835860013961792
1619375098.96149,60.75139,24.851490020751953
1619375098.97711,51.35574,24.867110013961792
1619375098.99274,38.42947,24.882740020751953
1619375099.00836,18.84537,24.898360013961792
1619375099.02399,-8.472305,24.913990020751953
1619375099.03961,-41.66875,24.929610013961792
1619375099.05524,-76.42218,24.945240020751953
1619375099.07087,-108.4344,24.960870027542114
1619375099.08649,-135.4956,24.976490020751953
1619375099.10212,-157.8965,24.992120027542114
1619375099.11774,-177.3608,25.007740020751953
1619375099.13337,-195.1653,25.023370027542114
1619375099.14899,-215.395,25.038990020751953
1619375099.16462,-241.0751,25.054620027542114
1619375099.18025,-273.1358,25.070250034332275
1619375099.19587,-310.4292,25.085870027542114
1619375099.2115,-351.1832,25.101500034332275
1619375099.22712,-393.8344,25.117120027542114
1619375099.24275,-436.0546,25.132750034332275
1619375099.25837,-473.658,25.148370027542114
1619375099.274,-480.3666,25.164000034332275
1619375099.28963,-438.4504,25.179630041122437
1619375099.30525,-349.4904,25.195250034332275
1619375099.32088,-236.7194,25.210880041122437
1619375099.3365,-129.6524,25.226500034332275
1619375099.35213,-47.66139,25.242130041122437
1619375099.36775,4.622246,25.257750034332275
1619375099.38338,32.99969,25.273380041122437
1619375099.39901,45.18272,25.289010047912598
1619375099.41463,51.12538,25.304630041122437
1619375099.43026,53.26865,25.320260047912598
1619375099.44588,51.50583,25.335880041122437
1619375099.46151,47.01891,25.351510047912598
1619375099.47713,44.03204,25.367130041122437
1619375099.49276,47.89511,25.382760047912598
1619375099.50839,61.82534,25.39839005470276
1619375099.52401,85.73277,25.414010047912598
1619375099.53964,114.827,25.42964005470276
1619375099.55526,142.6776,25.445260047912598
1619375099.57089,160.4796,25.46089005470276
1619375099.58651,162.9709,25.476510047912598
1619375099.60214,150.8996,25.49214005470276
1619375099.61777,130.5856,25.50777006149292
1619375099.63339,110.4522,25.52339005470276
1619375099.64902,96.85086,25.53902006149292
1619375099.66464,92.09138,25.55464005470276
1619375099.68027,94.7177,25.57027006149292
1619375099.69589,101.7458,25.58589005470276
1619375099.71152,108.2766,25.60152006149292
1619375099.72715,110.8487,25.61715006828308
1619375099.74277,108.5325,25.63277006149292
1619375099.7584,102.7054,25.64840006828308
1619375099.77402,95.57138,25.66402006149292
1619375099.78965,88.72101,25.67965006828308
1619375099.80528,82.75864,25.695280075073242
1619375099.8209,77.59173,25.71090006828308
1619375099.83653,73.25922,25.726530075073242
1619375099.85215,68.90051,25.74215006828308
1619375099.86778,63.91058,25.757780075073242
1619375099.8834,58.25081,25.77340006828308
1619375099.89903,52.59373,25.789030075073242
1619375099.91466,47.81458,25.804660081863403
1619375099.93028,44.51401,25.820280075073242
1619375099.94591,42.75473,25.835910081863403
1619375099.96153,42.11525,25.851530075073242
1619375099.97716,42.08466,25.867160081863403
1619375099.99278,41.80408,25.882780075073242
1619375100.00841,40.72453,25.898410081863403
1619375100.02404,38.67809,25.914040088653564
1619375100.03966,35.47905,25.929660081863403
1619375100.05529,30.20972,25.945290088653564
1619375100.07091,20.899,25.960910081863403
1619375100.08654,4.926964,25.976540088653564
1619375100.10216,-19.53682,25.992160081863403
1619375100.11779,-52.05271,26.007790088653564
1619375100.13342,-89.32041,26.023420095443726
1619375100.14904,-125.8711,26.039040088653564
1619375100.16467,-155.8585,26.054670095443726
1619375100.18029,-175.0683,26.070290088653564
1619375100.19592,-182.0564,26.085920095443726
1619375100.21154,-177.9398,26.101540088653564
1619375100.22717,-165.3018,26.117170095443726
1619375100.2428,-146.8377,26.132800102233887
1619375100.25842,-124.6381,26.148420095443726
1619375100.27405,-100.3437,26.164050102233887
1619375100.28967,-75.58853,26.179670095443726
1619375100.3053,-52.31336,26.195300102233887
1619375100.32092,-32.43262,26.210920095443726
1619375100.33655,-17.2114,26.226550102233887
1619375100.35218,-6.677818,26.242180109024048
1619375100.3678,0.2960663,26.257800102233887
1619375100.38343,5.471359,26.273430109024048
1619375100.39905,10.49965,26.289050102233887
1619375100.41468,16.37502,26.304680109024048
1619375100.4303,23.23569,26.320300102233887
1619375100.44593,30.49184,26.335930109024048
1619375100.46156,37.22493,26.35156011581421
1619375100.47718,42.54642,26.367180109024048
1619375100.49281,45.95911,26.38281011581421
1619375100.50843,47.42621,26.398430109024048
1619375100.52406,47.40579,26.41406011581421
1619375100.53968,46.59973,26.429680109024048
1619375100.55531,45.67525,26.44531011581421
1619375100.57094,45.09596,26.46094012260437
1619375100.58656,44.94041,26.47656011581421
1619375100.60219,44.91663,26.49219012260437
1619375100.61781,44.53055,26.50781011581421
1619375100.63344,43.31947,26.52344012260437
1619375100.64906,41.03073,26.53906011581421
1619375100.66469,37.80501,26.55469012260437
1619375100.68032,34.07648,26.57032012939453
1619375100.69594,30.39729,26.58594012260437
1619375100.71157,27.18404,26.60157012939453
1619375100.72719,24.54567,26.61719012260437
1619375100.74282,22.27896,26.63282012939453
1619375100.75844,19.95111,26.64844012260437
1619375100.77407,17.07899,26.66407012939453
1619375100.7897,13.32065,26.679700136184692
1619375100.80532,8.591568,26.69532012939453
1619375100.82095,3.088806,26.710950136184692
1619375100.83657,-2.632385,26.72657012939453
1619375100.8522,-7.782471,26.742200136184692
1619375100.86782,-11.44371,26.75782012939453
1619375100.88345,-12.75864,26.773450136184692
1619375100.89908,-11.24174,26.789080142974854
1619375100.9147,-6.962555,26.804700136184692
1619375100.93033,-0.5219727,26.820330142974854
1619375100.94595,7.043457,26.835950136184692
1619375100.96158,14.60275,26.851580142974854
1619375100.9772,21.17279,26.867200136184692
1619375100.99283,26.17023,26.882830142974854
1619375101.00846,29.37973,26.898460149765015
1619375101.02408,30.85852,26.914080142974854
1619375101.03971,30.8103,26.929710149765015
1619375101.05533,29.45743,26.945330142974854
1619375101.07096,27.01382,26.960960149765015
1619375101.08658,23.69992,26.976580142974854
1619375101.10221,19.7717,26.992210149765015
1619375101.11784,15.51431,27.007840156555176
1619375101.13346,11.28833,27.023460149765015
1619375101.14909,7.437561,27.039090156555176
1619375101.16471,4.282318,27.054710149765015
1619375101.18034,2.022675,27.070340156555176
1619375101.19596,0.7023315,27.085960149765015
1619375101.21159,0.2015991,27.101590156555176
1619375101.22722,0.2191467,27.117220163345337
1619375101.24284,0.4172974,27.132840156555176
1619375101.25847,0.4916077,27.148470163345337
1619375101.27409,0.298645,27.164090156555176
1619375101.28972,-0.1723633,27.179720163345337
1619375101.30534,-0.7917175,27.195340156555176
1619375101.32097,-1.50528,27.210970163345337
1619375101.3366,-2.337372,27.226600170135498
1619375101.35222,-3.409943,27.242220163345337
1619375101.36785,-4.815338,27.257850170135498
1619375101.38347,-6.48349,27.273470163345337
1619375101.3991,-8.185394,27.289100170135498
1619375101.41472,-9.62616,27.304720163345337
1619375101.43035,-10.75134,27.320350170135498
1619375101.44598,-11.84174,27.33598017692566
1619375101.4616,-13.43311,27.351600170135498
1619375101.47723,-16.02298,27.36723017692566
1619375101.49285,-19.64703,27.382850170135498
1619375101.50848,-23.6106,27.39848017692566
1619375101.5241,-26.66739,27.414100170135498
1619375101.53973,-27.47455,27.42973017692566
1619375101.55536,-25.14993,27.44536018371582
1619375101.57098,-19.67911,27.46098017692566
1619375101.58661,-11.91202,27.47661018371582
1619375101.60223,-3.188232,27.49223017692566
1619375101.61786,5.125824,27.50786018371582
1619375101.63348,12.07724,27.52348017692566
1619375101.64911,17.24442,27.53911018371582
1619375101.66474,20.58084,27.55474019050598
1619375101.68036,22.20035,27.57036018371582
1619375101.69599,22.24918,27.58599019050598
1619375101.71161,20.90094,27.60161018371582
1619375101.72724,18.39075,27.61724019050598
1619375101.74286,15.16357,27.63286018371582
1619375101.75849,11.76575,27.64849019050598
1619375101.77412,8.755188,27.664120197296143
1619375101.78974,6.50415,27.67974019050598
1619375101.80537,5.1409,27.695370197296143
1619375101.82099,4.539581,27.71099019050598
1619375101.83662,4.472534,27.726620197296143
1619375101.85224,4.740845,27.74224019050598
1619375101.86787,5.215546,27.757870197296143
1619375101.8835,5.911194,27.773500204086304
1619375101.89912,6.806824,27.789120197296143
1619375101.91475,7.835022,27.804750204086304
1619375101.93037,8.816589,27.820370197296143
1619375101.946,9.488495,27.836000204086304
1619375101.96163,9.58255,27.851630210876465
1619375101.97725,8.926788,27.867250204086304
1619375101.99288,7.462891,27.882880210876465
1619375102.0085,5.274689,27.898500204086304
1619375102.02413,2.56662,27.914130210876465
1619375102.03975,-0.3516541,27.929750204086304
1619375102.05538,-3.153564,27.945380210876465
1619375102.07101,-5.493652,27.961010217666626
1619375102.08663,-7.124359,27.976630210876465
1619375102.10226,-7.993469,27.992260217666626
1619375102.11788,-8.300751,28.007880210876465
1619375102.13351,-8.508575,28.023510217666626
1619375102.14913,-9.181702,28.039130210876465
1619375102.16476,-10.72595,28.054760217666626
1619375102.18039,-13.21542,28.070389986038208
1619375102.19601,-16.20007,28.086010217666626
1619375102.21164,-18.78098,28.101639986038208
1619375102.22726,-19.92014,28.117260217666626
1619375102.24289,-18.76669,28.132889986038208
1619375102.25851,-15.04083,28.148510217666626
1619375102.27414,-9.154266,28.164139986038208
1619375102.28977,-2.025635,28.17976999282837
1619375102.30539,5.20639,28.195389986038208
1619375102.32102,11.56528,28.21101999282837
1619375102.33664,16.53079,28.226639986038208
1619375102.35227,19.99255,28.24226999282837
1619375102.36789,22.15045,28.257889986038208
1619375102.38352,23.28073,28.27351999282837
1619375102.39915,23.65631,28.28914999961853
1619375102.41477,23.47897,28.30476999282837
1619375102.4304,22.94104,28.32039999961853
1619375102.44602,22.22452,28.33601999282837
1619375102.46165,21.42969,28.35164999961853
1619375102.47727,20.56616,28.36726999282837
1619375102.4929,19.53384,28.38289999961853
1619375102.50853,18.12216,28.39853000640869
1619375102.52415,16.20004,28.41414999961853
1619375102.53978,13.84088,28.42978000640869
1619375102.5554,11.30743,28.44539999961853
1619375102.57103,9.01889,28.46103000640869
1619375102.58665,7.359955,28.47664999961853
1619375102.60228,6.543884,28.49228000640869
1619375102.61791,6.520996,28.507910013198853
1619375102.63353,7.038727,28.52353000640869
1619375102.64916,7.686371,28.539160013198853
1619375102.66478,8.087616,28.55478000640869
1619375102.68041,7.946991,28.570410013198853
1619375102.69603,7.149139,28.58603000640869
1619375102.71166,5.755951,28.601660013198853
1619375102.72729,3.95401,28.617290019989014
1619375102.74291,2.004944,28.632910013198853
1619375102.75854,0.1734924,28.648540019989014
1619375102.77416,-1.438599,28.664160013198853
1619375102.78979,-2.872925,28.679790019989014
1619375102.80541,-4.416473,28.695410013198853
1619375102.82104,-6.483765,28.711040019989014
1619375102.83667,-9.417664,28.726670026779175
1619375102.85229,-13.2822,28.742290019989014
1619375102.86792,-17.68814,28.757920026779175
1619375102.88354,-21.8512,28.773540019989014
1619375102.89917,-24.71881,28.789170026779175
1619375102.91479,-25.46307,28.804790019989014
1619375102.93042,-23.65439,28.820420026779175
1619375102.94605,-19.47653,28.836050033569336
1619375102.96167,-13.62604,28.851670026779175
1619375102.9773,-7.073242,28.867300033569336
1619375102.99292,-0.7509155,28.882920026779175
1619375103.00855,4.65329,28.898550033569336
1619375103.02417,8.770111,28.914170026779175
1619375103.0398,11.62134,28.929800033569336
1619375103.05543,13.44556,28.945430040359497
1619375103.07105,14.65015,28.961050033569336
1619375103.08668,15.62149,28.976680040359497
1619375103.1023,16.60785,28.992300033569336
1619375103.11793,17.58212,29.007930040359497
1619375103.13355,18.28055,29.023550033569336
1619375103.14918,18.2709,29.039180040359497
1619375103.16481,17.16287,29.054810047149658
1619375103.18043,14.8222,29.070430040359497
1619375103.19606,11.45703,29.086060047149658
1619375103.21168,7.606934,29.101680040359497
1619375103.22731,3.919495,29.117310047149658
1619375103.24293,0.9159546,29.132930040359497
1619375103.25856,-1.12912,29.148560047149658
1619375103.27419,-2.238831,29.16419005393982
1619375103.28981,-2.583893,29.179810047149658
1619375103.30544,-2.356781,29.19544005393982
1619375103.32106,-1.630219,29.211060047149658
1619375103.33669,-0.4143372,29.22669005393982
1619375103.35231,1.272736,29.242310047149658
1619375103.36794,3.251862,29.25794005393982
1619375103.38357,5.168243,29.27357006072998
1619375103.39919,6.624451,29.28919005393982
1619375103.41482,7.293945,29.30482006072998
1619375103.43044,7.063751,29.32044005393982
1619375103.44607,6.00882,29.33607006072998
1619375103.46169,4.303009,29.35169005393982
1619375103.47732,2.091949,29.36732006072998
1619375103.49295,-0.5272827,29.38295006752014
1619375103.50857,-3.348816,29.39857006072998
1619375103.5242,-5.989166,29.41420006752014
1619375103.53982,-7.829742,29.42982006072998
1619375103.55545,-8.192841,29.44545006752014
1619375103.57107,-6.583282,29.46107006072998
1619375103.5867,-2.949677,29.47670006752014
1619375103.60233,2.259552,29.492330074310303
1619375103.61795,8.213501,29.50795006752014
1619375103.63358,13.98465,29.523580074310303
1619375103.6492,18.83423,29.53920006752014
1619375103.66483,22.3754,29.554830074310303
1619375103.68045,24.5759,29.57045006752014
1619375103.69608,25.6282,29.586080074310303
1619375103.71171,25.79816,29.601710081100464
1619375103.72733,25.29837,29.617330074310303
1619375103.74296,24.22641,29.632960081100464
1619375103.75858,22.63376,29.648580074310303
1619375103.77421,20.569,29.664210081100464
1619375103.78983,18.15524,29.679830074310303
1619375103.80546,15.64679,29.695460081100464
1619375103.82109,13.33777,29.711090087890625
1619375103.83671,11.54874,29.726710081100464
1619375103.85234,10.53073,29.742340087890625
1619375103.86796,10.40747,29.757960081100464
1619375103.88359,11.05344,29.773590087890625
1619375103.89921,12.11984,29.789210081100464
1619375103.91484,13.0224,29.804840087890625
1619375103.93047,13.17532,29.820470094680786
1619375103.94609,12.19513,29.836090087890625
1619375103.96172,10.0838,29.851720094680786
1619375103.97734,7.259644,29.867340087890625
1619375103.99297,4.354889,29.882970094680786
1619375104.00859,1.923615,29.898590087890625
1619375104.02422,0.1893005,29.914220094680786
1619375104.03985,-1.083099,29.929850101470947
1619375104.05547,-2.434265,29.945470094680786
1619375104.0711,-4.43988,29.961100101470947
1619375104.08672,-7.429688,29.976720094680786
1619375104.10235,-11.29764,29.992350101470947
1619375104.11797,-15.53757,30.007970094680786
1619375104.1336,-19.40704,30.023600101470947
1619375104.14923,-22.11258,30.03923010826111
1619375104.16485,-23.01541,30.054850101470947
1619375104.18048,-21.76349,30.07048010826111
1619375104.1961,-18.35376,30.086100101470947
1619375104.21173,-13.11615,30.10173010826111
1619375104.22736,-6.606384,30.11736011505127
1619375104.24298,0.5062256,30.13298010826111
1619375104.25861,7.566406,30.14861011505127
1619375104.27423,13.98758,30.16423010826111
1619375104.28986,19.23254,30.17986011505127
1619375104.30548,22.83017,30.19548010826111
1619375104.32111,24.40808,30.21111011505127
1619375104.33674,23.75568,30.22674012184143
1619375104.35236,20.96423,30.24236011505127
1619375104.36799,16.4715,30.25799012184143
1619375104.38361,10.94904,30.27361011505127
1619375104.39924,5.160065,30.28924012184143
1619375104.41486,-0.2283325,30.30486011505127
1619375104.43049,-4.776642,30.32049012184143
1619375104.44612,-8.261353,30.336120128631592
1619375104.46174,-10.54672,30.35174012184143
1619375104.47737,-11.58807,30.367370128631592
1619375104.49299,-11.33722,30.38299012184143
1619375104.50862,-9.869049,30.398620128631592
1619375104.52424,-7.474701,30.41424012184143
1619375104.53987,-4.751129,30.429870128631592
1619375104.5555,-2.443542,30.445500135421753
1619375104.57112,-1.22699,30.461120128631592
1619375104.58675,-1.485229,30.476750135421753
1619375104.60237,-3.144043,30.492370128631592
1619375104.618,-5.795471,30.508000135421753
1619375104.63362,-8.877533,30.523620128631592
1619375104.64925,-11.87598,30.539250135421753
1619375104.66488,-14.439,30.554880142211914
1619375104.6805,-16.46387,30.570500135421753
1619375104.69613,-18.00479,30.586130142211914
1619375104.71175,-19.27289,30.601750135421753
1619375104.72738,-20.5719,30.617380142211914
1619375104.743,-22.15427,30.633000135421753
1619375104.75863,-24.11368,30.648630142211914
1619375104.77426,-26.24011,30.664260149002075
1619375104.78988,-28.00201,30.679880142211914
1619375104.80551,-28.6376,30.695510149002075
1619375104.82113,-27.40921,30.711130142211914
1619375104.83676,-23.89734,30.726760149002075
1619375104.85238,-18.25519,30.742380142211914
1619375104.86801,-11.15555,30.758010149002075
1619375104.88364,-3.579742,30.773640155792236
1619375104.89926,3.404816,30.789260149002075
1619375104.91489,9.052124,30.804890155792236
1619375104.93051,12.97885,30.820510149002075
1619375104.94614,15.22693,30.836140155792236
1619375104.96176,16.12079,30.851760149002075
1619375104.97739,16.09067,30.867390155792236
1619375104.99302,15.54318,30.883020162582397
1619375105.00864,14.75516,30.898640155792236
1619375105.02427,13.91046,30.914270162582397
1619375105.03989,13.05692,30.929890155792236
1619375105.05552,12.146,30.945520162582397
1619375105.07114,11.11526,30.961140155792236
1619375105.08677,9.882721,30.976770162582397
1619375105.1024,8.448761,30.99240016937256
1619375105.11802,6.87912,31.008020162582397
1619375105.13365,5.336182,31.02365016937256
1619375105.14927,4.028015,31.039270162582397
1619375105.1649,3.152161,31.05490016937256
1619375105.18052,2.789459,31.070520162582397
1619375105.19615,2.871246,31.08615016937256
1619375105.21178,3.165924,31.10178017616272
1619375105.2274,3.362061,31.11740016937256
1619375105.24303,3.177368,31.13303017616272
1619375105.25865,2.443665,31.14865016937256
1619375105.27428,1.174622,31.16428017616272
1619375105.2899,-0.5309448,31.17990016937256
1619375105.30553,-2.496429,31.19553017616272
1619375105.32116,-4.625671,31.21116018295288
1619375105.33678,-6.875519,31.22678017616272
1619375105.35241,-9.206451,31.24241018295288
1619375105.36803,-11.57574,31.25803017616272
1619375105.38366,-13.88,31.27366018295288
1619375105.39928,-16.1174,31.28928017616272
1619375105.41491,-18.37955,31.30491018295288
1619375105.43054,-20.84579,31.320540189743042
1619375105.44616,-23.55328,31.33616018295288
1619375105.46179,-26.22461,31.351790189743042
1619375105.47741,-28.22443,31.36741018295288
1619375105.49304,-28.68051,31.383040189743042
1619375105.50866,-26.89694,31.39866018295288
1619375105.52429,-22.66464,31.414290189743042
1619375105.53992,-16.4614,31.429920196533203
1619375105.55554,-9.281494,31.445540189743042
1619375105.57117,-2.32605,31.461170196533203
1619375105.58679,3.470215,31.476790189743042
1619375105.60242,7.662109,31.492420196533203
1619375105.61804,10.2464,31.508040189743042
1619375105.63367,11.52365,31.523670196533203
1619375105.6493,11.78735,31.539300203323364
1619375105.66492,11.22922,31.554920196533203
1619375105.68055,9.936462,31.570550203323364
1619375105.69617,8.005188,31.586170196533203
1619375105.7118,5.646942,31.601800203323364
1619375105.72742,3.201355,31.617420196533203
1619375105.74305,1.101013,31.633050203323364
1619375105.75868,-0.2992859,31.648680210113525
1619375105.7743,-0.7746277,31.664300203323364
1619375105.78993,-0.4038391,31.679930210113525
1619375105.80555,0.5894165,31.695550203323364
1619375105.82118,1.845642,31.711180210113525
1619375105.8368,2.993103,31.726800203323364
1619375105.85243,3.75177,31.742430210113525
1619375105.86806,3.919617,31.758060216903687
1619375105.88368,3.426422,31.773680210113525
1619375105.89931,2.267181,31.789310216903687
1619375105.91493,0.5758057,31.804930210113525
1619375105.93056,-1.512115,31.820560216903687
1619375105.94618,-3.843323,31.836180210113525
1619375105.96181,-6.315277,31.851810216903687
1619375105.97744,-8.900391,31.867440223693848
1619375105.99306,-11.60245,31.883060216903687
1619375106.00869,-14.42587,31.898690223693848
1619375106.02431,-17.34369,31.914310216903687
1619375106.03994,-20.35043,31.929940223693848
1619375106.05556,-23.4079,31.945560216903687
1619375106.07119,-26.49521,31.961190223693848
1619375106.08682,-29.5134,31.97681999206543
1619375106.10244,-32.16046,31.992440223693848
1619375106.11807,-33.93497,32.00806999206543
1619375106.13369,-34.14935,32.02369022369385
1619375106.14932,-32.1691,32.03931999206543
1619375106.16494,-27.69147,32.05494022369385
1619375106.18057,-21.00381,32.07056999206543
1619375106.1962,-12.89578,32.08619999885559
1619375106.21182,-4.496948,32.10181999206543
1619375106.22745,3.096161,32.11744999885559
1619375106.24307,9.160828,32.13306999206543
1619375106.2587,13.44363,32.14869999885559
1619375106.27432,16.10742,32.16431999206543
1619375106.28995,17.53607,32.17994999885559
1619375106.30558,18.1571,32.19558000564575
1619375106.3212,18.23322,32.21119999885559
1619375106.33683,17.93988,32.22683000564575
1619375106.35245,17.37741,32.24244999885559
1619375106.36808,16.6178,32.25808000564575
1619375106.3837,15.76425,32.27369999885559
1619375106.39933,14.90298,32.28933000564575
1619375106.41496,14.12701,32.30496001243591
1619375106.43058,13.49222,32.32058000564575
1619375106.44621,13.11612,32.33621001243591
1619375106.46183,13.06265,32.35183000564575
1619375106.47746,13.43481,32.36746001243591
1619375106.49308,14.26947,32.38308000564575
1619375106.50871,15.46631,32.39871001243591
1619375106.52434,16.80417,32.414340019226074
1619375106.53996,17.91373,32.42996001243591
1619375106.55559,18.40167,32.445590019226074
1619375106.57121,17.9776,32.46121001243591
1619375106.58684,16.55701,32.476840019226074
1619375106.60246,14.25998,32.49246001243591
1619375106.61809,11.38995,32.508090019226074
1619375106.63372,8.274414,32.523720026016235
1619375106.64934,5.123901,32.539340019226074
1619375106.66497,2.062531,32.554970026016235
1619375106.68059,-0.9376526,32.570590019226074
1619375106.69622,-3.957794,32.586220026016235
1619375106.71184,-7.084473,32.601840019226074
1619375106.72747,-10.36484,32.617470026016235
1619375106.7431,-13.75031,32.6331000328064
1619375106.75872,-16.99356,32.648720026016235
1619375106.77435,-19.58197,32.6643500328064
1619375106.78997,-20.87927,32.679970026016235
1619375106.8056,-20.16327,32.6956000328064
1619375106.82123,-17.0401,32.71123003959656
1619375106.83685,-11.63098,32.7268500328064
1619375106.85248,-4.57724,32.74248003959656
1619375106.8681,3.070099,32.7581000328064
1619375106.88373,10.22354,32.77373003959656
1619375106.89935,16.09268,32.7893500328064
1619375106.91498,20.36087,32.80498003959656
1619375106.93061,23.0936,32.82061004638672
1619375106.94623,24.65085,32.83623003959656
1619375106.96186,25.34354,32.85186004638672
1619375106.97748,25.3703,32.86748003959656
1619375106.99311,24.85098,32.88311004638672
1619375107.00873,23.87289,32.89873003959656
1619375107.02436,22.58655,32.91436004638672
1619375107.03999,21.15091,32.92999005317688
1619375107.05561,19.7135,32.94561004638672
1619375107.07124,18.34381,32.96124005317688
1619375107.08686,17.1474,32.97686004638672
1619375107.10249,16.16931,32.99249005317688
1619375107.11811,15.53662,33.00811004638672
1619375107.13374,15.33664,33.02374005317688
1619375107.14937,15.58273,33.03937005996704
1619375107.16499,16.2016,33.05499005317688
1619375107.18062,17.00183,33.07062005996704
1619375107.19624,17.79803,33.08624005317688
1619375107.21187,18.43723,33.10187005996704
1619375107.22749,18.85336,33.11749005317688
1619375107.24312,18.98828,33.13312005996704
1619375107.25875,18.77478,33.1487500667572
1619375107.27437,18.11691,33.16437005996704
1619375107.29,16.91205,33.1800000667572
1619375107.30562,15.16675,33.19562005996704
1619375107.32125,13.00046,33.2112500667572
1619375107.33687,10.57556,33.22687005996704
1619375107.3525,7.999023,33.2425000667572
1619375107.36813,5.250244,33.25813007354736
1619375107.38375,2.189423,33.2737500667572
1619375107.39938,-1.342865,33.28938007354736
1619375107.415,-5.424591,33.3050000667572
1619375107.43063,-10.05893,33.32063007354736
1619375107.44625,-15.12503,33.3362500667572
1619375107.46188,-20.5206,33.35188007354736
1619375107.47751,-26.17432,33.367510080337524
1619375107.49313,-31.9166,33.38313007354736
1619375107.50876,-37.39151,33.398760080337524
1619375107.52438,-41.94052,33.41438007354736
1619375107.54001,-44.69852,33.430010080337524
1619375107.55563,-44.80884,33.44563007354736
1619375107.57126,-41.80768,33.461260080337524
1619375107.58689,-35.77789,33.476890087127686
1619375107.60251,-27.43658,33.492510080337524
1619375107.61814,-17.92636,33.508140087127686
1619375107.63376,-8.506958,33.523760080337524
1619375107.64939,-0.2196655,33.539390087127686
1619375107.66501,6.349487,33.555010080337524
1619375107.68064,11.02863,33.570640087127686
1619375107.69627,14.00537,33.58627009391785
1619375107.71189,15.55942,33.601890087127686
1619375107.72752,16.00549,33.61752009391785
1619375107.74314,15.58557,33.633140087127686
1619375107.75877,14.47614,33.64877009391785
1619375107.77439,12.88101,33.664390087127686
1619375107.79002,11.06842,33.68002009391785
1619375107.80565,9.418732,33.69565010070801
1619375107.82127,8.336517,33.71127009391785
1619375107.8369,8.155884,33.72690010070801
1619375107.85252,8.989349,33.74252009391785
1619375107.86815,10.68933,33.75815010070801
1619375107.88377,12.92459,33.77377009391785
1619375107.8994,15.27545,33.78940010070801
1619375107.91503,17.39328,33.80503010749817
1619375107.93065,19.00577,33.82065010070801
1619375107.94628,20.01245,33.83628010749817
1619375107.9619,20.37695,33.85190010070801
1619375107.97753,20.09991,33.86753010749817
1619375107.99315,19.20166,33.88315010070801
1619375108.00878,17.7124,33.89878010749817
1619375108.02441,15.77243,33.91441011428833
1619375108.04003,13.52689,33.93003010749817
1619375108.05566,11.18802,33.94566011428833
1619375108.07128,8.832336,33.96128010749817
1619375108.08691,6.392334,33.97691011428833
1619375108.10253,3.625519,33.99253010749817
1619375108.11816,0.3008728,34.00816011428833
1619375108.13379,-3.701996,34.02379012107849
1619375108.14941,-8.305054,34.03941011428833
1619375108.16504,-13.13577,34.05504012107849
1619375108.18066,-17.74612,34.07066011428833
1619375108.19629,-21.71658,34.08629012107849
1619375108.21191,-24.84851,34.10191011428833
1619375108.22754,-27.11044,34.11754012107849
1619375108.24317,-28.61795,34.13317012786865
1619375108.25879,-29.50327,34.14879012107849
1619375108.27442,-29.92282,34.16442012786865
1619375108.29004,-30.09061,34.18004012107849
1619375108.30567,-30.21439,34.19567012786865
1619375108.32129,-30.44766,34.21129012107849
1619375108.33692,-30.64902,34.22692012786865
1619375108.35255,-30.30554,34.24255013465881
1619375108.36817,-28.62503,34.25817012786865
1619375108.3838,-24.81116,34.27380013465881
1619375108.39942,-18.52438,34.28942012786865
1619375108.41505,-10.16211,34.30505013465881
1619375108.43067,-0.8792419,34.32067012786865
1619375108.4463,7.903717,34.33630013465881
1619375108.46193,14.93488,34.351930141448975
1619375108.47755,19.70743,34.36755013465881
1619375108.49318,22.45374,34.383180141448975
1619375108.5088,23.89771,34.39880013465881
1619375108.52443,24.84674,34.414430141448975
1619375108.54005,25.68878,34.43005013465881
1619375108.55568,26.38394,34.445680141448975
1619375108.57131,26.54599,34.461310148239136
1619375108.58693,25.94092,34.476930141448975
1619375108.60256,24.66852,34.492560148239136
1619375108.61818,23.27155,34.508180141448975
1619375108.63381,22.5072,34.523810148239136
1619375108.64943,22.9624,34.539430141448975
1619375108.66506,24.83725,34.555060148239136
1619375108.68069,27.84195,34.5706901550293
1619375108.69631,31.36768,34.586310148239136
1619375108.71194,34.77112,34.6019401550293
1619375108.72756,37.65475,34.617560148239136
1619375108.74319,39.91504,34.6331901550293
1619375108.75881,41.73898,34.648810148239136
1619375108.77444,43.45526,34.6644401550293
1619375108.79007,45.32666,34.68007016181946
1619375108.80569,47.51413,34.6956901550293
1619375108.82132,49.98242,34.71132016181946
1619375108.83694,52.54559,34.7269401550293
1619375108.85257,54.92241,34.74257016181946
1619375108.86819,56.81564,34.7581901550293
1619375108.88382,58.04636,34.77382016181946
1619375108.89945,58.69609,34.78945016860962
1619375108.91507,59.14674,34.80507016181946
1619375108.9307,59.93544,34.82070016860962
1619375108.94632,61.62294,34.83632016181946
1619375108.96195,64.43793,34.85195016860962
1619375108.97757,68.14882,34.86757016181946
1619375108.9932,72.0253,34.88320016860962
1619375109.00883,75.12924,34.89883017539978
1619375109.02445,76.68803,34.91445016860962
1619375109.04008,76.423,34.93008017539978
1619375109.0557,74.64896,34.94570016860962
1619375109.07133,72.10574,34.96133017539978
1619375109.08696,69.74419,34.97696018218994
1619375109.10258,68.59793,34.99258017539978
1619375109.11821,69.62529,35.00821018218994
1619375109.13383,73.45959,35.02383017539978
1619375109.14946,80.06056,35.03946018218994
1619375109.16508,88.3581,35.05508017539978
1619375109.18071,96.20682,35.07071018218994
1619375109.19634,100.8802,35.0863401889801
1619375109.21196,100.1088,35.10196018218994
1619375109.22759,93.1207,35.1175901889801
1619375109.24321,81.14679,35.13321018218994
1619375109.25884,66.99878,35.1488401889801
1619375109.27446,53.9038,35.16446018218994
1619375109.29009,44.25982,35.1800901889801
1619375109.30572,38.92737,35.195720195770264
1619375109.32134,37.41966,35.2113401889801
1619375109.33697,38.64967,35.226970195770264
1619375109.35259,41.72123,35.2425901889801
1619375109.36822,46.09595,35.258220195770264
1619375109.38384,51.30212,35.2738401889801
1619375109.39947,56.36404,35.289470195770264
1619375109.4151,59.61442,35.305100202560425
1619375109.43072,59.14124,35.320720195770264
1619375109.44635,53.65953,35.336350202560425
1619375109.46197,43.23294,35.351970195770264
1619375109.4776,29.42244,35.367600202560425
1619375109.49322,14.69815,35.383220195770264
1619375109.50885,1.511795,35.398850202560425
1619375109.52448,-8.685501,35.414480209350586
1619375109.5401,-15.85239,35.430100202560425
1619375109.55573,-21.27367,35.445730209350586
1619375109.57135,-27.21089,35.461350202560425
1619375109.58698,-36.63646,35.476980209350586
1619375109.6026,-52.79718,35.492600202560425
1619375109.61823,-78.53717,35.508230209350586
1619375109.63386,-115.0475,35.52386021614075
1619375109.64948,-160.6861,35.539480209350586
1619375109.66511,-210.5189,35.55511021614075
1619375109.68073,-257.1868,35.570730209350586
1619375109.69636,-293.2293,35.58636021614075
1619375109.71198,-313.7459,35.601980209350586
1619375109.72761,-318.0304,35.61761021614075
1619375109.74324,-309.1785,35.63324022293091
1619375109.75886,-292.177,35.64886021614075
1619375109.77449,-271.5767,35.66449022293091
1619375109.79011,-250.2459,35.68011021614075
1619375109.80574,-229.6302,35.69574022293091
1619375109.82136,-210.8093,35.71136021614075
1619375109.83699,-195.2751,35.72699022293091
1619375109.85262,-184.6663,35.74261999130249
1619375109.86824,-179.588,35.75824022293091
1619375109.88387,-178.5541,35.77386999130249
1619375109.89949,-177.9604,35.78949022293091
1619375109.91512,-173.3241,35.80511999130249
1619375109.93074,-161.1497,35.82074022293091
1619375109.94637,-140.364,35.83636999130249
1619375109.962,-112.5825,35.85199999809265
1619375109.97762,-81.42554,35.86761999130249
1619375109.99325,-51.31808,35.88324999809265
1619375110.00887,-26.16064,35.89886999130249
1619375110.0245,-8.399872,35.91449999809265
1619375110.04012,1.386963,35.93011999130249
1619375110.05575,4.464203,35.94574999809265
1619375110.07138,3.466736,35.96138000488281
1619375110.087,1.461151,35.97699999809265
1619375110.10263,1.022888,35.99263000488281
1619375110.11825,3.479523,36.00824999809265
1619375110.13388,8.813995,36.02388000488281
1619375110.1495,16.02527,36.03949999809265
1619375110.16513,23.83029,36.05513000488281
1619375110.18076,31.22925,36.070760011672974
1619375110.19638,37.70819,36.08638000488281
1619375110.21201,43.1481,36.102010011672974
1619375110.22763,47.43677,36.11763000488281
1619375110.24326,50.37756,36.133260011672974
1619375110.25888,51.67972,36.14888000488281
1619375110.27451,51.19296,36.164510011672974
1619375110.29014,49.11343,36.180140018463135
1619375110.30576,45.98407,36.195760011672974
1619375110.32139,42.526,36.211390018463135
1619375110.33701,39.33945,36.227010011672974
1619375110.35264,36.72583,36.242640018463135
1619375110.36826,34.58032,36.258260011672974
1619375110.38389,32.57733,36.273890018463135
1619375110.39952,30.44785,36.289520025253296
1619375110.41514,28.15536,36.305140018463135
1619375110.43077,25.94821,36.320770025253296
1619375110.44639,24.2215,36.336390018463135
1619375110.46202,23.2948,36.352020025253296
1619375110.47764,23.24484,36.367640018463135
1619375110.49327,23.89761,36.383270025253296
1619375110.5089,24.83569,36.39890003204346
1619375110.52452,25.57266,36.414520025253296
1619375110.54015,25.71136,36.43015003204346
1619375110.55577,25.01341,36.445770025253296
1619375110.5714,23.444,36.46140003204346
1619375110.58702,21.13371,36.477020025253296
1619375110.60265,18.2999,36.49265003204346
1619375110.61828,15.12537,36.50828003883362
1619375110.6339,11.7635,36.52390003204346
1619375110.64953,8.221619,36.53953003883362
1619375110.66515,4.449005,36.55515003204346
1619375110.68078,0.3831329,36.57078003883362
1619375110.6964,-3.93782,36.58640003204346
1619375110.71203,-8.36026,36.60203003883362
1619375110.72766,-12.62482,36.61766004562378
1619375110.74328,-16.50133,36.63328003883362
1619375110.75891,-19.9006,36.64891004562378
1619375110.77453,-22.92297,36.66453003883362
1619375110.79016,-25.84583,36.68016004562378
1619375110.80578,-28.94998,36.69578003883362
1619375110.82141,-32.34492,36.71141004562378
1619375110.83704,-35.8129,36.72704005241394
1619375110.85266,-38.74463,36.74266004562378
1619375110.86829,-40.24545,36.75829005241394
1619375110.88391,-39.42609,36.77391004562378
1619375110.89954,-35.67883,36.78954005241394
1619375110.91516,-28.95409,36.80516004562378
1619375110.93079,-19.85579,36.82079005241394
1619375110.94642,-9.510742,36.8364200592041
1619375110.96204,0.7559814,36.85204005241394
1619375110.97767,9.768021,36.8676700592041
1619375110.99329,16.76537,36.88329005241394
1619375111.00892,21.49139,36.8989200592041
1619375111.02454,24.05762,36.91454005241394
1619375111.04017,24.79199,36.9301700592041
1619375111.0558,24.06026,36.94580006599426
1619375111.07142,22.24176,36.9614200592041
1619375111.08705,19.70523,36.97705006599426
1619375111.10267,16.84625,36.9926700592041
1619375111.1183,14.05495,37.00830006599426
1619375111.13392,11.64738,37.0239200592041
1619375111.14955,9.821991,37.03955006599426
1619375111.16518,8.635674,37.055180072784424
1619375111.1808,8.089058,37.07080006599426
1619375111.19643,8.142853,37.086430072784424
1619375111.21205,8.735367,37.10205006599426
1619375111.22768,9.742737,37.117680072784424
1619375111.2433,10.96988,37.13330006599426
1619375111.25893,12.14745,37.148930072784424
1619375111.27456,13.06606,37.164560079574585
1619375111.29018,13.59718,37.180180072784424
1619375111.30581,13.79247,37.195810079574585
1619375111.32143,13.74484,37.211430072784424
1619375111.33706,13.50232,37.227060079574585
1619375111.35268,12.97327,37.242680072784424
1619375111.36831,11.93301,37.258310079574585
1619375111.38394,10.15206,37.273940086364746
1619375111.39956,7.546432,37.289560079574585
1619375111.41519,4.313435,37.305190086364746
1619375111.43081,0.882206,37.320810079574585
1619375111.44644,-2.217777,37.336440086364746
1619375111.46206,-4.613903,37.352060079574585
1619375111.47769,-6.254833,37.367690086364746
1619375111.49332,-7.403595,37.38332009315491
1619375111.50894,-8.528214,37.398940086364746
1619375111.52457,-10.08936,37.41457009315491
1619375111.54019,-12.37466,37.430190086364746
1619375111.55582,-15.44275,37.44582009315491
1619375111.57144,-19.17874,37.461440086364746
1619375111.58707,-23.27372,37.47707009315491
1619375111.6027,-27.28181,37.49270009994507
1619375111.61832,-30.52396,37.50832009315491
1619375111.63395,-32.16587,37.52395009994507
1619375111.64957,-31.33435,37.53957009315491
1619375111.6652,-27.45541,37.55520009994507
1619375111.68083,-20.56337,37.57083010673523
1619375111.69645,-11.38256,37.58645009994507
1619375111.71208,-1.241148,37.60208010673523
1619375111.7277,8.364462,37.61770009994507
1619375111.74333,16.24049,37.63333010673523
1619375111.75895,21.79518,37.64895009994507
1619375111.77458,25.07016,37.66458010673523
1619375111.79021,26.5276,37.68021011352539
1619375111.80583,26.77657,37.69583010673523
1619375111.82146,26.33289,37.71146011352539
1619375111.83708,25.53207,37.72708010673523
1619375111.85271,24.59955,37.74271011352539
1619375111.86833,23.68168,37.75833010673523
1619375111.88396,22.94104,37.77396011352539
1619375111.89959,22.54149,37.78959012031555
1619375111.91521,22.59812,37.80521011352539
1619375111.93084,23.11462,37.82084012031555
1619375111.94646,24.01059,37.83646011352539
1619375111.96209,25.14822,37.85209012031555
1619375111.97771,26.3489,37.86771011352539
1619375111.99334,27.43508,37.88334012031555
1619375112.00897,28.30081,37.89897012710571
1619375112.02459,28.82261,37.91459012031555
1619375112.04022,28.96235,37.93022012710571
1619375112.05584,28.67654,37.94584012031555
1619375112.07147,27.95573,37.96147012710571
1619375112.08709,26.80352,37.97709012031555
1619375112.10272,25.27152,37.99272012710571
1619375112.11835,23.41844,38.008350133895874
1619375112.13397,21.31734,38.02397012710571
1619375112.1496,19.04485,38.039600133895874
1619375112.16522,16.65578,38.05522012710571
1619375112.18085,14.18311,38.070850133895874
1619375112.19647,11.65937,38.08647012710571
1619375112.2121,9.193863,38.102100133895874
1619375112.22773,6.898125,38.117730140686035
1619375112.24335,4.848633,38.133350133895874
1619375112.25898,2.960152,38.148980140686035
1619375112.2746,0.9439011,38.164600133895874
1619375112.29023,-1.624245,38.180230140686035
1619375112.30585,-5.136253,38.195850133895874
1619375112.32148,-9.617828,38.211480140686035
1619375112.33711,-14.62334,38.227110147476196
1619375112.35273,-19.15454,38.242730140686035
1619375112.36836,-22.02497,38.258360147476196
1619375112.38398,-22.19809,38.273980140686035
1619375112.39961,-19.24458,38.289610147476196
1619375112.41523,-13.47269,38.305230140686035
1619375112.43086,-5.832649,38.320860147476196
1619375112.44649,2.406425,38.33649015426636
1619375112.46211,10.11668,38.352110147476196
1619375112.47774,16.51079,38.36774015426636
1619375112.49336,21.24998,38.383360147476196
1619375112.50899,24.33022,38.39899015426636
1619375112.52461,25.91452,38.414610147476196
1619375112.54024,26.18378,38.43024015426636
1619375112.55587,25.32091,38.44587016105652
1619375112.57149,23.44947,38.46149015426636
1619375112.58712,20.64353,38.47712016105652
1619375112.60274,16.98804,38.49274015426636
1619375112.61837,12.57143,38.50837016105652
1619375112.63399,7.601982,38.52399015426636
1619375112.64962,2.413055,38.53962016105652
1619375112.66525,-2.457123,38.55525016784668
1619375112.68087,-6.434296,38.57087016105652
1619375112.6965,-9.068024,38.58650016784668
1619375112.71212,-10.1411,38.60212016105652
1619375112.72775,-9.785095,38.61775016784668
1619375112.74337,-8.367958,38.63337016105652
1619375112.759,-6.399345,38.64900016784668
1619375112.77463,-4.382416,38.66463017463684
1619375112.79025,-2.713402,38.68025016784668
1619375112.80588,-1.630501,38.69588017463684
1619375112.8215,-1.241425,38.71150016784668
1619375112.83713,-1.500732,38.72713017463684
1619375112.85275,-2.285446,38.74275016784668
1619375112.86838,-3.416328,38.75838017463684
1619375112.88401,-4.682854,38.774010181427
1619375112.89963,-5.978943,38.78963017463684
1619375112.91526,-7.266602,38.805260181427
1619375112.93088,-8.589127,38.82088017463684
1619375112.94651,-10.0817,38.836510181427
1619375112.96213,-11.92669,38.85213017463684
1619375112.97776,-14.33217,38.867760181427
1619375112.99339,-17.47043,38.88339018821716
1619375113.00901,-21.31845,38.899010181427
1619375113.02464,-25.53432,38.91464018821716
1619375113.04026,-29.4325,38.930260181427
1619375113.05589,-32.06108,38.94589018821716
1619375113.07151,-32.43346,38.961510181427
1619375113.08714,-29.94678,38.97714018821716
1619375113.10277,-24.59618,38.992770195007324
1619375113.11839,-17.03404,39.00839018821716
1619375113.13402,-8.388474,39.024020195007324
1619375113.14964,0.05662537,39.03964018821716
1619375113.16527,7.30574,39.055270195007324
1619375113.18089,12.78865,39.07089018821716
1619375113.19652,16.43854,39.086520195007324
1619375113.21215,18.55182,39.102150201797485
1619375113.22777,19.50873,39.117770195007324
1619375113.2434,19.68205,39.133400201797485
1619375113.25902,19.30002,39.149020195007324
1619375113.27465,18.56186,39.164650201797485
1619375113.29027,17.62701,39.180270195007324
1619375113.3059,16.7229,39.195900201797485
1619375113.32153,16.02803,39.21153020858765
1619375113.33715,15.69412,39.227150201797485
1619375113.35278,15.70486,39.24278020858765
1619375113.3684,15.85593,39.258400201797485
1619375113.38403,15.90875,39.27403020858765
1619375113.39965,15.61385,39.289650201797485
1619375113.41528,14.90273,39.30528020858765
1619375113.43091,13.868,39.32091021537781
1619375113.44653,12.75241,39.33653020858765
1619375113.46216,11.75949,39.35216021537781
1619375113.47778,10.92639,39.36778020858765
1619375113.49341,10.04117,39.38341021537781
1619375113.50903,8.631699,39.39903020858765
1619375113.52466,6.269592,39.41466021537781
1619375113.54029,2.767471,39.43029022216797
1619375113.55591,-1.665466,39.44591021537781
1619375113.57154,-6.44342,39.46154022216797
1619375113.58716,-10.77869,39.47716021537781
1619375113.60279,-13.99524,39.49279022216797
1619375113.61841,-15.73982,39.50841021537781
1619375113.63404,-16.04636,39.52404022216797
1619375113.64967,-15.37161,39.53966999053955
1619375113.66529,-14.32327,39.55529022216797
1619375113.68092,-13.5015,39.57091999053955
1619375113.69654,-13.32004,39.58654022216797
1619375113.71217,-13.8918,39.60216999053955
1619375113.72779,-14.91264,39.61779022216797
1619375113.74342,-15.74902,39.63341999053955
1619375113.75905,-15.58476,39.64904999732971
1619375113.77467,-13.69185,39.66466999053955
1619375113.7903,-9.787521,39.68029999732971
1619375113.80592,-4.095474,39.69591999053955
1619375113.82155,2.628845,39.71154999732971
1619375113.83717,9.429337,39.72716999053955
1619375113.8528,15.40872,39.74279999732971
1619375113.86843,19.998,39.75843000411987
1619375113.88405,23.00969,39.77404999732971
1619375113.89968,24.49611,39.78968000411987
1619375113.9153,24.64609,39.80529999732971
1619375113.93093,23.61635,39.82093000411987
1619375113.94656,21.57031,39.836560010910034
1619375113.96218,18.70041,39.85218000411987
1619375113.97781,15.23631,39.867810010910034
1619375113.99343,11.53189,39.88343000411987
1619375114.00906,7.975815,39.899060010910034
1619375114.02468,4.929672,39.91468000411987
1619375114.04031,2.670364,39.930310010910034
1619375114.05594,1.358963,39.945940017700195
1619375114.07156,0.9537964,39.961560010910034
1619375114.08719,1.291504,39.977190017700195
1619375114.10281,2.154022,39.992810010910034
1619375114.11844,3.302414,40.008440017700195
1619375114.13406,4.5616,40.024060010910034
1619375114.14969,5.861771,40.039690017700195
1619375114.16532,7.129089,40.055320024490356
1619375114.18094,8.292465,40.070940017700195
1619375114.19657,9.289902,40.086570024490356
1619375114.21219,9.977158,40.102190017700195
1619375114.22782,10.25296,40.117820024490356
1619375114.24344,10.09273,40.133440017700195
1619375114.25907,9.517593,40.149070024490356
1619375114.2747,8.689056,40.16470003128052
1619375114.29032,7.752075,40.180320024490356
1619375114.30595,6.811539,40.19595003128052
1619375114.32157,5.860352,40.211570024490356
1619375114.3372,4.759171,40.22720003128052
1619375114.35282,3.265106,40.242820024490356
1619375114.36845,1.087128,40.25845003128052
1619375114.38408,-1.99707,40.27408003807068
1619375114.3997,-6.087708,40.28970003128052
1619375114.41533,-11.05084,40.30533003807068
1619375114.43095,-16.47957,40.32095003128052
1619375114.44658,-21.68459,40.33658003807068
1619375114.4622,-25.75687,40.35220003128052
1619375114.47783,-27.80896,40.36783003807068
1619375114.49346,-27.26256,40.38346004486084
1619375114.50908,-24.01433,40.39908003807068
1619375114.52471,-18.51276,40.41471004486084
1619375114.54033,-11.56868,40.43033003807068
1619375114.55596,-4.054596,40.44596004486084
1619375114.57158,3.38797,40.46158003807068
1619375114.58721,10.46147,40.47721004486084
1619375114.60284,17.13295,40.492840051651
1619375114.61846,23.42665,40.50846004486084
1619375114.63409,29.18744,40.524090051651
1619375114.64971,34.08728,40.53971004486084
1619375114.66534,37.75108,40.555340051651
1619375114.68096,39.97487,40.57096004486084
1619375114.69659,40.95227,40.586590051651
1619375114.71222,41.28986,40.60222005844116
1619375114.72784,41.75929,40.617840051651
1619375114.74347,43.00966,40.63347005844116
1619375114.75909,45.27147,40.649090051651
1619375114.77472,48.25639,40.66472005844116
1619375114.79034,51.3577,40.680340051651
1619375114.80597,53.98174,40.69597005844116
1619375114.8216,55.92575,40.71160006523132
1619375114.83722,57.52475,40.72722005844116
1619375114.85285,59.53996,40.74285006523132
1619375114.86847,62.78705,40.75847005844116
1619375114.8841,67.68703,40.77410006523132
1619375114.89972,74.0255,40.78972005844116
1619375114.91535,80.95952,40.80535006523132
1619375114.93098,87.33026,40.820980072021484
1619375114.9466,92.13211,40.83660006523132
1619375114.96223,94.83978,40.852230072021484
1619375114.97785,95.58092,40.86785006523132
1619375114.99348,94.98384,40.883480072021484
1619375115.0091,94.08287,40.89910006523132
1619375115.02473,94.17094,40.914730072021484
1619375115.04036,96.62725,40.930360078811646
1619375115.05598,102.444,40.945980072021484
1619375115.07161,111.5814,40.961610078811646
1619375115.08723,122.5067,40.977230072021484
1619375115.10286,132.278,40.992860078811646
1619375115.11848,137.3724,41.008480072021484
1619375115.13411,135.1831,41.024110078811646
1619375115.14974,125.2868,41.03974008560181
1619375115.16536,109.8732,41.055360078811646
1619375115.18099,92.93443,41.07099008560181
1619375115.19661,78.54211,41.086610078811646
1619375115.21224,69.20718,41.10224008560181
1619375115.22786,65.13126,41.117860078811646
1619375115.24349,64.71233,41.13349008560181
1619375115.25912,65.82661,41.14912009239197
1619375115.27474,67.09247,41.16474008560181
1619375115.29037,68.30878,41.18037009239197
1619375115.30599,69.91373,41.19599008560181
1619375115.32162,71.97912,41.21162009239197
1619375115.33724,73.52076,41.22724008560181
1619375115.35287,72.54295,41.24287009239197
1619375115.3685,66.9406,41.25850009918213
1619375115.38412,55.59151,41.27412009239197
1619375115.39975,39.09155,41.28975009918213
1619375115.41537,19.84081,41.30537009239197
1619375115.431,0.9824829,41.32100009918213
1619375115.44662,-14.68292,41.33662009239197
1619375115.46225,-25.83446,41.35225009918213
1619375115.47788,-33.02182,41.36788010597229
1619375115.4935,-38.25815,41.38350009918213
1619375115.50913,-44.23346,41.39913010597229
1619375115.52475,-53.73676,41.41475009918213
1619375115.54038,-69.42673,41.43038010597229
1619375115.556,-93.5162,41.44600009918213
1619375115.57163,-127.2051,41.46163010597229
1619375115.58726,-169.6211,41.47726011276245
1619375115.60288,-216.9891,41.49288010597229
1619375115.61851,-262.8435,41.50851011276245
1619375115.63413,-299.8276,41.52413010597229
1619375115.64976,-322.2235,41.53976011276245
1619375115.66538,-328.2135,41.55538010597229
1619375115.68101,-320.3126,41.57101011276245
1619375115.69664,-303.8164,41.58664011955261
1619375115.71226,-283.8531,41.60226011276245
1619375115.72789,-263.0991,41.61789011955261
1619375115.74351,-241.2701,41.63351011276245
1619375115.75914,-216.635,41.64914011955261
1619375115.77476,-188.4462,41.66476011276245
1619375115.79039,-158.4127,41.68039011955261
1619375115.80602,-130.3358,41.69602012634277
