,index,PPG_Raw,PPG_Clean,PPG_Rate,PPG_Peaks,EDA_Raw,EDA_Clean,EDA_Tonic,EDA_Phasic,SCR_Onsets,SCR_Peaks,SCR_Height,SCR_Amplitude,SCR_RiseTime,SCR_Recovery,SCR_RecoveryTime,Index,Label,Condition,id
0,0.0,5.132996,0.0,83.80240126220633,0,0.14985682211175935,0.14983888783922936,0.14879907441509058,0.0010398134291294207,0,0,0,0,0,0,0,385,2,zmatek,1
1,0.015873015873015872,5.486969,0.0,83.31433559997348,0,0.14965267933623272,0.14963243478885715,0.14879128518872034,0.0008411496051827561,0,0,0,0,0,0,0,386,2,zmatek,1
2,0.031746031746031744,7.561638,0.0,82.80538885019314,0,0.14943521124963596,0.14941451744533515,0.14878351510720086,0.0006310023432357956,0,0,0,0,0,1,0,387,2,zmatek,1
3,0.047619047619047616,10.69241,0.0,82.27765058832517,0,0.14920853846710397,0.14918791459801797,0.1487757643325641,0.00041215027061122734,0,0,0,0,0,0,0,388,2,zmatek,1
4,0.06349206349206349,13.94056,0.0,81.73316215222613,0,0.1489767816037717,0.1489559792368893,0.14876803302720584,0.00018794621489693253,0,0,0,0,0,0,0,389,2,zmatek,1
5,0.07936507936507936,16.32844,0.0,81.17390958729975,0,0.14874406127477396,0.1487225907765817,0.1487603213537597,-3.773057190809871e-05,0,0,0,0,0,0,0,390,2,zmatek,1
6,0.09523809523809523,17.13281,0.0,80.6018176821709,0,0.14851449809524578,0.14849207895442199,0.14875262947496795,-0.000260550515219329,0,0,0,0,0,0,0,391,2,zmatek,1
7,0.1111111111111111,16.04032,0.0,80.01874505039456,0,0.148292212680322,0.14826912004345677,0.14874495755355183,-0.00047583750471143584,0,0,0,0,0,0,0,392,2,zmatek,1
8,0.12698412698412698,13.161,0.0,79.4264802039216,0,0.14808132564513762,0.14805860728908166,0.14873730575208344,-0.0006786984575609498,0,0,0,0,0,0,0,393,2,zmatek,1
9,0.14285714285714285,8.984741,0.0,78.82673855655433,0,0.1478859576048275,0.1478654987754395,0.14872967423286226,-0.0008641754519244341,0,0,0,0,0,0,0,394,2,zmatek,1
10,0.15873015873015872,4.10672,0.0,78.22116029026445,0,0.14771022917452656,0.1476946472517811,0.14872206315779873,-0.0010274159004615775,0,0,0,0,0,0,0,395,2,zmatek,1
11,0.1746031746031746,-0.8561096,0.0,77.61130901381856,0,0.14755826096936978,0.14755061777046727,0.14871447268830798,-0.0011638549122267073,0,0,0,0,0,0,0,396,2,zmatek,1
12,0.19047619047619047,-5.491333,0.0,76.99867114144138,0,0.14743417360449196,0.14743750024086844,0.14870690298521644,-0.0012694027386758481,0,0,0,0,0,0,0,397,2,zmatek,1
13,0.20634920634920634,-9.718643,0.0,76.38465591902265,0,0.14734208769502813,0.14735872508054906,0.14869935420868374,-0.0013406291224040473,0,0,0,0,0,0,0,398,2,zmatek,1
14,0.2222222222222222,-13.85214,0.0,75.77059602640927,0,0.14728612385611314,0.14731689090711497,0.1486918265181424,-0.0013749356052380729,1,0,0,0,0,0,0,399,2,zmatek,1
15,0.23809523809523808,-18.44113,0.0,75.15774868640642,0,0.14727040270288194,0.14731361350566247,0.14868432007225713,-0.0013707065607463079,0,0,0,0,0,0,0,400,2,zmatek,1
16,0.25396825396825395,-23.88298,0.0,74.5472972140294,0,0.14729904485046943,0.14734940498530483,0.14867683502890558,-0.0013274300376932002,0,0,0,0,0,0,0,401,2,zmatek,1
17,0.2698412698412698,-29.98441,0.0,73.9403529431129,0,0.1473744712002102,0.1474235910123327,0.1486693715451809,-0.0012457805268811899,0,0,0,0,0,0,0,402,2,zmatek,1
18,0.2857142857142857,-35.53296,0.0,73.33795747142366,0,0.1474919638710201,0.14753427228069105,0.14866192977741655,-0.001127657490698854,0,0,0,0,0,0,0,403,2,zmatek,1
19,0.30158730158730157,-38.43446,0.0,72.7410851697829,0,0.14764493109820304,0.14767833408327627,0.14865450988123324,-0.0009761757918704721,0,0,0,0,0,0,0,404,2,zmatek,1
20,0.31746031746031744,-36.19847,0.0,72.1506459052542,0,0.14782678110938746,0.14785150522917237,0.14864711201160663,-0.0007956067762876489,0,0,0,0,0,0,0,405,2,zmatek,1
21,0.3333333333333333,-26.87463,0.0,71.56748793307834,0,0.1480309221322017,0.148048464914593,0.148639736322954,-0.00059127140215403,0,0,0,0,0,0,0,406,2,zmatek,1
22,0.3492063492063492,-9.924973,0.0,70.99240091664414,0,0.14825076239427412,0.14826299376099558,0.1486323829692375,-0.00036938920197432433,0,0,0,0,0,0,0,407,2,zmatek,1
23,0.36507936507936506,13.39201,0.0,70.42611903929895,0,0.14847971012323313,0.14848816323879235,0.1486250521040811,-0.00013688885896029183,0,0,0,0,0,0,0,408,2,zmatek,1
24,0.38095238095238093,40.28369,0.0,69.8693241761637,0,0.14871117354670704,0.14871655614164186,0.1486177438808974,9.88122671340925e-05,0,0,0,0,0,0,0,409,2,zmatek,1
25,0.3968253968253968,67.31786,0.0,69.32264909827995,0,0.1489385608923243,0.1489405096272192,0.14861045845302037,0.00033005118064991727,0,0,0,0,0,0,0,410,2,zmatek,1
26,0.4126984126984127,91.40005,3.943205452326572,68.78668068534871,0,0.1491552803877132,0.14915237152528957,0.14860319597384009,0.000549175557962263,0,0,0,0,0,0,0,411,2,zmatek,1
27,0.42857142857142855,110.6329,23.963360318107622,68.26196312700051,0,0.1493547402605022,0.14934476006965838,0.14859595659693475,0.0007488034792983858,0,0,0,0,0,0,0,412,2,zmatek,1
28,0.4444444444444444,124.4927,39.022118145768005,67.74900109595322,0,0.1495303487383196,0.14951081690912135,0.1485887404761958,0.0009220764395625615,0,0,0,0,0,0,0,413,2,zmatek,1
29,0.4603174603174603,133.6051,49.294664582017745,67.2482628795621,0,0.1496755140487938,0.1496444432149737,0.1485815477659418,0.0010628954557314943,0,0,0,0,0,0,0,414,2,zmatek,1
30,0.47619047619047616,139.1397,55.653119849927286,66.76018345915135,0,0.14978364441955322,0.14974050899832117,0.14857437862101724,0.0011661303840663426,0,0,0,0,0,0,0,415,2,zmatek,1
31,0.49206349206349204,142.2426,59.24339441696069,66.28516752914189,0,0.1498481480782261,0.14979502648117993,0.14856723319687296,0.001227793291132534,0,0,0,0,0,0,0,416,2,zmatek,1
32,0.5079365079365079,143.7553,61.15771730803436,65.82359245037298,0,0.14986243325244097,0.14980527963501641,0.14856011164962477,0.0012451679922806536,0,1,0,0,0,0,0,417,2,zmatek,1
33,0.5238095238095237,144.228,62.291390636470695,65.37581113416519,0,0.1498215969578064,0.149769903871287,0.14855301413608854,0.0012168897421511744,0,0,0,0,0,0,0,418,2,zmatek,1
34,0.5396825396825397,144.1455,63.36256464767613,64.94215485561122,0,0.14972875154670026,0.14968891231050002,0.1485459408137899,0.0011429715037268322,0,0,0,0,0,0,0,419,2,zmatek,1
35,0.5555555555555556,144.1401,65.00182556001276,64.52293599632574,0,0.14958938489823348,0.1495636679073687,0.14853889184094787,0.0010247760735018607,0,0,0,0,0,0,0,420,2,zmatek,1
36,0.5714285714285714,144.9822,67.8122368781405,64.11845071845536,0,0.14940898526262078,0.14939680368183994,0.14853186737643218,0.0008649363125533819,0,0,0,0,0,0,0,421,2,zmatek,1
37,0.5873015873015872,147.4547,72.34843490274784,63.72898157316857,0,0.1491930408900768,0.1491920960558932,0.1485248675796955,0.0006672284834080967,0,0,0,0,0,0,0,422,2,zmatek,1
38,0.6031746031746031,152.1155,79.02734781780481,63.35480004812995,0,0.14894704003081616,0.14895429853073142,0.14851789261068182,0.0004364059273250108,0,0,0,0,0,0,0,423,2,zmatek,1
39,0.6190476190476191,159.11,88.0245384309238,62.996169059639314,0,0.1486764709350535,0.14868894449241324,0.14851094262971293,0.00017800187004094348,0,0,0,0,0,0,0,424,2,zmatek,1
40,0.6349206349206349,168.1618,99.21168460850416,62.653345396201246,0,0.14838682185300356,0.1484021287810412,0.14850401779735597,-0.00010188900890865992,0,0,0,0,0,1,0,425,2,zmatek,1
41,0.6507936507936507,178.7105,112.1619200301752,62.32658212130813,0,0.14808358103488084,0.148100277879878,0.14849711827427528,-0.0003968403869254217,0,0,0,0,0,0,0,426,2,zmatek,1
42,0.6666666666666666,190.0846,126.2159124937364,62.01613094419099,0,0.14777223673090012,0.1477899183119221,0.1484902442210716,-0.0007003259016116761,0,0,0,0,0,0,0,427,2,zmatek,1
43,0.6825396825396826,201.5787,140.58389197101022,61.7222445682363,0,0.147458277191276,0.14747745221842035,0.1484833957981128,-0.0010059435720883856,0,0,0,0,0,0,0,428,2,zmatek,1
44,0.6984126984126984,212.5365,154.4609584365234,61.44517902770863,0,0.14714719066622312,0.14716894825959273,0.1484765731653595,-0.001307624898096283,0,0,0,0,0,0,0,429,2,zmatek,1
45,0.7142857142857142,222.3245,167.14222600632658,61.18519602437697,0,0.1468444654059562,0.14686995500294822,0.14846977648218943,-0.0015998214715040246,0,0,0,0,0,0,0,430,2,zmatek,1
46,0.7301587301587301,230.3478,178.12498421903982,60.942565276641794,0,0.14655558966068974,0.14658534288042138,0.14846300590722372,-0.0018776630189982525,0,0,0,0,0,0,0,431,2,zmatek,1
47,0.746031746031746,236.167,187.17298027896948,60.71756689482298,0,0.14628605168063857,0.14631917959113616,0.14845626159815892,-0.002137081999151516,0,0,0,0,0,0,0,432,2,zmatek,1
48,0.7619047619047619,239.6143,194.3061708734492,60.51049379742103,0,0.14604133971601724,0.14607464246712346,0.14844954371160668,-0.0023749012365445244,0,0,0,0,0,0,0,433,2,zmatek,1
49,0.7777777777777777,240.8619,199.68900721388368,60.3216541844328,0,0.14582598471860156,0.14585396977552958,0.14844285240294403,-0.0025888826194079614,0,0,0,0,0,0,0,434,2,zmatek,1
50,0.7936507936507936,240.2833,203.43198716742634,60.1513740852173,0,0.1456393782064229,0.14565845121474358,0.14843618782617593,-0.002777736603357857,0,0,0,0,0,0,0,435,2,zmatek,1
51,0.8095238095238095,238.101,205.37989997672491,60.0,1,0.1454791943510209,0.14548845605635582,0.1484295501338116,-0.0029410940693129824,0,0,0,0,0,0,0,436,2,zmatek,1
52,0.8253968253968254,233.998,204.99850293860072,59.85863138828283,0,0.14534310611438997,0.14534349564536264,0.14842293947675472,-0.003079443823180806,0,0,0,0,0,0,0,437,2,zmatek,1
53,0.8412698412698412,227.0537,201.45263641851372,59.718154260797895,0,0.14522878645852447,0.14522231548510475,0.14841635600420872,-0.003194040510823953,0,0,0,0,0,0,0,438,2,zmatek,1
54,0.8571428571428571,216.0155,193.88643579030722,59.578611291843366,0,0.14513390834541876,0.14512301105598951,0.14840979986359587,-0.0032867887992573696,0,0,0,0,0,0,0,439,2,zmatek,1
55,0.873015873015873,199.9536,181.80663050641405,59.44004430948273,0,0.14505614473706724,0.14504316092164965,0.14840327120049035,-0.0033601102704224734,0,0,0,0,0,0,0,440,2,zmatek,1
56,0.8888888888888888,178.8094,165.39531456001086,59.302494315553254,0,0.14499316859546424,0.14497997054666148,0.14839677015856356,-0.0034167996034143605,0,0,0,0,0,0,0,441,2,zmatek,1
57,0.9047619047619047,153.6721,145.5897880254864,59.16600150602653,0,0.14494265288260416,0.144930420503779,0.1483902968795408,-0.003459876367204364,0,0,0,0,0,0,0,442,2,zmatek,1
58,0.9206349206349206,126.4714,123.8689144055769,59.03060529169403,0,0.14490227056048133,0.14489141327054111,0.14838385150316752,-0.0034924382239990065,0,0,0,0,0,0,0,443,2,zmatek,1
59,0.9365079365079365,99.32712,101.82895633334942,58.89634431915157,0,0.1448696945910902,0.14485991348696045,0.1483774341671834,-0.0035175206715253615,0,0,0,0,0,0,0,444,2,zmatek,1
60,0.9523809523809523,73.7818,80.739599655876,58.76325649205905,0,0.14484259793642507,0.14483307726897382,0.14837104500730258,-0.003537967729560752,0,0,0,0,0,0,0,445,2,zmatek,1
61,0.9682539682539681,50.36264,61.28132504375849,58.63137899265237,0,0.14481865355848028,0.1448083668804531,0.14836468415719825,-0.0035563172679064447,0,0,0,0,0,0,0,446,2,zmatek,1
62,0.9841269841269841,28.75699,43.5700989220824,58.5007483034866,0,0.14479553441925028,0.14478364773178734,0.14835835174849007,-0.0035747040077930645,0,0,0,0,0,0,0,447,2,zmatek,1
63,1.0,8.295074,27.42601953665644,58.37140022939049,0,0.14477091348072937,0.14475726530212416,0.14835204791073286,-0.0035947825996278113,0,0,0,0,0,0,0,448,2,zmatek,1
0,0.0,-71.5186,0.0,60.327051004354594,0,0.1499871407091479,0.15006791285904955,0.15218939882867522,-0.0021214865108940464,0,0,0,0,0,0,0,1507,4,zmatek,3
1,0.015873015873015872,-56.78983,0.0,59.731396720618704,0,0.14984125636560552,0.14992179587875118,0.15219375010075956,-0.0022719547658316577,0,0,0,0,0,0,0,1508,4,zmatek,3
2,0.031746031746031744,-34.37021,0.0,59.144210502151694,0,0.1497733097076993,0.14984027058226812,0.15219809055243372,-0.00235782051654843,0,0,0,0,0,0,0,1509,4,zmatek,3
3,0.047619047619047616,-7.226898,0.0,58.56596233716085,0,0.1497781937382003,0.14982396814081542,0.15220242014748672,-0.002378452555618295,1,0,0,0,0,0,0,1510,4,zmatek,3
4,0.06349206349206349,20.7047,0.0,57.99707722593674,0,0.1498492181498832,0.14987165789813364,0.15220673884835745,-0.0023350815017395042,0,0,0,0,0,0,0,1511,4,zmatek,3
5,0.07936507936507936,45.74731,0.0,57.43793813548576,0,0.14997969263552272,0.14998039690119958,0.1522110466161223,-0.0022306502690117493,0,0,0,0,0,0,0,1512,4,zmatek,3
6,0.09523809523809523,65.3797,2.841006342247855,56.888888888888886,0,0.15016292688789362,0.1501457364430863,0.15221534341051965,-0.00206960752410024,0,0,0,0,0,0,0,1513,4,zmatek,3
7,0.1111111111111111,78.69122,15.77463024939643,56.35023697758389,0,0.15039223059977053,0.15036197191769118,0.15221962919000906,-0.0018576578315671257,0,0,0,0,0,0,0,1514,4,zmatek,3
8,0.12698412698412698,86.06174,22.576148121168966,55.82225628731304,0,0.1506609134639281,0.15062242087686367,0.15222390391186325,-0.0016014835968356895,0,0,0,0,0,0,0,1515,4,zmatek,3
9,0.14285714285714285,88.60614,24.027864878066616,55.30518973074787,0,0.15096228517314114,0.15091971393587936,0.1522281675322892,-0.001308454160837275,0,0,0,0,0,0,0,1516,4,zmatek,3
10,0.15873015873015872,87.54161,21.386208315895654,54.79925178181057,0,0.1512896554201844,0.1512460839371064,0.15223242000657478,-0.0009863366364914884,0,0,0,0,0,0,0,1517,4,zmatek,3
11,0.1746031746031746,83.90384,16.01685644446552,54.30463090847485,0,0.1516363338978326,0.15159364032284947,0.15223666128925648,-0.0006430215360301963,0,0,0,0,0,0,0,1518,4,zmatek,3
12,0.19047619047619047,78.5542,9.179648777693616,53.82149190236616,0,0.15199563029886026,0.15195461773789096,0.15224089133430435,-0.0002862741686409678,0,0,0,0,0,0,0,1519,4,zmatek,3
13,0.20634920634920634,72.35182,1.949548850359931,53.349978104809644,0,0.15236085431604227,0.15232159025502545,0.15224511009531902,7.647958487021135e-05,0,0,0,0,0,0,0,1520,4,zmatek,3
14,0.2222222222222222,66.25807,0.0,52.89021353011352,0,0.15272531564215328,0.15268764511614483,0.15224931752573664,0.00043832701295905556,0,0,0,0,0,0,0,1521,4,zmatek,3
15,0.23809523809523808,61.21486,0.0,52.44230488784591,0,0.15308232396996807,0.15304651238772474,0.15225351357903752,0.000792998228620933,0,0,0,0,0,0,0,1522,4,zmatek,3
16,0.25396825396825395,57.85634,0.0,52.006343506678235,0,0.15342518899226118,0.1533926493752302,0.1522576982089544,0.001134950583588196,0,0,0,0,0,0,0,1523,4,zmatek,3
17,0.2698412698412698,56.39365,0.0,51.58240716305181,0,0.1537472231411589,0.15372128099213492,0.1522618713696768,0.0014594090371449614,0,0,0,0,0,0,0,1524,4,zmatek,3
18,0.2857142857142857,56.58377,0.0,51.1705618184867,0,0.1540432578690852,0.15402839950803432,0.15226603301604816,0.0017623659040433696,0,0,0,0,0,0,0,1525,4,zmatek,3
19,0.30158730158730157,58.0023,0.0,50.770863269812715,0,0.15431216419614435,0.15431072915267857,0.15227018310375304,0.0020405454583490475,0,0,0,0,0,0,0,1526,4,zmatek,3
20,0.31746031746031744,60.28528,0.0,50.38335871697451,0,0.15455347721967255,0.15456566282515938,0.15227432158949206,0.002291340642453046,0,0,0,0,0,0,0,1527,4,zmatek,3
21,0.3333333333333333,63.36038,0.0,50.008088253359865,0,0.15476673203700608,0.15479117950107235,0.15227844843114263,0.002512730474073636,0,0,0,0,0,0,0,1528,4,zmatek,3
22,0.3492063492063492,67.4079,0.0,49.64508628383357,0,0.1549514637454813,0.15498575168935255,0.15228256358790407,0.002703187502946524,0,0,0,0,0,0,0,1529,4,zmatek,3
23,0.36507936507936506,72.71848,0.0,49.294382875843446,0,0.15510720744243442,0.15514825235441776,0.15228666702042565,0.002861584732840277,0,0,0,0,0,0,0,1530,4,zmatek,3
24,0.38095238095238093,79.46469,3.3521018590880907,48.956005049105634,0,0.15523349822520177,0.1552778700586059,0.15229075869091688,0.002987110763883418,0,0,0,0,0,0,0,1531,4,zmatek,3
25,0.3968253968253968,87.42366,11.261752883087818,48.62997800948749,0,0.1553298711911196,0.15537403974909955,0.1522948385632391,0.0030792005793971434,0,0,0,0,0,0,0,1532,4,zmatek,3
26,0.4126984126984127,96.04937,19.697905577651788,48.31632633279355,0,0.1553958614375242,0.1554363947338428,0.1522989066029784,0.0031374875217396038,0,0,0,0,0,0,0,1533,4,zmatek,3
27,0.42857142857142855,104.432,27.84175828812219,48.01507510423346,0,0.1554310040617519,0.1554647431281233,0.15230296277749872,0.003161779738834468,0,1,0,0,0,0,0,1534,4,zmatek,3
28,0.4444444444444444,111.6001,34.885909008815,47.72625101941632,0,0.15543483416113893,0.1554590695980951,0.15230700705597586,0.0031520619276599734,0,0,0,0,0,0,0,1535,4,zmatek,3
29,0.4603174603174603,116.8366,40.316852638293916,47.44988345278167,0,0.1554068868330216,0.1554195607789526,0.1523110394094115,0.003108520752408846,0,0,0,0,0,0,0,1536,4,zmatek,3
30,0.47619047619047616,119.9968,44.129031845021544,47.18600549944905,0,0.15534669717473618,0.1553466504986313,0.15231505981062773,0.0030315900681946307,0,0,0,0,0,0,0,1537,4,zmatek,3
31,0.49206349206349204,121.6552,46.86832676967356,46.934654996552624,0,0.15525380028361896,0.15524107907124973,0.15231906823424168,0.00292201021451874,0,0,0,0,0,0,0,1538,4,zmatek,3
32,0.5079365079365079,122.9281,49.46547116309983,46.6958755302302,0,0.15512773125700619,0.1551039595880514,0.1523230646566212,0.0027808943062568653,0,0,0,0,0,0,0,1539,4,zmatek,3
33,0.5238095238095237,125.0781,52.90714749779741,46.46971743456411,0,0.15496802601104862,0.15493684343569689,0.1523270490558216,0.0026097937520144065,0,0,0,0,0,0,0,1540,4,zmatek,3
34,0.5396825396825397,128.9378,57.865491520859905,46.25623878892896,0,0.15477538303765717,0.15474177726368044,0.15233102141150398,0.0024107552216244476,0,0,0,0,0,0,0,1541,4,zmatek,3
35,0.5555555555555556,134.5899,64.42993717387672,46.055506420397194,0,0.1545539800224416,0.1545213442828353,0.15233498170483675,0.0021863619447518613,0,0,0,0,0,0,0,1542,4,zmatek,3
36,0.5714285714285714,141.2509,72.04666451266559,45.86759691809146,0,0.15430864270425285,0.15427868400291853,0.15233892991838066,0.0019397534485930785,0,0,0,0,0,0,0,1543,4,zmatek,3
37,0.5873015873015872,147.6926,79.68973780868888,45.69259766666197,0,0.1540441968219421,0.15401748613936725,0.15234286603595937,0.0016746194647615032,0,0,0,0,0,0,0,1544,4,zmatek,3
38,0.6031746031746031,152.7487,86.20393313491151,45.53060790641398,0,0.1537654681143603,0.15374195624059553,0.15234679004251753,0.0013951655567266455,0,0,0,0,0,0,0,1545,4,zmatek,3
39,0.6190476190476191,155.6723,90.70709957552721,45.38173982802299,0,0.1534772823203585,0.15345675243354803,0.15235070192396785,0.001106049865520489,0,0,0,0,0,0,0,1546,4,zmatek,3
40,0.6349206349206349,156.2904,92.92942544035617,45.24611971026538,0,0.1531844651787877,0.1531668944373897,0.15235460166703038,0.0008122921235880006,0,0,0,0,0,0,0,1547,4,zmatek,3
41,0.6507936507936507,154.9731,93.3848340256659,45.12388910976549,0,0.15289184242849904,0.1528776475909488,0.15235848925906595,0.000519157682396646,0,0,0,0,0,0,0,1548,4,zmatek,3
42,0.6666666666666666,152.6219,93.30124732695897,45.01520611243477,0,0.15260423980834345,0.15259438605540768,0.1523623646879072,0.00023202071529612137,0,0,0,0,0,1,0,1549,4,zmatek,3
43,0.6825396825396826,150.6398,94.28396696387439,44.920246657062904,0,0.15232648305717203,0.15232244058162422,0.15236622794169,-4.378801499140526e-05,0,0,0,0,0,0,0,1550,4,zmatek,3
44,0.6984126984126984,150.6909,97.76280928867844,44.8392059424341,0,0.15206339791383575,0.15206693725845816,0.15237007900868818,-0.00030314240788003395,0,0,0,0,0,0,0,1551,4,zmatek,3
45,0.7142857142857142,153.9971,104.37441398879,44.772299930401395,0,0.15181981011718573,0.15183263445337788,0.15237391787715487,-0.0005412840841544106,0,0,0,0,0,0,0,1552,4,zmatek,3
46,0.7301587301587301,160.5957,113.51385565011024,44.71976695857877,0,0.15160054540607296,0.1516237656643205,0.1523777445351733,-0.0007539795339607388,0,0,0,0,0,0,0,1553,4,zmatek,3
47,0.746031746031746,168.7774,123.28871857382804,44.68186947773149,0,0.15141042951934847,0.1514438961463645,0.15238155897051986,-0.0009376634899968912,0,0,0,0,0,0,0,1554,4,zmatek,3
48,0.7619047619047619,175.3032,130.98330251728706,44.658895930588216,0,0.15125428819586326,0.15129580087394004,0.15238536117054155,-0.0010895609651796476,0,0,0,0,0,0,0,1555,4,zmatek,3
49,0.7777777777777777,176.5338,133.92066475044663,44.651162790697676,1,0.1511369469051266,0.15118137057802547,0.15238915112205023,-0.0012077812153423319,0,0,0,0,0,0,0,1556,4,zmatek,3
50,0.7936507936507936,169.9639,130.40027602114313,44.8147610348123,0,0.1510615069925386,0.1511015512306165,0.15239292881123484,-0.001291378254678197,0,0,0,0,0,0,0,1557,4,zmatek,3
51,0.8095238095238095,155.4269,120.31439526976432,45.293651877133115,0,0.1510252523840729,0.15105632048606765,0.1523966942235931,-0.0013403744143303219,0,0,0,0,0,0,0,1558,4,zmatek,3
52,0.8253968253968254,135.1692,105.17069657892955,46.078560044998596,0,0.15102424130698502,0.15104470238212253,0.15240044734388286,-0.0013557456413130313,1,0,0,0,0,0,0,1559,4,zmatek,3
53,0.8412698412698412,112.8466,87.52188187982462,47.170154686078256,0,0.15105453198853047,0.15106481929303553,0.15240418815609355,-0.0013393695453612663,0,0,0,0,0,0,0,1560,4,zmatek,3
54,0.8571428571428571,91.88385,70.08037657242345,48.5778814089776,0,0.15111218265596468,0.15111397798447812,0.1524079166434366,-0.0012939393440149184,0,0,0,0,0,0,0,1561,4,zmatek,3
55,0.873015873015873,74.31308,54.92446918376098,50.319410319410316,0,0.15119325153654314,0.151188784868793,0.15241163278835418,-0.001222848607373501,0,0,0,0,0,0,0,1562,4,zmatek,3
56,0.8888888888888888,60.42764,43.11496182654723,52.420516264096534,0,0.1512937968575213,0.15128528432328134,0.15241533657254475,-0.0011300529398341782,0,0,0,0,0,0,0,1563,4,zmatek,3
57,0.9047619047619047,49.44229,34.79914985318863,54.91525423728814,0,0.15140987684615476,0.15139911323163535,0.15241902797700294,-0.0010199154386992695,0,0,0,0,0,0,0,1564,4,zmatek,3
58,0.9206349206349206,40.50928,29.628096310044388,57.846298693656585,0,0.15153754972969888,0.15152566467966264,0.1524227069820723,-0.0008970429985047458,0,0,0,0,0,0,0,1565,4,zmatek,3
59,0.9365079365079365,33.40057,27.192635886277216,61.26528049636223,0,0.1516728737354092,0.15166025388063573,0.15242637356750793,-0.0007661203857331051,0,0,0,0,0,0,0,1566,4,zmatek,3
60,0.9523809523809523,28.51578,27.242343319370878,65.2328684975005,0,0.15181190709054113,0.1517982798141991,0.15243002771254638,-0.0006317485999763911,0,0,0,0,0,0,0,1567,4,zmatek,3
61,0.9682539682539681,26.35083,29.629237666115035,69.81818181818181,0,0.15195070802235025,0.1519353766426541,0.15243366939598044,-0.0004982934577260344,0,0,0,0,0,0,0,1568,4,zmatek,3
62,0.9841269841269841,26.93518,34.09420224423802,75.09684866935643,0,0.15208533475809197,0.15206754965659675,0.1524372985962359,-0.0003697496468117166,0,0,0,0,0,0,0,1569,4,zmatek,3
63,1.0,29.55945,40.08913889551402,81.14660274910729,0,0.15221184552502182,0.1521912912703062,0.15244091529144776,-0.00024962473108922415,0,0,0,0,0,0,0,1570,4,zmatek,3
0,0.0,80.79546,39.01595512867072,100.90686518335055,0,0.14246845064017735,0.14244176419127919,0.14515288102661655,-0.002696555844618479,0,0,0,0,0,0,0,4466,6,zmatek,5
1,0.015873015873015872,74.2509,29.81495014103602,100.7284558877363,0,0.14184622364099014,0.1418255964142717,0.1451506049059251,-0.0033104247080746716,0,0,0,0,0,0,0,4467,6,zmatek,5
2,0.031746031746031744,64.91158,18.128197130389832,100.48342957187552,0,0.14123638670199298,0.14122260426341104,0.1451483239926872,-0.00391111334668893,0,0,0,0,0,0,0,4468,6,zmatek,5
3,0.047619047619047616,53.25761,4.604178295960681,100.17487647457259,0,0.1406514749325645,0.14064725393700062,0.14514603829855555,-0.0044841555757073924,0,0,0,0,0,0,0,4469,6,zmatek,5
4,0.06349206349206349,40.21542,0.0,99.80607500401534,0,0.14010402344208572,0.14011361771461156,0.1451437478329115,-0.005015479126845646,0,0,0,0,0,0,0,4470,6,zmatek,5
5,0.07936507936507936,26.94353,0.0,99.38045527068854,0,0.13960656733993546,0.139634900917736,0.1451414526025366,-0.0054918786873067536,0,0,0,0,0,0,0,4471,6,zmatek,5
6,0.09523809523809523,14.59468,0.0,98.90156334072998,0,0.13917164173549457,0.13922299042940064,0.14513915261130766,-0.005901467379863207,0,0,0,0,0,0,0,4472,6,zmatek,5
7,0.1111111111111111,3.995773,0.0,98.3730267413584,0,0.13881178173814201,0.13888804430171725,0.14513684785992362,-0.006234087155033045,0,0,0,0,0,0,0,4473,6,zmatek,5
8,0.12698412698412698,-4.411636,0.0,97.79852167242365,0,0.13853952245725826,0.13863814113863968,0.14513453834567078,-0.006481659408088096,0,0,0,0,0,0,0,4474,6,zmatek,5
9,0.14285714285714285,-10.58026,0.0,97.1817422965617,0,0.13836739900222314,0.13847900602304078,0.14513222406223195,-0.006638459051786212,0,0,0,0,0,0,0,4475,6,zmatek,5
10,0.15873015873015872,-14.75134,0.0,96.52637239811865,0,0.13830683920308057,0.13841382660817478,0.1451299049995444,-0.0067012984247668776,1,0,0,0,0,0,0,4476,6,zmatek,5
11,0.1746031746031746,-17.40265,0.0,95.83605962076892,0,0.13835601144063236,0.1384431686170838,0.1451275811437096,-0.006669611792054444,0,0,0,0,0,0,0,4477,6,zmatek,5
12,0.19047619047619047,-19.21735,0.0,95.11439241793452,0,0.1385043420288462,0.13856499463691443,0.1451252524769569,-0.006545436550705315,0,0,0,0,0,0,0,4478,6,zmatek,5
13,0.20634920634920634,-20.89818,0.0,94.36487978053698,0,0.13874110291627267,0.1387747842676811,0.14512291897766144,-0.006333293081062437,0,0,0,0,0,0,0,4479,6,zmatek,5
14,0.2222222222222222,-23.00552,0.0,93.59093374458334,0,0.1390555660514631,0.13906574805439686,0.14512058062041489,-0.0060399708146952604,0,0,0,0,0,0,0,4480,6,zmatek,5
15,0.23809523809523808,-25.76108,0.0,92.79585462741359,0,0.13943700338296774,0.1394291228271371,0.14511823737614662,-0.005674232894457147,0,0,0,0,0,0,0,4481,6,zmatek,5
16,0.25396825396825395,-29.04872,0.0,91.9828188964899,0,0.13987468685933818,0.13985453251021338,0.1451158892122915,-0.005246455365479487,0,0,0,0,0,0,0,4482,6,zmatek,5
17,0.2698412698412698,-32.46622,0.0,91.15486953837416,0,0.1403578884291249,0.14033039627625896,0.1451135360929992,-0.004768219021295356,0,0,0,0,0,0,0,4483,6,zmatek,5
18,0.2857142857142857,-35.6683,0.0,90.31490876770344,0,0.1408758800408783,0.14084436501988762,0.14511117797937922,-0.004251872930425813,0,0,0,0,0,0,0,4484,6,zmatek,5
19,0.30158730158730157,-38.56535,0.0,89.46569289597038,0,0.1414179336431502,0.14138376727811625,0.14510881482977503,-0.003710088516231496,0,0,0,0,0,0,0,4485,6,zmatek,5
20,0.31746031746031744,-41.40067,0.0,88.60982916702085,0,0.14197332118449044,0.14193604665522425,0.14510644660006006,-0.0031554221323491513,0,0,0,0,0,0,0,4486,6,zmatek,5
21,0.3333333333333333,-44.68421,0.0,87.74977435955837,0,0.14253131461345092,0.14248917426784583,0.14510407324394875,-0.002599902617910394,0,0,0,0,0,0,0,4487,6,zmatek,5
22,0.3492063492063492,-49.01621,0.0,86.88783495570242,0,0.14308118587858146,0.14303202153245767,0.14510169471331508,-0.0020546585103725775,0,0,0,0,0,0,0,4488,6,zmatek,5
23,0.36507936507936506,-54.911,0.0,86.02616867789204,0,0.14361220692843393,0.14355468068338545,0.14509931095851183,-0.001529597527831555,0,0,0,0,0,0,0,4489,6,zmatek,5
24,0.38095238095238093,-62.46865,0.0,85.1667872032865,0,0.1441136497115583,0.14404872273164768,0.1450969219286843,-0.0010331486104916449,0,0,0,0,0,0,0,4490,6,zmatek,5
25,0.3968253968253968,-71.12212,0.0,84.31155987447703,0,0.1445747861765062,0.14450738520600168,0.14509452757207278,-0.0005720741799220225,0,0,0,0,0,0,0,4491,6,zmatek,5
26,0.4126984126984127,-79.28469,0.0,83.46221823704822,0,0.14498547946397927,0.14492568501524095,0.14509212783629868,-0.00015135727704556067,0,0,0,0,0,0,0,4492,6,zmatek,5
27,0.42857142857142855,-84.35786,0.0,82.62036124765721,0,0.14534384116473564,0.14530045513154827,0.1450897226686309,0.0002258351209479516,0,0,0,0,0,0,0,4493,6,zmatek,5
28,0.4444444444444444,-83.12291,0.0,81.7874610102652,0,0.14565404017031539,0.14563030738979446,0.14508731201622915,0.000558114899657111,0,0,0,0,0,0,0,4494,6,zmatek,5
29,0.4603174603174603,-72.70684,0.0,80.96486891248375,0,0.14592038519617195,0.1459155272508706,0.1450848958263625,0.0008457675705826955,0,0,0,0,0,0,0,4495,6,zmatek,5
30,0.47619047619047616,-51.65112,0.0,80.15382204829483,0,0.14614718495775988,0.14615790952047455,0.14508247404660235,0.0010905879897211768,0,0,0,0,0,0,0,4496,6,zmatek,5
31,0.49206349206349204,-20.70769,0.0,79.35544982735894,0,0.1463387481705326,0.1463605464074075,0.14508004662499008,0.0012956684156935328,0,0,0,0,0,0,0,4497,6,zmatek,5
32,0.5079365079365079,17.07053,0.0,78.57078068450261,0,0.1464993835499446,0.1465275807443407,0.14507761351017984,0.0014651517303692155,0,0,0,0,0,0,0,4498,6,zmatek,5
33,0.5238095238095237,57.19492,0.0,77.80074881560176,0,0.14663339981144963,0.14666393765406618,0.14507517465155903,0.0016039631049964912,0,0,0,0,0,0,0,4499,6,zmatek,5
34,0.5396825396825397,95.05874,10.575053195964783,77.04620087783302,0,0.1467451056705016,0.1467750475476865,0.14507272999934803,0.0017175329982923226,0,0,0,0,0,0,0,4500,6,zmatek,5
35,0.5555555555555556,127.2072,43.654755193710905,76.30790260308224,0,0.14683880984255468,0.14686657229607247,0.14507027950468232,0.0018115233278179473,0,0,0,0,0,0,0,4501,6,zmatek,5
36,0.5714285714285714,152.0364,70.09482525934477,75.58654528314361,0,0.1469188210430627,0.1469441449560003,0.14506782311968008,0.001891567196048567,0,0,0,0,0,0,0,4502,6,zmatek,5
37,0.5873015873015872,169.7322,89.51672109976955,74.88275209421673,0,0.14698944798747982,0.14701313177081277,0.1450653607974984,0.001963030890978049,0,0,0,0,0,0,0,4503,6,zmatek,5
38,0.6031746031746031,181.6025,102.79233344409076,74.19708423613288,0,0.14705499939125988,0.14707842346427133,0.14506289249238127,0.0020308051799233897,0,0,0,0,0,0,0,4504,6,zmatek,5
39,0.6190476190476191,189.3386,111.5060041537004,73.53004686875973,0,0.14711978396985698,0.14714426120172935,0.14506041815970241,0.0020991312706547345,0,0,0,0,0,0,0,4505,6,zmatek,5
40,0.6349206349206349,194.4621,117.40261881929125,72.88209483420087,0,0.14718811043872504,0.1472141010357676,0.14505793775600595,0.0021714652569904125,0,0,0,0,0,0,0,4506,6,zmatek,5
41,0.6507936507936507,198.1321,121.99497453521009,72.25363815878522,0,0.14726428751331813,0.1472905191638434,0.1450554512390471,0.0022503833764053764,0,0,0,0,0,0,0,4507,6,zmatek,5
42,0.6666666666666666,201.1751,126.3872147760579,71.64504733350415,0,0.1473523965753515,0.1473751588585415,0.14505295856783476,0.002337528940239393,0,0,0,0,0,0,0,4508,6,zmatek,5
43,0.6825396825396826,204.237,131.27011528713604,71.0566583755714,0,0.14745279073347992,0.147468718452689,0.14505045970267794,0.002433600318765641,0,0,0,0,0,0,0,4509,6,zmatek,5
44,0.6984126984126984,207.7894,137.00096046411036,70.48877767722696,0,0.1475627762299963,0.14757097828419924,0.14504795460523642,0.0025383778859837344,0,0,0,0,0,0,0,4510,6,zmatek,5
45,0.7142857142857142,212.135,143.6966849126414,69.94168665085371,0,0.1476795699974422,0.14768086310475867,0.1450454432385766,0.0026507864282510297,0,0,0,0,0,0,0,4511,6,zmatek,5
46,0.7301587301587301,217.4192,151.3138484400813,69.41564618199382,0,0.1478003889683596,0.14779653525222072,0.14504292556723195,0.002768988316615749,0,0,0,0,0,0,0,4512,6,zmatek,5
47,0.746031746031746,223.5727,159.72595119439,68.91090090401053,0,0.14792245007528987,0.14791551299247466,0.14504040155726766,0.0028905018486213353,0,0,0,0,0,0,0,4513,6,zmatek,5
48,0.7619047619047619,230.4416,168.81465198106235,68.42768331000235,0,0.14804297025077504,0.14803480791145335,0.14503787117634873,0.0030123386402461424,0,0,0,0,0,0,0,4514,6,zmatek,5
49,0.7777777777777777,237.8542,178.56656618216357,67.96621771920375,0,0.1481591664273566,0.14815107506900482,0.14503533439380953,0.003131153779705394,0,0,0,0,0,0,0,4515,6,zmatek,5
50,0.7936507936507936,245.7272,189.13114931993601,67.52672411655736,0,0.14826825553757642,0.14826076974513716,0.1450327911807236,0.0032434025736261954,0,0,0,0,0,0,0,4516,6,zmatek,5
51,0.8095238095238095,254.1105,200.7761616571264,67.10942188547111,0,0.14836745451397618,0.14836030492192567,0.14503024150997157,0.0033454980288868605,0,0,0,0,0,0,0,4517,6,zmatek,5
52,0.8253968253968254,263.202,213.6987350660779,66.71453345503633,0,0.14845398028909743,0.1484462040608884,0.14502768535630534,0.0034339636299282263,0,0,0,0,0,0,0,4518,6,zmatek,5
53,0.8412698412698412,273.0889,227.71654470828952,66.34228788422641,0,0.1485250497954821,0.14851524419007478,0.1450251226964063,0.0035055764257840316,0,0,0,0,0,0,0,4519,6,zmatek,5
54,0.8571428571428571,283.3785,241.95095871082412,65.99292440687557,0,0.14857787996567173,0.14856458477803725,0.14502255350893578,0.0035574959040021517,0,0,0,0,0,0,0,4520,6,zmatek,5
55,0.873015873015873,292.722,254.67374962536036,65.66669596259896,0,0.1486096877322082,0.1485918783530175,0.14501997777457581,0.0035873746097899923,0,0,0,0,0,0,0,4521,6,zmatek,5
56,0.8888888888888888,298.758,263.47120548968877,65.36387274031439,0,0.1486176900276331,0.1485953593679556,0.1450173954760586,0.003593447010994248,0,1,0,0,0,0,0,4522,6,zmatek,5
57,0.9047619047619047,298.4938,265.76686777558825,65.08474576271186,1,0.14859910378448815,0.1485739084769605,0.14501480659818336,0.003574593774554522,0,0,0,0,0,0,0,4523,6,zmatek,5
58,0.9206349206349206,289.258,259.5738829182173,64.81781693887152,0,0.148551297415258,0.1485270902352212,0.14501221112781942,0.0035303794664112644,0,0,0,0,0,0,0,4524,6,zmatek,5
59,0.9365079365079365,269.8256,244.20310263923332,64.55149167029474,0,0.1484745906163806,0.1484551632901507,0.14500960905389526,0.003461062742660811,0,0,0,0,0,0,0,4525,6,zmatek,5
60,0.9523809523809523,241.0641,220.6207197757675,64.28593010693416,0,0.14837198562222972,0.14835906336830154,0.1450070003673729,0.0033675793364965406,0,0,0,0,0,0,0,4526,6,zmatek,5
61,0.9682539682539681,205.9223,191.26743883017392,64.02128724049743,0,0.14824658224427617,0.14824036068422403,0.14500438506120783,0.003251499467107137,0,0,0,0,0,0,0,4527,6,zmatek,5
62,0.9841269841269841,168.4495,159.3777656263298,63.75771299675806,0,0.14810148029399028,0.14810119466002736,0.1450017631302952,0.0031149625592913964,0,0,0,0,0,0,0,4528,6,zmatek,5
63,1.0,132.4519,128.06457389516473,63.49535233403139,0,0.14793977958284296,0.14794418990232303,0.14499913457140315,0.0029605932204685164,0,0,0,0,0,0,0,4529,6,zmatek,5
