timestamp,value,norm_ts
1619375525.82501,14.62418,1.0613901615142822
1619375525.84063,4.779877,1.077010154724121
1619375525.85626,-5.04422,1.0926401615142822
1619375525.87188,-13.55621,1.108260154724121
1619375525.88751,-19.44818,1.1238901615142822
1619375525.90313,-21.72916,1.139510154724121
1619375525.91876,-20.03616,1.1551401615142822
1619375525.93439,-14.73358,1.1707701683044434
1619375525.95001,-6.804169,1.1863901615142822
1619375525.96564,2.492859,1.2020201683044434
1619375525.98126,11.9353,1.2176401615142822
1619375525.99689,20.56854,1.2332701683044434
1619375526.01251,27.71552,1.2488901615142822
1619375526.02814,32.97485,1.2645201683044434
1619375526.04377,36.18863,1.2801501750946045
1619375526.05939,37.50681,1.2957701683044434
1619375526.07502,37.37164,1.3114001750946045
1619375526.09064,36.46347,1.3270201683044434
1619375526.10627,35.45337,1.3426501750946045
1619375526.12189,34.72452,1.3582701683044434
1619375526.13752,34.19299,1.3739001750946045
1619375526.15315,33.33316,1.3895301818847656
1619375526.16877,31.46887,1.4051501750946045
1619375526.1844,28.11835,1.4207801818847656
1619375526.20002,23.31085,1.4364001750946045
1619375526.21565,17.70044,1.4520301818847656
1619375526.23127,12.39297,1.4676501750946045
1619375526.2469,8.495575,1.4832801818847656
1619375526.26253,6.751312,1.4989101886749268
1619375526.27815,7.204285,1.5145301818847656
1619375526.29378,9.300049,1.5301601886749268
1619375526.3094,12.12906,1.5457801818847656
1619375526.32503,14.79922,1.5614101886749268
1619375526.34065,16.71658,1.5770301818847656
1619375526.35628,17.63153,1.5926601886749268
1619375526.37191,17.48871,1.608290195465088
1619375526.38753,16.21951,1.6239101886749268
1619375526.40316,13.70135,1.639540195465088
1619375526.41878,9.824005,1.6551601886749268
1619375526.43441,4.61972,1.670790195465088
1619375526.45003,-1.731567,1.6864101886749268
1619375526.46566,-8.957703,1.702040195465088
1619375526.48129,-16.82098,1.717670202255249
1619375526.49691,-25.02661,1.733290195465088
1619375526.51254,-33.00186,1.748920202255249
1619375526.52816,-39.72473,1.764540195465088
1619375526.54379,-43.8129,1.780170202255249
1619375526.55941,-43.90213,1.795790195465088
1619375526.57504,-39.20071,1.811420202255249
1619375526.59067,-29.94214,1.8270502090454102
1619375526.60629,-17.26978,1.842670202255249
1619375526.62192,-2.902344,1.8583002090454102
1619375526.63754,11.50934,1.873920202255249
1619375526.65317,24.84213,1.8895502090454102
1619375526.66879,36.46744,1.905170202255249
1619375526.68442,46.12375,1.9208002090454102
1619375526.70005,53.60315,1.9364302158355713
1619375526.71567,58.75354,1.9520502090454102
1619375526.7313,61.63339,1.9676802158355713
1619375526.74692,62.66934,1.9833002090454102
1619375526.76255,62.60617,1.9989302158355713
1619375526.77817,62.2384,2.01455020904541
1619375526.7938,62.12439,2.0301802158355713
1619375526.80943,62.33643,2.0458099842071533
1619375526.82505,62.57169,2.0614302158355713
1619375526.84068,62.43948,2.0770599842071533
1619375526.8563,61.81058,2.0926802158355713
1619375526.87193,60.92834,2.1083099842071533
1619375526.88755,60.35858,2.1239302158355713
1619375526.90318,60.67441,2.1395599842071533
1619375526.91881,62.06995,2.1551899909973145
1619375526.93443,64.23785,2.1708099842071533
1619375526.95006,66.345,2.1864399909973145
1619375526.96568,67.39127,2.2020599842071533
1619375526.98131,66.59361,2.2176899909973145
1619375526.99693,63.70073,2.2333099842071533
1619375527.01256,59.08968,2.2489399909973145
1619375527.02819,53.71584,2.2645699977874756
1619375527.04381,48.73265,2.2801899909973145
1619375527.05944,45.16505,2.2958199977874756
1619375527.07506,43.61642,2.3114399909973145
1619375527.09069,43.99329,2.3270699977874756
1619375527.10631,45.5293,2.3426899909973145
1619375527.12194,47.01009,2.3583199977874756
1619375527.13757,47.10014,2.3739500045776367
1619375527.15319,44.9265,2.3895699977874756
1619375527.16882,40.45457,2.4052000045776367
1619375527.18444,34.68411,2.4208199977874756
1619375527.20007,29.32248,2.4364500045776367
1619375527.21569,26.23083,2.4520699977874756
1619375527.23132,26.64744,2.4677000045776367
1619375527.24695,30.54041,2.483330011367798
1619375527.26257,36.47805,2.4989500045776367
1619375527.2782,41.77794,2.514580011367798
1619375527.29382,43.40496,2.5302000045776367
1619375527.30945,38.9656,2.545830011367798
1619375527.32507,27.50375,2.5614500045776367
1619375527.3407,9.90317,2.577080011367798
1619375527.35633,-11.38387,2.592710018157959
1619375527.37195,-33.09764,2.608330011367798
1619375527.38758,-52.21799,2.623960018157959
1619375527.4032,-66.73581,2.639580011367798
1619375527.41883,-76.04645,2.655210018157959
1619375527.43445,-80.71842,2.670830011367798
1619375527.45008,-81.98418,2.686460018157959
1619375527.46571,-81.2024,2.70209002494812
1619375527.48133,-79.60159,2.717710018157959
1619375527.49696,-78.18488,2.73334002494812
1619375527.51258,-77.82228,2.748960018157959
1619375527.52821,-79.13744,2.76459002494812
1619375527.54383,-82.39543,2.780210018157959
1619375527.55946,-87.28339,2.79584002494812
1619375527.57509,-92.98792,2.8114700317382812
1619375527.59071,-98.5497,2.82709002494812
1619375527.60634,-103.3639,2.8427200317382812
1619375527.62196,-107.4639,2.85834002494812
1619375527.63759,-111.6024,2.8739700317382812
1619375527.65321,-116.8586,2.88959002494812
1619375527.66884,-124.1527,2.9052200317382812
1619375527.68447,-133.8204,2.9208500385284424
1619375527.70009,-145.4352,2.9364700317382812
1619375527.71572,-157.7622,2.9521000385284424
1619375527.73134,-169.0007,2.9677200317382812
1619375527.74697,-177.0447,2.9833500385284424
1619375527.76259,-179.8124,2.9989700317382812
1619375527.77822,-175.769,3.0146000385284424
1619375527.79385,-164.3937,3.0302300453186035
1619375527.80947,-146.4276,3.0458500385284424
1619375527.8251,-123.7606,3.0614800453186035
1619375527.84072,-98.95738,3.0771000385284424
1619375527.85635,-74.51579,3.0927300453186035
1619375527.87198,-52.19377,3.1083600521087646
1619375527.8876,-32.7336,3.1239800453186035
1619375527.90323,-16.03903,3.1396100521087646
1619375527.91885,-1.665268,3.1552300453186035
1619375527.93448,10.63365,3.1708600521087646
1619375527.9501,20.63579,3.1864800453186035
1619375527.96573,27.74123,3.2021100521087646
1619375527.98136,31.36215,3.217740058898926
1619375527.99698,31.40086,3.2333600521087646
1619375528.01261,28.48915,3.248990058898926
1619375528.02823,23.99922,3.2646100521087646
1619375528.04386,19.51614,3.280240058898926
1619375528.05948,16.33696,3.2958600521087646
1619375528.07511,15.08051,3.311490058898926
1619375528.09074,15.62564,3.327120065689087
1619375528.10636,17.39438,3.342740058898926
1619375528.12199,19.76535,3.358370065689087
1619375528.13761,22.42221,3.373990058898926
1619375528.15324,25.37718,3.389620065689087
1619375528.16886,28.76215,3.405240058898926
1619375528.18449,32.47601,3.420870065689087
1619375528.20012,36.07733,3.436500072479248
1619375528.21574,38.83023,3.452120065689087
1619375528.23137,40.00211,3.467750072479248
1619375528.24699,39.09407,3.483370065689087
1619375528.26262,35.94006,3.499000072479248
1619375528.27824,30.69893,3.514620065689087
1619375528.29387,23.69203,3.530250072479248
1619375528.3095,15.46959,3.545880079269409
1619375528.32512,6.767975,3.561500072479248
1619375528.34075,-1.356361,3.577130079269409
1619375528.35637,-7.688591,3.592750072479248
1619375528.372,-11.10059,3.608380079269409
1619375528.38762,-10.92152,3.624000072479248
1619375528.40325,-7.148041,3.639630079269409
1619375528.41888,-0.5316467,3.6552600860595703
1619375528.4345,7.729218,3.670880079269409
1619375528.45013,16.41011,3.6865100860595703
1619375528.46575,24.55661,3.702130079269409
1619375528.48138,31.68507,3.7177600860595703
1619375528.497,37.58904,3.733380079269409
1619375528.51263,42.05673,3.7490100860595703
1619375528.52826,44.73279,3.7646400928497314
1619375528.54388,45.21452,3.7802600860595703
1619375528.55951,43.26461,3.7958900928497314
1619375528.57513,39.07032,3.8115100860595703
1619375528.59076,33.3029,3.8271400928497314
1619375528.60638,26.91444,3.8427600860595703
1619375528.62201,20.87235,3.8583900928497314
1619375528.63764,15.89167,3.8740200996398926
1619375528.65326,12.32233,3.8896400928497314
1619375528.66889,10.18402,3.9052700996398926
1619375528.68451,9.252495,3.9208900928497314
1619375528.70014,9.131523,3.9365200996398926
1619375528.71576,9.357468,3.9521400928497314
1619375528.73139,9.429291,3.9677700996398926
1619375528.74702,8.892395,3.9834001064300537
1619375528.76264,7.470337,3.9990200996398926
1619375528.77827,5.114334,4.014650106430054
1619375528.79389,1.938225,4.030270099639893
1619375528.80952,-1.844704,4.045900106430054
1619375528.82514,-6.143776,4.061520099639893
1619375528.84077,-11.05701,4.077150106430054
1619375528.8564,-16.78438,4.092780113220215
1619375528.87202,-23.49455,4.108400106430054
1619375528.88765,-31.00738,4.124030113220215
1619375528.90327,-38.58965,4.139650106430054
1619375528.9189,-44.97424,4.155280113220215
1619375528.93452,-48.54761,4.170900106430054
1619375528.95015,-47.74717,4.186530113220215
1619375528.96578,-41.63544,4.202160120010376
1619375528.9814,-30.33256,4.217780113220215
1619375528.99703,-15.14625,4.233410120010376
1619375529.01265,1.673927,4.249030113220215
1619375529.02828,17.51531,4.264660120010376
1619375529.0439,30.15451,4.280280113220215
1619375529.05953,38.32944,4.295910120010376
1619375529.07516,41.94456,4.311540126800537
1619375529.09078,41.88818,4.327160120010376
1619375529.10641,39.46597,4.342790126800537
1619375529.12203,35.83681,4.358410120010376
1619375529.13766,31.60594,4.374040126800537
1619375529.15328,26.76599,4.389660120010376
1619375529.16891,21.00111,4.405290126800537
1619375529.18454,14.16558,4.420920133590698
1619375529.20016,6.538651,4.436540126800537
1619375529.21579,-1.195778,4.452170133590698
1619375529.23141,-8.234177,4.467790126800537
1619375529.24704,-14.10957,4.483420133590698
1619375529.26266,-18.79926,4.499040126800537
1619375529.27829,-22.53664,4.514670133590698
1619375529.29392,-25.40122,4.530300140380859
1619375529.30954,-27.04144,4.545920133590698
1619375529.32517,-26.59243,4.561550140380859
1619375529.34079,-23.22522,4.577170133590698
1619375529.35642,-16.70097,4.592800140380859
1619375529.37204,-7.863815,4.608420133590698
1619375529.38767,1.390015,4.624050140380859
1619375529.4033,8.786606,4.6396801471710205
1619375529.41892,12.43413,4.655300140380859
1619375529.43455,11.47263,4.6709301471710205
1619375529.45017,6.135132,4.686550140380859
1619375529.4658,-2.574646,4.7021801471710205
1619375529.48142,-13.33121,4.717800140380859
1619375529.49705,-24.80286,4.7334301471710205
1619375529.51268,-35.5284,4.749060153961182
1619375529.5283,-43.84506,4.7646801471710205
1619375529.54393,-47.79167,4.780310153961182
1619375529.55955,-45.58574,4.7959301471710205
1619375529.57518,-36.26837,4.811560153961182
1619375529.5908,-20.28778,4.8271801471710205
1619375529.60643,0.3726501,4.842810153961182
1619375529.62206,22.66103,4.858440160751343
1619375529.63768,43.27977,4.874060153961182
1619375529.65331,59.58992,4.889690160751343
1619375529.66893,70.04253,4.905310153961182
1619375529.68456,74.26801,4.920940160751343
1619375529.70018,72.75311,4.936560153961182
1619375529.71581,66.46411,4.952190160751343
1619375529.73144,56.76945,4.967820167541504
1619375529.74706,45.40846,4.983440160751343
1619375529.76269,34.44612,4.999070167541504
1619375529.77831,26.00305,5.014690160751343
1619375529.79394,21.84294,5.030320167541504
1619375529.80956,22.79298,5.045940160751343
1619375529.82519,28.58563,5.061570167541504
1619375529.84082,37.91504,5.077200174331665
1619375529.85644,49.02005,5.092820167541504
1619375529.87207,60.37135,5.108450174331665
1619375529.88769,71.04027,5.124070167541504
1619375529.90332,80.77007,5.139700174331665
1619375529.91894,89.55457,5.155320167541504
1619375529.93457,97.21742,5.170950174331665
1619375529.9502,103.1239,5.186580181121826
1619375529.96582,106.4041,5.202200174331665
1619375529.98145,106.3873,5.217830181121826
1619375529.99707,103.0235,5.233450174331665
1619375530.0127,97.11082,5.249080181121826
1619375530.02833,90.06482,5.264710187911987
1619375530.04395,83.58199,5.280330181121826
1619375530.05958,79.25943,5.295960187911987
1619375530.0752,78.3714,5.311580181121826
1619375530.09083,81.71124,5.327210187911987
1619375530.10645,89.49103,5.342830181121826
1619375530.12208,101.1953,5.358460187911987
1619375530.13771,115.4233,5.374090194702148
1619375530.15333,130.0162,5.389710187911987
1619375530.16896,142.497,5.405340194702148
1619375530.18458,150.897,5.420960187911987
1619375530.20021,154.3708,5.436590194702148
1619375530.21583,153.3442,5.452210187911987
1619375530.23146,148.8278,5.467840194702148
1619375530.24709,141.3849,5.48347020149231
1619375530.26271,130.3126,5.499090194702148
1619375530.27834,113.5652,5.51472020149231
1619375530.29396,88.7865,5.530340194702148
1619375530.30959,54.75006,5.54597020149231
1619375530.32521,12.65118,5.561590194702148
1619375530.34084,-33.76767,5.57722020149231
1619375530.35647,-79.15771,5.592850208282471
1619375530.37209,-118.5497,5.60847020149231
1619375530.38772,-149.034,5.624100208282471
1619375530.40334,-170.5601,5.63972020149231
1619375530.41897,-185.4198,5.655350208282471
1619375530.43459,-196.7611,5.67097020149231
1619375530.45022,-206.9679,5.686600208282471
1619375530.46585,-216.7471,5.702230215072632
1619375530.48147,-225.2892,5.717850208282471
1619375530.4971,-231.2042,5.733480215072632
1619375530.51272,-233.7724,5.749100208282471
1619375530.52835,-233.5079,5.764730215072632
1619375530.54397,-232.0187,5.780350208282471
1619375530.5596,-231.1575,5.795980215072632
1619375530.57523,-232.1617,5.811609983444214
1619375530.59085,-235.2086,5.827230215072632
1619375530.60648,-239.5206,5.842859983444214
1619375530.6221,-243.7973,5.858480215072632
1619375530.63773,-246.6429,5.874109983444214
1619375530.65335,-246.8119,5.889730215072632
1619375530.66898,-243.2609,5.905359983444214
1619375530.68461,-235.1146,5.920989990234375
1619375530.70023,-221.8289,5.936609983444214
1619375530.71586,-203.3956,5.952239990234375
1619375530.73148,-180.4796,5.967859983444214
1619375530.74711,-154.319,5.983489990234375
1619375530.76273,-126.4887,5.999109983444214
1619375530.77836,-98.50397,6.014739990234375
1619375530.79399,-71.71155,6.030369997024536
1619375530.80961,-47.18823,6.045989990234375
1619375530.82524,-25.8208,6.061619997024536
1619375530.84086,-8.347595,6.077239990234375
1619375530.85649,4.822937,6.092869997024536
1619375530.87211,13.7085,6.108489990234375
1619375530.88774,18.85382,6.124119997024536
1619375530.90337,21.19727,6.139750003814697
1619375530.91899,21.88107,6.155369997024536
1619375530.93462,21.92923,6.171000003814697
1619375530.95024,22.14682,6.186619997024536
1619375530.96587,23.0517,6.202250003814697
1619375530.98149,24.86783,6.217869997024536
1619375530.99712,27.64261,6.233500003814697
1619375531.01275,31.28922,6.249130010604858
1619375531.02837,35.64709,6.264750003814697
1619375531.044,40.36575,6.280380010604858
1619375531.05962,44.98154,6.296000003814697
1619375531.07525,48.9635,6.311630010604858
1619375531.09087,51.78473,6.327250003814697
1619375531.1065,52.94623,6.342880010604858
1619375531.12213,52.03864,6.3585100173950195
1619375531.13775,48.7915,6.374130010604858
1619375531.15338,43.13171,6.3897600173950195
1619375531.169,35.32333,6.405380010604858
1619375531.18463,26.10434,6.4210100173950195
1619375531.20025,16.8721,6.436630010604858
1619375531.21588,9.63205,6.4522600173950195
1619375531.23151,6.740082,6.467890024185181
1619375531.24713,10.33282,6.4835100173950195
1619375531.26276,21.517,6.499140024185181
1619375531.27838,39.88495,6.5147600173950195
1619375531.29401,63.23517,6.530390024185181
1619375531.30963,88.10806,6.5460100173950195
1619375531.32526,110.571,6.561640024185181
1619375531.34089,127.3893,6.577270030975342
1619375531.35651,136.8178,6.592890024185181
1619375531.37214,138.7749,6.608520030975342
1619375531.38776,134.5225,6.624140024185181
1619375531.40339,125.902,6.639770030975342
1619375531.41901,114.629,6.655390024185181
1619375531.43464,101.8882,6.671020030975342
1619375531.45027,88.54648,6.686650037765503
1619375531.46589,75.38147,6.702270030975342
1619375531.48152,63.40463,6.717900037765503
1619375531.49714,53.70667,6.733520030975342
1619375531.51277,47.02435,6.749150037765503
1619375531.52839,43.38477,6.764770030975342
1619375531.54402,41.97162,6.780400037765503
1619375531.55965,41.49762,6.796030044555664
1619375531.57527,40.75278,6.811650037765503
1619375531.5909,39.19894,6.827280044555664
1619375531.60652,37.00082,6.842900037765503
1619375531.62215,34.78656,6.858530044555664
1619375531.63777,33.16763,6.874150037765503
1619375531.6534,32.3222,6.889780044555664
1619375531.66903,32.07724,6.905410051345825
1619375531.68465,32.1532,6.921030044555664
1619375531.70028,32.42014,6.936660051345825
1619375531.7159,32.81223,6.952280044555664
1619375531.73153,33.00314,6.967910051345825
1619375531.74715,32.19385,6.983530044555664
1619375531.76278,29.10428,6.999160051345825
1619375531.77841,22.62036,7.014790058135986
1619375531.79403,12.49963,7.030410051345825
1619375531.80966,-0.05325317,7.046040058135986
1619375531.82528,-12.62939,7.061660051345825
1619375531.84091,-22.46323,7.077290058135986
1619375531.85653,-27.54935,7.092910051345825
1619375531.87216,-27.4942,7.108540058135986
1619375531.88779,-23.56818,7.1241700649261475
1619375531.90341,-18.10233,7.139790058135986
1619375531.91904,-13.5329,7.1554200649261475
1619375531.93466,-11.67062,7.171040058135986
1619375531.95029,-13.33191,7.1866700649261475
1619375531.96591,-18.55707,7.202290058135986
1619375531.98154,-26.97867,7.2179200649261475
1619375531.99717,-38.11194,7.233550071716309
1619375532.01279,-51.42166,7.2491700649261475
1619375532.02842,-66.26883,7.264800071716309
1619375532.04404,-81.79266,7.2804200649261475
1619375532.05967,-96.8627,7.296050071716309
1619375532.07529,-110.0983,7.3116700649261475
1619375532.09092,-119.9691,7.327300071716309
1619375532.10655,-125.0814,7.34293007850647
1619375532.12217,-124.4469,7.358550071716309
1619375532.1378,-117.8027,7.37418007850647
1619375532.15342,-105.7723,7.389800071716309
1619375532.16905,-89.72495,7.40543007850647
1619375532.18467,-71.45874,7.421050071716309
1619375532.2003,-52.73315,7.43668007850647
1619375532.21593,-34.92209,7.452310085296631
1619375532.23155,-18.90903,7.46793007850647
1619375532.24718,-5.147064,7.483560085296631
1619375532.2628,6.055237,7.49918007850647
1619375532.27843,14.37799,7.514810085296631
1619375532.29405,19.47101,7.53043007850647
1619375532.30968,21.05853,7.546060085296631
1619375532.32531,19.10083,7.561690092086792
1619375532.34093,13.90625,7.577310085296631
1619375532.35656,6.23468,7.592940092086792
1619375532.37218,-2.686859,7.608560085296631
1619375532.38781,-11.15848,7.624190092086792
1619375532.40343,-17.24524,7.639810085296631
1619375532.41906,-19.23874,7.655440092086792
1619375532.43469,-16.21838,7.671070098876953
1619375532.45031,-8.39743,7.686690092086792
1619375532.46594,2.847961,7.702320098876953
1619375532.48156,15.48596,7.717940092086792
1619375532.49719,27.54834,7.733570098876953
1619375532.51282,37.69919,7.749200105667114
1619375532.52844,45.50989,7.764820098876953
1619375532.54407,51.21765,7.780450105667114
1619375532.55969,55.19504,7.796070098876953
1619375532.57532,57.58945,7.811700105667114
1619375532.59094,58.17587,7.827320098876953
1619375532.60657,56.63614,7.842950105667114
1619375532.6222,52.91422,7.858580112457275
1619375532.63782,47.37726,7.874200105667114
1619375532.65345,40.81451,7.889830112457275
1619375532.66907,34.13394,7.905450105667114
1619375532.6847,28.12625,7.921080112457275
1619375532.70032,23.26028,7.936700105667114
1619375532.71595,19.69583,7.952330112457275
1619375532.73158,17.25577,7.9679601192474365
1619375532.7472,15.57471,7.983580112457275
1619375532.76283,14.17877,7.9992101192474365
1619375532.77845,12.57687,8.014830112457275
1619375532.79408,10.37836,8.030460119247437
1619375532.8097,7.364136,8.046080112457275
1619375532.82533,3.512665,8.061710119247437
1619375532.84096,-1.126617,8.077340126037598
1619375532.85658,-6.556274,8.092960119247437
1619375532.87221,-13.00723,8.108590126037598
1619375532.88783,-20.84161,8.124210119247437
1619375532.90346,-30.36023,8.139840126037598
1619375532.91908,-41.61153,8.155460119247437
1619375532.93471,-54.22694,8.171090126037598
1619375532.95034,-67.37929,8.186720132827759
1619375532.96596,-79.84732,8.202340126037598
1619375532.98159,-90.12302,8.217970132827759
1619375532.99721,-96.53191,8.233590126037598
1619375533.01284,-97.45848,8.249220132827759
1619375533.02846,-91.74232,8.264840126037598
1619375533.04409,-79.10634,8.280470132827759
1619375533.05972,-60.50314,8.29610013961792
1619375533.07534,-38.05136,8.311720132827759
1619375533.09097,-14.54437,8.32735013961792
1619375533.10659,7.320236,8.342970132827759
1619375533.12222,25.62697,8.35860013961792
1619375533.13784,39.48808,8.374220132827759
1619375533.15347,48.89784,8.38985013961792
1619375533.1691,54.28925,8.405480146408081
1619375533.18472,56.16089,8.42110013961792
1619375533.20035,54.92685,8.436730146408081
1619375533.21597,51.06134,8.45235013961792
1619375533.2316,45.21727,8.467980146408081
1619375533.24722,38.2619,8.48360013961792
1619375533.26285,31.17413,8.499230146408081
1619375533.27848,24.70821,8.514860153198242
1619375533.2941,19.2776,8.530480146408081
1619375533.30973,14.86067,8.546110153198242
1619375533.32535,11.14687,8.561730146408081
1619375533.34098,7.733002,8.577360153198242
1619375533.3566,4.34285,8.592980146408081
1619375533.37223,0.9087677,8.608610153198242
1619375533.38786,-2.451523,8.624240159988403
1619375533.40348,-5.49408,8.639860153198242
1619375533.41911,-8.049454,8.655490159988403
1619375533.43473,-10.07155,8.671110153198242
1619375533.45036,-11.71019,8.686740159988403
1619375533.46598,-13.24944,8.702360153198242
1619375533.48161,-15.00844,8.717990159988403
1619375533.49724,-17.33488,8.733620166778564
1619375533.51286,-20.57582,8.749240159988403
1619375533.52849,-25.07378,8.764870166778564
1619375533.54411,-30.99232,8.780490159988403
1619375533.55974,-38.07964,8.796120166778564
1619375533.57536,-45.35741,8.811740159988403
1619375533.59099,-51.19827,8.827370166778564
1619375533.60662,-53.69551,8.843000173568726
1619375533.62224,-51.32762,8.858620166778564
1619375533.63787,-43.61746,8.874250173568726
1619375533.65349,-31.4035,8.889870166778564
1619375533.66912,-16.55957,8.905500173568726
1619375533.68474,-1.382835,8.921120166778564
1619375533.70037,12.18252,8.936750173568726
1619375533.716,23.04967,8.952380180358887
1619375533.73162,31.02541,8.968000173568726
1619375533.74725,36.42117,8.983630180358887
1619375533.76287,39.68349,8.999250173568726
1619375533.7785,40.9481,9.014880180358887
1619375533.79412,40.21135,9.030500173568726
1619375533.80975,37.60516,9.046130180358887
1619375533.82538,33.78728,9.061760187149048
1619375533.841,29.99584,9.077380180358887
1619375533.85663,27.77453,9.093010187149048
1619375533.87225,28.34221,9.108630180358887
1619375533.88788,32.02868,9.124260187149048
1619375533.9035,38.10509,9.139880180358887
1619375533.91913,44.93161,9.155510187149048
1619375533.93476,50.7543,9.171140193939209
1619375533.95038,54.33162,9.186760187149048
1619375533.96601,55.3394,9.202390193939209
1619375533.98163,54.2766,9.218010187149048
1619375533.99726,52.03151,9.233640193939209
1619375534.01288,49.28286,9.249260187149048
1619375534.02851,46.19316,9.264890193939209
1619375534.04414,42.4584,9.28052020072937
1619375534.05976,37.50449,9.296140193939209
1619375534.07539,30.89995,9.31177020072937
1619375534.09101,22.4463,9.327390193939209
1619375534.10664,12.30738,9.34302020072937
1619375534.12226,0.9875717,9.358640193939209
1619375534.13789,-10.6204,9.37427020072937
1619375534.15352,-21.21969,9.389900207519531
1619375534.16914,-29.1531,9.40552020072937
1619375534.18477,-32.69208,9.421150207519531
1619375534.20039,-30.59822,9.43677020072937
1619375534.21602,-22.57951,9.452400207519531
1619375534.23164,-9.66925,9.46802020072937
1619375534.24727,5.973797,9.483650207519531
1619375534.2629,21.69094,9.499280214309692
1619375534.27852,35.10912,9.514900207519531
1619375534.29415,44.77365,9.530530214309692
1619375534.30977,50.33003,9.546150207519531
1619375534.3254,52.3111,9.561780214309692
1619375534.34102,51.5851,9.577400207519531
1619375534.35665,48.97908,9.593030214309692
1619375534.37228,45.0582,9.608659982681274
1619375534.3879,40.10182,9.624280214309692
1619375534.40353,34.26041,9.639909982681274
1619375534.41915,27.69225,9.655530214309692
1619375534.43478,20.61104,9.671159982681274
1619375534.4504,13.24088,9.686780214309692
1619375534.46603,5.855,9.702409982681274
1619375534.48166,-1.361301,9.718039989471436
1619375534.49728,-8.309319,9.733659982681274
1619375534.51291,-15.03752,9.749289989471436
1619375534.52853,-21.77511,9.764909982681274
1619375534.54416,-28.71036,9.780539989471436
1619375534.55978,-35.89304,9.796159982681274
1619375534.57541,-42.91653,9.811789989471436
1619375534.59104,-49.0639,9.827419996261597
1619375534.60666,-53.42772,9.843039989471436
1619375534.62229,-55.36758,9.858669996261597
1619375534.63791,-54.79906,9.874289989471436
1619375534.65354,-52.30513,9.889919996261597
1619375534.66916,-49.00042,9.905539989471436
1619375534.68479,-46.1518,9.921169996261597
1619375534.70042,-44.85046,9.936800003051758
1619375534.71604,-45.60535,9.952419996261597
1619375534.73167,-48.19144,9.968050003051758
1619375534.74729,-51.50947,9.983669996261597
1619375534.76292,-53.83802,9.999300003051758
1619375534.77854,-53.19573,10.014919996261597
1619375534.79417,-48.02398,10.030550003051758
1619375534.8098,-37.75587,10.046180009841919
1619375534.82542,-23.16864,10.061800003051758
1619375534.84105,-6.266331,10.077430009841919
1619375534.85667,10.40138,10.093050003051758
1619375534.8723,24.52839,10.108680009841919
1619375534.88792,34.76105,10.124300003051758
1619375534.90355,40.81696,10.139930009841919
1619375534.91918,43.24402,10.15556001663208
1619375534.9348,42.8857,10.171180009841919
1619375534.95043,40.46867,10.18681001663208
1619375534.96605,36.53302,10.202430009841919
1619375534.98168,31.51799,10.21806001663208
1619375534.99731,25.96997,10.233690023422241
1619375535.01293,20.51331,10.24931001663208
1619375535.02856,15.75977,10.264940023422241
1619375535.04418,12.02572,10.28056001663208
1619375535.05981,9.307095,10.296190023422241
1619375535.07543,7.384621,10.31181001663208
1619375535.09106,5.998154,10.327440023422241
1619375535.10669,5.088848,10.343070030212402
1619375535.12231,4.758968,10.358690023422241
1619375535.13794,5.147755,10.374320030212402
1619375535.15356,6.220005,10.389940023422241
1619375535.16919,7.662159,10.405570030212402
1619375535.18481,8.89299,10.421190023422241
1619375535.20044,9.307438,10.436820030212402
1619375535.21607,8.509949,10.452450037002563
1619375535.23169,6.393307,10.468070030212402
1619375535.24732,3.195778,10.483700037002563
1619375535.26294,-0.7212486,10.499320030212402
1619375535.27857,-5.029942,10.514950037002563
1619375535.29419,-9.606791,10.530570030212402
1619375535.30982,-14.48847,10.546200037002563
1619375535.32545,-19.84408,10.561830043792725
1619375535.34107,-25.78794,10.577450037002563
1619375535.3567,-32.2522,10.593080043792725
1619375535.37232,-38.87099,10.608700037002563
1619375535.38795,-44.90196,10.624330043792725
1619375535.40357,-49.22204,10.639950037002563
1619375535.4192,-50.45998,10.655580043792725
1619375535.43483,-47.35335,10.671210050582886
1619375535.45045,-39.20292,10.686830043792725
1619375535.46608,-26.2903,10.702460050582886
1619375535.4817,-9.966887,10.718080043792725
1619375535.49733,7.561382,10.733710050582886
1619375535.51295,23.86514,10.749330043792725
1619375535.52858,36.88395,10.764960050582886
1619375535.54421,45.42631,10.780590057373047
1619375535.55983,49.32475,10.796210050582886
1619375535.57546,49.23753,10.811840057373047
1619375535.59108,46.26076,10.827460050582886
1619375535.60671,41.54646,10.843090057373047
1619375535.62233,36.06354,10.858710050582886
1619375535.63796,30.4509,10.874340057373047
1619375535.65359,25.13656,10.889970064163208
1619375535.66921,20.32938,10.905590057373047
1619375535.68484,16.12471,10.921220064163208
1619375535.70046,12.56244,10.936840057373047
1619375535.71609,9.661982,10.952470064163208
1619375535.73171,7.394909,10.968090057373047
1619375535.74734,5.693191,10.983720064163208
1619375535.76297,4.555033,10.99935007095337
1619375535.77859,4.005901,11.014970064163208
1619375535.79422,4.128642,11.03060007095337
1619375535.80984,4.86782,11.046220064163208
1619375535.82547,5.923441,11.06185007095337
1619375535.84109,6.710549,11.077470064163208
1619375535.85672,6.470273,11.09310007095337
1619375535.87235,4.615201,11.10873007774353
1619375535.88797,0.9452887,11.12435007095337
1619375535.9036,-4.186563,11.13998007774353
1619375535.91922,-9.97993,11.15560007095337
1619375535.93485,-15.49224,11.17123007774353
1619375535.95047,-20.03779,11.18685007095337
1619375535.9661,-23.41156,11.20248007774353
1619375535.98173,-25.9525,11.218110084533691
1619375535.99735,-28.45857,11.23373007774353
1619375536.01298,-31.812,11.249360084533691
1619375536.0286,-36.62919,11.26498007774353
1619375536.04423,-42.90585,11.280610084533691
1619375536.05985,-49.79294,11.29623007774353
1619375536.07548,-55.59016,11.311860084533691
1619375536.09111,-58.2198,11.327490091323853
1619375536.10673,-55.84769,11.343110084533691
1619375536.12236,-47.60678,11.358740091323853
1619375536.13798,-34.05096,11.374360084533691
1619375536.15361,-17.01553,11.389990091323853
1619375536.16923,0.9470806,11.405610084533691
1619375536.18486,17.34983,11.421240091323853
1619375536.20049,30.41225,11.436870098114014
1619375536.21611,39.43175,11.452490091323853
1619375536.23174,44.52977,11.468120098114014
1619375536.24736,46.34285,11.483740091323853
1619375536.26299,45.56789,11.499370098114014
1619375536.27861,42.75927,11.514990091323853
1619375536.29424,38.42056,11.530620098114014
1619375536.30987,33.10884,11.546250104904175
1619375536.32549,27.5113,11.561870098114014
1619375536.34112,22.3352,11.577500104904175
1619375536.35674,18.14862,11.593120098114014
1619375536.37237,15.20145,11.608750104904175
1619375536.38799,13.38632,11.624370098114014
1619375536.40362,12.4153,11.640000104904175
1619375536.41925,11.98144,11.655630111694336
1619375536.43487,11.95204,11.671250104904175
1619375536.4505,12.32723,11.686880111694336
1619375536.46612,13.08564,11.702500104904175
1619375536.48175,13.9993,11.718130111694336
1619375536.49737,14.63642,11.733750104904175
1619375536.513,14.46604,11.749380111694336
1619375536.52863,13.12313,11.765010118484497
1619375536.54425,10.5887,11.780630111694336
1619375536.55988,7.213238,11.796260118484497
1619375536.5755,3.55241,11.811880111694336
1619375536.59113,0.08557129,11.827510118484497
1619375536.60675,-2.982365,11.843130111694336
1619375536.62238,-5.790211,11.858760118484497
1619375536.63801,-8.727337,11.874390125274658
1619375536.65363,-12.27775,11.890010118484497
1619375536.66926,-16.87666,11.905640125274658
1619375536.68488,-22.72695,11.921260118484497
1619375536.70051,-29.81565,11.936890125274658
1619375536.71613,-37.73611,11.952510118484497
1619375536.73176,-45.62741,11.968140125274658
1619375536.74739,-52.15036,11.98377013206482
1619375536.76301,-55.64648,11.999390125274658
1619375536.77864,-54.51173,12.01502013206482
1619375536.79426,-47.6962,12.030640125274658
1619375536.80989,-35.1688,12.04627013206482
1619375536.82551,-18.09477,12.061890125274658
1619375536.84114,1.352791,12.07752013206482
1619375536.85677,20.55741,12.09315013885498
1619375536.87239,37.1886,12.10877013206482
1619375536.88802,49.74112,12.12440013885498
1619375536.90364,57.76237,12.14002013206482
1619375536.91927,61.68174,12.15565013885498
1619375536.93489,62.44287,12.17127013206482
1619375536.95052,61.12568,12.18690013885498
1619375536.96615,58.6684,12.202530145645142
1619375536.98177,55.79579,12.21815013885498
1619375536.9974,53.02729,12.233780145645142
1619375537.01302,50.7182,12.24940013885498
1619375537.02865,49.06344,12.265030145645142
1619375537.04427,48.00916,12.28065013885498
1619375537.0599,47.26089,12.296280145645142
1619375537.07553,46.36811,12.311910152435303
1619375537.09115,44.98357,12.327530145645142
1619375537.10678,43.05792,12.343160152435303
1619375537.1224,41.01096,12.358780145645142
1619375537.13803,39.64939,12.374410152435303
1619375537.15366,39.94873,12.390040159225464
1619375537.16928,42.58931,12.405660152435303
1619375537.18491,47.49465,12.421290159225464
1619375537.20053,53.65035,12.436910152435303
1619375537.21616,59.23407,12.452540159225464
1619375537.23178,62.2193,12.468160152435303
1619375537.24741,61.12672,12.483790159225464
1619375537.26304,55.65866,12.499420166015625
1619375537.27866,46.8448,12.515040159225464
1619375537.29429,36.6877,12.530670166015625
1619375537.30991,27.40104,12.546290159225464
1619375537.32554,20.59514,12.561920166015625
1619375537.34116,16.79937,12.577540159225464
1619375537.35679,15.35612,12.593170166015625
1619375537.37242,14.79758,12.608800172805786
1619375537.38804,13.51131,12.624420166015625
1619375537.40367,10.36909,12.640050172805786
1619375537.41929,5.187096,12.655670166015625
1619375537.43492,-1.095394,12.671300172805786
1619375537.45054,-6.611553,12.686920166015625
1619375537.46617,-9.240288,12.702550172805786
1619375537.4818,-7.312206,12.718180179595947
1619375537.49742,-0.4112625,12.733800172805786
1619375537.51305,10.43305,12.749430179595947
1619375537.52867,22.98037,12.765050172805786
1619375537.5443,34.61166,12.780680179595947
1619375537.55992,43.23154,12.796300172805786
1619375537.57555,47.7957,12.811930179595947
1619375537.59118,48.40058,12.827560186386108
1619375537.6068,45.84197,12.843180179595947
1619375537.62243,40.99845,12.858810186386108
1619375537.63805,34.40397,12.874430179595947
1619375537.65368,26.19283,12.890060186386108
1619375537.6693,16.44007,12.905680179595947
1619375537.68493,5.465744,12.921310186386108
1619375537.70056,-5.996567,12.93694019317627
1619375537.71618,-16.97653,12.952560186386108
1619375537.73181,-26.61743,12.96819019317627
1619375537.74743,-34.48829,12.983810186386108
1619375537.76306,-40.68147,12.99944019317627
1619375537.77868,-45.68884,13.015060186386108
1619375537.79431,-50.14537,13.03069019317627
1619375537.80994,-54.51538,13.04632019996643
1619375537.82556,-58.93272,13.06194019317627
1619375537.84119,-63.256,13.07757019996643
1619375537.85681,-67.22499,13.09319019317627
1619375537.87244,-70.79674,13.10882019996643
1619375537.88806,-74.32524,13.12444019317627
1619375537.90369,-78.58311,13.14007019996643
1619375537.91932,-84.50604,13.155700206756592
1619375537.93494,-92.8243,13.17132019996643
1619375537.95057,-103.6697,13.186950206756592
1619375537.96619,-116.4555,13.20257019996643
1619375537.98182,-130.0234,13.218200206756592
1619375537.99744,-143.1123,13.23382019996643
1619375538.01307,-154.6534,13.249450206756592
1619375538.0287,-164.0054,13.265080213546753
1619375538.04432,-170.8247,13.280700206756592
1619375538.05995,-174.769,13.296330213546753
1619375538.07557,-175.4328,13.311950206756592
1619375538.0912,-172.4266,13.327580213546753
1619375538.10682,-165.7004,13.343200206756592
1619375538.12245,-155.8633,13.358830213546753
1619375538.13808,-144.1277,13.374459981918335
1619375538.1537,-131.8562,13.390080213546753
1619375538.16933,-119.9272,13.405709981918335
1619375538.18495,-108.1658,13.421330213546753
1619375538.20058,-95.41956,13.436959981918335
1619375538.2162,-80.04755,13.452580213546753
1619375538.23183,-60.75517,13.468209981918335
1619375538.24746,-37.36765,13.483839988708496
1619375538.26308,-11.07867,13.499459981918335
1619375538.27871,15.93079,13.515089988708496
1619375538.29433,41.20474,13.530709981918335
1619375538.30996,62.80734,13.546339988708496
1619375538.32558,79.81063,13.561959981918335
1619375538.34121,92.2421,13.577589988708496
1619375538.35684,100.7346,13.593219995498657
1619375538.37246,106.0426,13.608839988708496
1619375538.38809,108.6751,13.624469995498657
1619375538.40371,108.8025,13.640089988708496
1619375538.41934,106.4199,13.655719995498657
1619375538.43496,101.6326,13.671339988708496
1619375538.45059,94.79022,13.686969995498657
1619375538.46622,86.52074,13.702600002288818
1619375538.48184,77.63175,13.718219995498657
1619375538.49747,68.87723,13.733850002288818
1619375538.51309,60.8717,13.749469995498657
1619375538.52872,54.01831,13.765100002288818
1619375538.54434,48.52147,13.780719995498657
1619375538.55997,44.46545,13.796350002288818
1619375538.5756,41.75642,13.81198000907898
1619375538.59122,40.19422,13.827600002288818
1619375538.60685,39.53986,13.84323000907898
1619375538.62247,39.57603,13.858850002288818
1619375538.6381,40.17577,13.87448000907898
1619375538.65372,41.29555,13.890100002288818
1619375538.66935,42.72328,13.90573000907898
1619375538.68498,44.12588,13.92136001586914
1619375538.7006,44.94962,13.93698000907898
1619375538.71623,44.57285,13.95261001586914
1619375538.73185,42.5695,13.96823000907898
1619375538.74748,38.92456,13.98386001586914
1619375538.7631,33.97621,13.99948000907898
1619375538.77873,28.26164,14.01511001586914
1619375538.79436,22.32529,14.030740022659302
1619375538.80998,16.41412,14.04636001586914
1619375538.82561,10.50595,14.061990022659302
1619375538.84123,4.364105,14.07761001586914
1619375538.85686,-2.427378,14.093240022659302
1619375538.87248,-10.31445,14.10886001586914
1619375538.88811,-19.68791,14.124490022659302
1619375538.90374,-30.63955,14.140120029449463
1619375538.91936,-42.67051,14.155740022659302
1619375538.93499,-54.47461,14.171370029449463
1619375538.95061,-64.04113,14.186990022659302
1619375538.96624,-69.05239,14.202620029449463
1619375538.98186,-67.64598,14.218240022659302
1619375538.99749,-59.06006,14.233870029449463
1619375539.01312,-44.07648,14.249500036239624
1619375539.02874,-24.89295,14.265120029449463
1619375539.04437,-4.50518,14.280750036239624
1619375539.05999,14.13527,14.296370029449463
1619375539.07562,28.94368,14.312000036239624
1619375539.09124,39.00291,14.327620029449463
1619375539.10687,44.53077,14.343250036239624
1619375539.1225,46.36129,14.358880043029785
1619375539.13812,45.43956,14.374500036239624
1619375539.15375,42.50832,14.390130043029785
1619375539.16937,38.0075,14.405750036239624
1619375539.185,32.35752,14.421380043029785
1619375539.20062,26.11774,14.437000036239624
1619375539.21625,20.09908,14.452630043029785
1619375539.23188,15.16755,14.468260049819946
1619375539.2475,11.96359,14.483880043029785
1619375539.26313,10.63848,14.499510049819946
1619375539.27875,10.79365,14.515130043029785
1619375539.29438,11.74313,14.530760049819946
1619375539.31,12.78926,14.546380043029785
1619375539.32563,13.505,14.562010049819946
1619375539.34126,13.83792,14.577640056610107
1619375539.35688,13.96933,14.593260049819946
1619375539.37251,14.08206,14.608890056610107
1619375539.38813,14.18068,14.624510049819946
1619375539.40376,13.98895,14.640140056610107
1619375539.41938,13.05555,14.655760049819946
1619375539.43501,10.97352,14.671390056610107
1619375539.45064,7.578395,14.687020063400269
1619375539.46626,3.092947,14.702640056610107
1619375539.48189,-1.894534,14.718270063400269
1619375539.49751,-6.641956,14.733890056610107
1619375539.51314,-10.46955,14.749520063400269
1619375539.52876,-13.07392,14.765140056610107
1619375539.54439,-14.6416,14.780770063400269
1619375539.56002,-15.75645,14.79640007019043
1619375539.57564,-17.18941,14.812020063400269
1619375539.59127,-19.67145,14.82765007019043
1619375539.60689,-23.67137,14.843270063400269
1619375539.62252,-29.21548,14.85890007019043
1619375539.63814,-35.89256,14.874520063400269
1619375539.65377,-42.70888,14.89015007019043
1619375539.6694,-48.11621,14.90578007698059
1619375539.68502,-50.25604,14.92140007019043
1619375539.70065,-47.38246,14.93703007698059
1619375539.71627,-38.42044,14.95265007019043
1619375539.7319,-23.47959,14.96828007698059
1619375539.74752,-3.935833,14.98390007019043
1619375539.76315,17.90643,14.99953007698059
1619375539.77878,39.4204,15.015160083770752
1619375539.7944,58.48634,15.03078007698059
1619375539.81003,73.88323,15.046410083770752
1619375539.82565,85.36316,15.06203007698059
1619375539.84128,93.3905,15.077660083770752
1619375539.85691,98.74547,15.093290090560913
1619375539.87253,102.179,15.108910083770752
1619375539.88816,104.3172,15.124540090560913
1619375539.90378,105.6937,15.140160083770752
1619375539.91941,106.8043,15.155790090560913
1619375539.93503,108.145,15.171410083770752
1619375539.95066,110.1356,15.187040090560913
1619375539.96629,113.012,15.202670097351074
1619375539.98191,116.7974,15.218290090560913
1619375539.99754,121.3857,15.233920097351074
1619375540.01316,126.6642,15.249540090560913
1619375540.02879,132.6955,15.265170097351074
1619375540.04441,139.6724,15.280790090560913
1619375540.06004,147.8065,15.296420097351074
1619375540.07567,157.1771,15.312050104141235
1619375540.09129,167.5663,15.327670097351074
1619375540.10692,178.4626,15.343300104141235
1619375540.12254,189.2343,15.358920097351074
1619375540.13817,199.1861,15.374550104141235
1619375540.15379,207.6258,15.390170097351074
1619375540.16942,213.8814,15.405800104141235
1619375540.18505,217.3814,15.421430110931396
1619375540.20067,217.8526,15.437050104141235
1619375540.2163,215.5683,15.452680110931396
1619375540.23192,211.2097,15.468300104141235
1619375540.24755,205.4215,15.483930110931396
1619375540.26317,198.2599,15.499550104141235
1619375540.2788,188.8316,15.515180110931396
1619375540.29443,175.5955,15.530810117721558
1619375540.31005,157.2201,15.546430110931396
1619375540.32568,133.537,15.562060117721558
1619375540.3413,105.9672,15.577680110931396
1619375540.35693,77.2753,15.593310117721558
1619375540.37255,50.44583,15.608930110931396
1619375540.38818,27.53497,15.624560117721558
1619375540.40381,9.043152,15.640190124511719
1619375540.41943,-5.84848,15.655810117721558
1619375540.43506,-18.48627,15.671440124511719
1619375540.45068,-29.77518,15.687060117721558
1619375540.46631,-39.71643,15.702690124511719
1619375540.48193,-47.60663,15.718310117721558
1619375540.49756,-52.55493,15.733940124511719
1619375540.51319,-54.20111,15.74957013130188
1619375540.52881,-53.0199,15.765190124511719
1619375540.54444,-50.24536,15.78082013130188
1619375540.56006,-47.37659,15.796440124511719
1619375540.57569,-45.64374,15.81207013130188
1619375540.59131,-45.50916,15.827690124511719
1619375540.60694,-46.60254,15.84332013130188
1619375540.62257,-48.00037,15.858950138092041
1619375540.63819,-48.69751,15.87457013130188
1619375540.65382,-48.27948,15.890200138092041
1619375540.66944,-47.17432,15.90582013130188
1619375540.68507,-46.54016,15.921450138092041
1619375540.70069,-47.80237,15.93707013130188
1619375540.71632,-51.89313,15.952700138092041
1619375540.73195,-58.68781,15.968330144882202
1619375540.74757,-66.93207,15.983950138092041
1619375540.7632,-74.8446,15.999580144882202
1619375540.77882,-80.83136,16.01520013809204
1619375540.79445,-84.34973,16.030830144882202
1619375540.81007,-86.30847,16.04645013809204
1619375540.8257,-88.7724,16.062080144882202
1619375540.84133,-94.47314,16.077710151672363
1619375540.85695,-106.2228,16.093330144882202
1619375540.87258,-126.6305,16.108960151672363
1619375540.8882,-157.6919,16.124580144882202
1619375540.90383,-200.0763,16.140210151672363
1619375540.91945,-251.9089,16.155830144882202
1619375540.93508,-307.9387,16.171460151672363
1619375540.95071,-359.9021,16.187090158462524
1619375540.96633,-398.4717,16.202710151672363
1619375540.98196,-416.5115,16.218340158462524
1619375540.99758,-411.8463,16.233960151672363
1619375541.01321,-388.2274,16.249590158462524
1619375541.02883,-353.7205,16.265210151672363
1619375541.04446,-317.3833,16.280840158462524
1619375541.06009,-285.8475,16.296470165252686
1619375541.07571,-261.7206,16.312090158462524
1619375541.09134,-244.2927,16.327720165252686
1619375541.10696,-231.5573,16.343340158462524
1619375541.12259,-222.1841,16.358970165252686
1619375541.13821,-215.9197,16.374590158462524
1619375541.15384,-212.6029,16.390220165252686
1619375541.16947,-210.7429,16.405850172042847
1619375541.18509,-206.9186,16.421470165252686
1619375541.20072,-196.6466,16.437100172042847
1619375541.21634,-176.1592,16.452720165252686
1619375541.23197,-144.0215,16.468350172042847
1619375541.24759,-101.5834,16.483970165252686
1619375541.26322,-52.65967,16.499600172042847
1619375541.27885,-2.028442,16.515230178833008
1619375541.29447,45.896,16.530850172042847
1619375541.3101,87.9469,16.546480178833008
1619375541.32572,122.4781,16.562100172042847
1619375541.34135,149.0332,16.577730178833008
1619375541.35697,167.9333,16.593350172042847
1619375541.3726,179.8219,16.608980178833008
1619375541.38823,185.4839,16.62461018562317
1619375541.40385,185.7349,16.640230178833008
1619375541.41948,181.5297,16.65586018562317
1619375541.4351,173.984,16.671480178833008
1619375541.45073,164.3284,16.68711018562317
1619375541.46635,153.7178,16.702730178833008
1619375541.48198,142.9189,16.71836018562317
1619375541.49761,132.1555,16.73399019241333
1619375541.51323,121.2213,16.74961018562317
1619375541.52886,109.7955,16.76524019241333
1619375541.54448,97.83411,16.78086018562317
1619375541.56011,85.75122,16.79649019241333
1619375541.57573,74.23474,16.81211018562317
1619375541.59136,63.66528,16.82774019241333
1619375541.60699,53.71594,16.84337019920349
1619375541.62261,43.30896,16.85899019241333
1619375541.63824,31.12317,16.87462019920349
1619375541.65386,16.25867,16.89024019241333
1619375541.66949,-1.21228,16.90587019920349
1619375541.68511,-20.28601,16.92149019241333
1619375541.70074,-39.49048,16.93712019920349
1619375541.71637,-57.56836,16.952750205993652
1619375541.73199,-74.12451,16.96837019920349
1619375541.74762,-89.58081,16.984000205993652
1619375541.76324,-105.0024,16.99962019920349
1619375541.77887,-121.542,17.015250205993652
1619375541.79449,-139.9596,17.03087019920349
1619375541.81012,-160.2959,17.046500205993652
1619375541.82575,-181.7269,17.062130212783813
1619375541.84137,-202.5767,17.077750205993652
1619375541.857,-220.5841,17.093380212783813
1619375541.87262,-233.3946,17.109000205993652
1619375541.88825,-239.0923,17.124630212783813
1619375541.90387,-236.8774,17.140250205993652
1619375541.9195,-227.4067,17.155880212783813
1619375541.93513,-212.7762,17.171509981155396
1619375541.95075,-196.0296,17.187130212783813
1619375541.96638,-180.2667,17.202759981155396
1619375541.982,-167.6977,17.218380212783813
1619375541.99763,-158.9564,17.234009981155396
1619375542.01326,-152.8531,17.249639987945557
1619375542.02888,-146.7538,17.265259981155396
1619375542.04451,-137.6522,17.280889987945557
1619375542.06013,-123.3198,17.296509981155396
1619375542.07576,-103.2687,17.312139987945557
1619375542.09138,-79.05609,17.327759981155396
1619375542.10701,-53.74115,17.343389987945557
1619375542.12264,-30.71741,17.359019994735718
1619375542.13826,-12.59521,17.374639987945557
1619375542.15389,-0.4790039,17.390269994735718
1619375542.16951,6.143738,17.405889987945557
1619375542.18514,8.729492,17.421519994735718
1619375542.20076,8.965942,17.437139987945557
1619375542.21639,8.302551,17.452769994735718
1619375542.23202,7.764893,17.46840000152588
1619375542.24764,8.235291,17.484019994735718
1619375542.26327,10.6524,17.49965000152588
1619375542.27889,15.85699,17.515269994735718
1619375542.29452,24.29999,17.53090000152588
1619375542.31014,35.59644,17.546519994735718
1619375542.32577,48.35046,17.56215000152588
1619375542.3414,60.55334,17.57778000831604
1619375542.35702,70.2959,17.59340000152588
1619375542.37265,76.45264,17.60903000831604
1619375542.38827,79.10339,17.62465000152588
1619375542.4039,79.37128,17.64028000831604
1619375542.41952,78.6521,17.65590000152588
1619375542.43515,77.99652,17.67153000831604
1619375542.45078,77.56122,17.6871600151062
1619375542.4664,76.60126,17.70278000831604
1619375542.48203,73.91364,17.7184100151062
1619375542.49765,68.45175,17.73403000831604
1619375542.51328,59.75656,17.7496600151062
1619375542.5289,48.41745,17.76528000831604
1619375542.54453,36.08337,17.7809100151062
1619375542.56016,25.19766,17.796540021896362
1619375542.57578,18.4946,17.8121600151062
1619375542.59141,18.21072,17.827790021896362
1619375542.60703,25.22745,17.8434100151062
1619375542.62266,38.71701,17.859040021896362
1619375542.63828,56.28052,17.8746600151062
1619375542.65391,74.6777,17.890290021896362
1619375542.66954,90.96506,17.905920028686523
1619375542.68516,103.3173,17.921540021896362
1619375542.70079,111.2064,17.937170028686523
1619375542.71641,115.0424,17.952790021896362
1619375542.73204,115.4835,17.968420028686523
1619375542.74766,113.0051,17.984040021896362
1619375542.76329,107.858,17.999670028686523
1619375542.77892,100.2965,18.015300035476685
1619375542.79454,90.83934,18.030920028686523
1619375542.81017,80.33026,18.046550035476685
1619375542.82579,69.689,18.062170028686523
1619375542.84142,59.63669,18.077800035476685
1619375542.85704,50.6001,18.093420028686523
1619375542.87267,42.73849,18.109050035476685
1619375542.8883,36.1756,18.124680042266846
1619375542.90392,31.19933,18.140300035476685
1619375542.91955,28.13597,18.155930042266846
1619375542.93517,27.15662,18.171550035476685
1619375542.9508,28.01836,18.187180042266846
1619375542.96642,30.01299,18.202800035476685
1619375542.98205,32.12357,18.218430042266846
1619375542.99768,33.37827,18.234060049057007
1619375543.0133,33.09902,18.249680042266846
1619375543.02893,31.04916,18.265310049057007
1619375543.04455,27.38232,18.280930042266846
1619375543.06018,22.5146,18.296560049057007
1619375543.0758,16.90329,18.312180042266846
1619375543.09143,10.93167,18.327810049057007
1619375543.10706,4.807968,18.343440055847168
1619375543.12268,-1.48764,18.359060049057007
1619375543.13831,-8.229595,18.374690055847168
1619375543.15393,-15.81501,18.390310049057007
1619375543.16956,-24.57252,18.405940055847168
1619375543.18518,-34.46765,18.421560049057007
1619375543.20081,-44.72369,18.437190055847168
1619375543.21644,-53.74303,18.45282006263733
1619375543.23206,-59.31352,18.468440055847168
1619375543.24769,-59.20512,18.48407006263733
1619375543.26331,-51.99248,18.499690055847168
1619375543.27894,-37.74579,18.51532006263733
1619375543.29456,-18.1782,18.530940055847168
1619375543.31019,3.814742,18.54657006263733
1619375543.32582,25.01539,18.56220006942749
1619375543.34144,42.86727,18.57782006263733
1619375543.35707,56.03068,18.59345006942749
1619375543.37269,64.43854,18.60907006263733
1619375543.38832,68.87503,18.62470006942749
1619375543.40394,70.41507,18.64032006263733
1619375543.41957,69.9224,18.65595006942749
1619375543.4352,67.90558,18.67158007621765
1619375543.45082,64.59564,18.68720006942749
1619375543.46645,60.14095,18.70283007621765
1619375543.48207,54.745,18.71845006942749
1619375543.4977,48.72109,18.73408007621765
1619375543.51332,42.38061,18.74970006942749
1619375543.52895,36.02044,18.76533007621765
1619375543.54458,29.88964,18.780960083007812
1619375543.5602,24.24533,18.79658007621765
1619375543.57583,19.42035,18.812210083007812
1619375543.59145,15.76305,18.82783007621765
1619375543.60708,13.53849,18.843460083007812
1619375543.6227,12.77152,18.85908007621765
1619375543.63833,13.13874,18.874710083007812
1619375543.65396,13.98521,18.890340089797974
1619375543.66958,14.53395,18.905960083007812
1619375543.68521,14.08911,18.921590089797974
1619375543.70083,12.33426,18.937210083007812
1619375543.71646,9.370544,18.952840089797974
1619375543.73208,5.599716,18.968460083007812
1619375543.74771,1.497833,18.984090089797974
1619375543.76334,-2.601929,18.999720096588135
1619375543.77896,-6.66394,19.015340089797974
1619375543.79459,-10.89041,19.030970096588135
1619375543.81021,-15.65668,19.046590089797974
1619375543.82584,-21.3737,19.062220096588135
1619375543.84146,-28.32498,19.077840089797974
1619375543.85709,-36.3793,19.093470096588135
1619375543.87272,-44.79523,19.109100103378296
1619375543.88834,-52.09879,19.124720096588135
1619375543.90397,-56.25746,19.140350103378296
1619375543.91959,-55.29158,19.155970096588135
1619375543.93522,-47.9787,19.171600103378296
1619375543.95084,-34.49176,19.187220096588135
1619375543.96647,-16.51183,19.202850103378296
1619375543.9821,3.19339,19.218480110168457
1619375543.99772,21.70653,19.234100103378296
1619375544.01335,36.80452,19.249730110168457
1619375544.02897,47.46162,19.265350103378296
1619375544.0446,53.78418,19.280980110168457
1619375544.06022,56.54456,19.296600103378296
1619375544.07585,56.67854,19.312230110168457
1619375544.09148,54.9361,19.327860116958618
1619375544.1071,51.85876,19.343480110168457
1619375544.12273,47.91924,19.359110116958618
1619375544.13835,43.59816,19.374730110168457
1619375544.15398,39.34525,19.390360116958618
1619375544.1696,35.4554,19.405980110168457
1619375544.18523,31.93022,19.421610116958618
1619375544.20086,28.53078,19.43724012374878
1619375544.21648,24.96527,19.452860116958618
1619375544.23211,21.20807,19.46849012374878
1619375544.24773,17.60861,19.484110116958618
1619375544.26336,14.84613,19.49974012374878
1619375544.27899,13.48279,19.51537013053894
1619375544.29461,13.69226,19.53099012374878
1619375544.31024,14.94559,19.54662013053894
1619375544.32586,16.21466,19.56224012374878
1619375544.34149,16.32578,19.57787013053894
1619375544.35711,14.52231,19.59349012374878
1619375544.37274,10.72366,19.60912013053894
1619375544.38837,5.569458,19.6247501373291
1619375544.40399,0.03222656,19.64037013053894
1619375544.41962,-5.046326,19.6560001373291
1619375544.43524,-9.226349,19.67162013053894
1619375544.45087,-12.58722,19.6872501373291
1619375544.46649,-15.51559,19.70287013053894
1619375544.48212,-18.59955,19.7185001373291
1619375544.49775,-22.42017,19.734130144119263
1619375544.51337,-27.43719,19.7497501373291
1619375544.529,-33.71939,19.765380144119263
1619375544.54462,-40.72049,19.7810001373291
1619375544.56025,-47.13614,19.796630144119263
1619375544.57587,-51.03091,19.8122501373291
1619375544.5915,-50.43381,19.827880144119263
1619375544.60713,-44.07239,19.843510150909424
1619375544.62275,-32.0123,19.859130144119263
1619375544.63838,-15.81116,19.874760150909424
1619375544.654,1.981476,19.890380144119263
1619375544.66963,18.72046,19.906010150909424
1619375544.68525,32.48492,19.921630144119263
1619375544.70088,42.54373,19.937260150909424
1619375544.71651,49.17224,19.952890157699585
1619375544.73213,53.10684,19.968510150909424
1619375544.74776,55.04111,19.984140157699585
1619375544.76338,55.32785,19.999760150909424
1619375544.77901,53.96466,20.015390157699585
1619375544.79463,50.94363,20.031010150909424
1619375544.81026,46.47412,20.046640157699585
1619375544.82589,41.07343,20.062270164489746
1619375544.84151,35.47839,20.077890157699585
1619375544.85714,30.42761,20.093520164489746
1619375544.87276,26.37305,20.109140157699585
1619375544.88839,23.43723,20.124770164489746
1619375544.90401,21.39127,20.140390157699585
1619375544.91964,19.85007,20.156020164489746
1619375544.93527,18.48065,20.171650171279907
1619375544.95089,17.20972,20.187270164489746
1619375544.96652,16.16507,20.202900171279907
1619375544.98214,15.616,20.218520164489746
1619375544.99777,15.69891,20.234150171279907
1619375545.01339,16.1824,20.249770164489746
1619375545.02902,16.51239,20.265400171279907
1619375545.04465,15.91617,20.28103017807007
1619375545.06027,13.75638,20.296650171279907
1619375545.0759,9.838562,20.31228017807007
1619375545.09152,4.603577,20.327900171279907
1619375545.10715,-1.109497,20.34353017807007
1619375545.12277,-6.305817,20.359150171279907
1619375545.1384,-10.30902,20.37478017807007
1619375545.15403,-13.04456,20.39041018486023
1619375545.16965,-14.97345,20.40603017807007
1619375545.18528,-16.93582,20.42166018486023
1619375545.2009,-19.80579,20.43728017807007
1619375545.21653,-24.25662,20.45291018486023
1619375545.23215,-30.56839,20.46853017807007
1619375545.24778,-38.54965,20.48416018486023
1619375545.26341,-47.32617,20.49979019165039
1619375545.27903,-55.35684,20.51541018486023
1619375545.29466,-60.5914,20.53104019165039
1619375545.31028,-60.97379,20.54666018486023
1619375545.32591,-55.13696,20.56229019165039
1619375545.34153,-43.01794,20.57791018486023
1619375545.35716,-25.99789,20.59354019165039
1619375545.37279,-6.554932,20.60917019844055
1619375545.38841,12.51279,20.62479019165039
1619375545.40404,29.01273,20.64042019844055
1619375545.41966,41.7359,20.65604019165039
1619375545.43529,50.55917,20.67167019844055
1619375545.45091,55.92279,20.68729019165039
1619375545.46654,58.34457,20.70292019844055
1619375545.48217,58.13937,20.718550205230713
1619375545.49779,55.43301,20.73417019844055
1619375545.51342,50.42227,20.749800205230713
1619375545.52904,43.59479,20.76542019844055
1619375545.54467,35.89767,20.781050205230713
1619375545.56029,28.4917,20.79667019844055
1619375545.57592,22.41599,20.812300205230713
1619375545.59155,18.31079,20.827930212020874
1619375545.60717,16.2355,20.843550205230713
1619375545.6228,15.76422,20.859180212020874
1619375545.63842,16.2605,20.874800205230713
1619375545.65405,17.19464,20.890430212020874
1619375545.66967,18.26492,20.906050205230713
1619375545.6853,19.46207,20.921680212020874
1619375545.70093,20.88889,20.937310218811035
1619375545.71655,22.60828,20.952930212020874
1619375545.73218,24.53403,20.968560218811035
1619375545.7478,26.43073,20.984180212020874
1619375545.76343,27.98804,20.999810218811035
1619375545.77905,28.8876,21.015430212020874
1619375545.79468,28.84622,21.031060218811035
1619375545.81031,27.71387,21.046689987182617
1619375545.82593,25.55371,21.062310218811035
1619375545.84156,22.69513,21.077939987182617
1619375545.85718,19.66733,21.093560218811035
1619375545.87281,17.01697,21.109189987182617
1619375545.88843,15.13556,21.124810218811035
1619375545.90406,14.17252,21.140439987182617
1619375545.91969,14.07755,21.15606999397278
1619375545.93531,14.71771,21.171689987182617
1619375545.95094,16.03714,21.18731999397278
1619375545.96656,18.07068,21.202939987182617
1619375545.98219,20.94577,21.21856999397278
1619375545.99781,24.85004,21.234189987182617
1619375546.01344,30.15039,21.24981999397278
1619375546.02907,37.49652,21.26545000076294
1619375546.04469,47.89844,21.28106999397278
1619375546.06032,62.52554,21.29670000076294
1619375546.07594,82.19785,21.31231999397278
1619375546.09157,106.878,21.32795000076294
1619375546.10719,135.322,21.34356999397278
1619375546.12282,165.2262,21.35920000076294
1619375546.13845,193.8573,21.3748300075531
1619375546.15407,218.8255,21.39045000076294
1619375546.1697,238.6545,21.4060800075531
1619375546.18532,252.8651,21.42170000076294
1619375546.20095,261.7056,21.4373300075531
1619375546.21657,265.6514,21.45295000076294
1619375546.2322,264.8959,21.4685800075531
1619375546.24783,259.2898,21.48421001434326
1619375546.26345,248.4239,21.4998300075531
1619375546.27908,231.9748,21.51546001434326
1619375546.2947,210.004,21.5310800075531
1619375546.31033,183.1588,21.54671001434326
1619375546.32595,152.6188,21.5623300075531
1619375546.34158,120.0214,21.57796001434326
1619375546.35721,87.15703,21.593590021133423
1619375546.37283,55.60189,21.60921001434326
1619375546.38846,26.46983,21.624840021133423
1619375546.40408,0.1914845,21.64046001434326
1619375546.41971,-23.38801,21.656090021133423
1619375546.43533,-44.67678,21.67171001434326
1619375546.45096,-63.96482,21.687340021133423
1619375546.46659,-81.10408,21.702970027923584
1619375546.48221,-95.54166,21.718590021133423
1619375546.49784,-106.6644,21.734220027923584
1619375546.51346,-114.2916,21.749840021133423
1619375546.52909,-119.0063,21.765470027923584
1619375546.54471,-122.1606,21.781090021133423
1619375546.56034,-125.4566,21.796720027923584
1619375546.57597,-130.2212,21.812350034713745
1619375546.59159,-136.8215,21.827970027923584
1619375546.60722,-144.3316,21.843600034713745
1619375546.62284,-151.0205,21.859220027923584
1619375546.63847,-154.9078,21.874850034713745
1619375546.65409,-154.7229,21.890470027923584
1619375546.66972,-150.4442,21.906100034713745
1619375546.68535,-143.3919,21.921730041503906
1619375546.70097,-136.0562,21.937350034713745
1619375546.7166,-131.6908,21.952980041503906
1619375546.73222,-134.0365,21.968600034713745
1619375546.74785,-146.6461,21.984230041503906
1619375546.76347,-171.7315,21.999850034713745
1619375546.7791,-208.7823,22.015480041503906
1619375546.79473,-253.6668,22.031110048294067
1619375546.81035,-299.0017,22.046730041503906
1619375546.82598,-336.1877,22.062360048294067
1619375546.8416,-358.4371,22.077980041503906
1619375546.85723,-363.2401,22.093610048294067
1619375546.87286,-353.1343,22.10924005508423
1619375546.88848,-334.142,22.124860048294067
1619375546.90411,-312.8062,22.14049005508423
1619375546.91973,-293.4556,22.156110048294067
1619375546.93536,-277.0554,22.17174005508423
1619375546.95098,-261.8359,22.187360048294067
1619375546.96661,-245.0663,22.20299005508423
1619375546.98224,-224.6787,22.21862006187439
1619375546.99786,-200.0059,22.23424005508423
1619375547.01349,-171.6639,22.24987006187439
1619375547.02911,-140.9879,22.26549005508423
1619375547.04474,-109.4913,22.28112006187439
1619375547.06036,-78.66144,22.29674005508423
1619375547.07599,-49.82336,22.31237006187439
1619375547.09162,-24.07614,22.32800006866455
1619375547.10724,-2.031219,22.34362006187439
1619375547.12287,15.94293,22.35925006866455
1619375547.13849,29.78265,22.37487006187439
1619375547.15412,39.59258,22.39050006866455
1619375547.16974,45.70067,22.40612006187439
1619375547.18537,48.81653,22.42175006866455
1619375547.201,50.06703,22.437380075454712
1619375547.21662,50.74844,22.45300006866455
1619375547.23225,51.6794,22.468630075454712
1619375547.24787,52.84442,22.48425006866455
1619375547.2635,53.24265,22.499880075454712
1619375547.27912,51.58929,22.51550006866455
1619375547.29475,47.17162,22.531130075454712
1619375547.31038,40.48444,22.546760082244873
1619375547.326,33.26857,22.562380075454712
1619375547.34163,27.68588,22.578010082244873
1619375547.35725,25.3029,22.593630075454712
1619375547.37288,26.22334,22.609260082244873
1619375547.3885,29.0399,22.624880075454712
1619375547.40413,31.56163,22.640510082244873
1619375547.41976,32.03364,22.656140089035034
1619375547.43538,30.05071,22.671760082244873
1619375547.45101,26.87462,22.687390089035034
1619375547.46663,24.76967,22.703010082244873
1619375547.48226,25.966,22.718640089035034
1619375547.49788,31.584,22.734260082244873
1619375547.51351,41.15292,22.749890089035034
1619375547.52914,52.90197,22.765520095825195
1619375547.54476,64.47069,22.781140089035034
1619375547.56039,73.95038,22.796770095825195
1619375547.57601,80.31346,22.812390089035034
1619375547.59164,83.53696,22.828020095825195
1619375547.60726,84.17346,22.843640089035034
1619375547.62289,82.8965,22.859270095825195
1619375547.63852,80.13937,22.874900102615356
1619375547.65414,76.09624,22.890520095825195
1619375547.66977,70.9715,22.906150102615356
1619375547.68539,65.12574,22.921770095825195
1619375547.70102,59.16873,22.937400102615356
1619375547.71664,53.78221,22.953020095825195
1619375547.73227,49.47357,22.968650102615356
1619375547.7479,46.45782,22.984280109405518
1619375547.76352,44.57892,22.999900102615356
1619375547.77915,43.46415,23.015530109405518
1619375547.79477,42.72591,23.031150102615356
1619375547.8104,42.04031,23.046780109405518
1619375547.82602,41.25243,23.062400102615356
1619375547.84165,40.29045,23.078030109405518
1619375547.85728,39.13312,23.09366011619568
1619375547.8729,37.7774,23.109280109405518
1619375547.88853,36.13391,23.12491011619568
1619375547.90415,34.06151,23.140530109405518
1619375547.91978,31.3316,23.15616011619568
1619375547.9354,27.67946,23.171780109405518
1619375547.95103,22.89539,23.18741011619568
1619375547.96666,16.99954,23.20304012298584
1619375547.98228,10.3541,23.21866011619568
1619375547.99791,3.596252,23.23429012298584
1619375548.01353,-2.527161,23.24991011619568
1619375548.02916,-7.48819,23.26554012298584
1619375548.04478,-11.24814,23.28116011619568
1619375548.06041,-14.24994,23.29679012298584
1619375548.07604,-17.29828,23.312420129776
1619375548.09166,-21.17317,23.32804012298584
1619375548.10729,-26.32462,23.343670129776
1619375548.12291,-32.58578,23.35929012298584
1619375548.13854,-39.16211,23.374920129776
1619375548.15416,-44.80234,23.39054012298584
1619375548.16979,-48.10651,23.406170129776
1619375548.18542,-47.80887,23.421800136566162
1619375548.20104,-43.10295,23.437420129776
1619375548.21667,-33.93684,23.453050136566162
1619375548.23229,-21.12488,23.468670129776
1619375548.24792,-6.275665,23.484300136566162
1619375548.26354,8.576782,23.499920129776
1619375548.27917,21.49377,23.515550136566162
1619375548.2948,31.11911,23.531180143356323
1619375548.31042,36.8988,23.546800136566162
1619375548.32605,39.14743,23.562430143356323
1619375548.34167,38.69894,23.578050136566162
1619375548.3573,36.56561,23.593680143356323
1619375548.37292,33.6091,23.609300136566162
1619375548.38855,30.34335,23.624930143356323
1619375548.40418,26.98392,23.640560150146484
1619375548.4198,23.53943,23.656180143356323
1619375548.43543,20.01691,23.671810150146484
1619375548.45105,16.56308,23.687430143356323
1619375548.46668,13.56628,23.703060150146484
1619375548.4823,11.55353,23.718680143356323
1619375548.49793,10.97263,23.734310150146484
1619375548.51356,11.95828,23.749940156936646
1619375548.52918,14.19409,23.765560150146484
1619375548.54481,17.14465,23.781190156936646
1619375548.56043,20.25967,23.796810150146484
1619375548.57606,23.3605,23.812440156936646
1619375548.59168,26.5654,23.828060150146484
1619375548.60731,30.0278,23.843690156936646
1619375548.62294,33.5679,23.859320163726807
1619375548.63856,36.42996,23.874940156936646
1619375548.65419,37.5842,23.890570163726807
1619375548.66981,36.18399,23.906190156936646
1619375548.68544,32.1037,23.921820163726807
1619375548.70106,26.06833,23.937440156936646
1619375548.71669,19.3978,23.953070163726807
1619375548.73232,13.39011,23.968700170516968
1619375548.74794,8.803711,23.984320163726807
1619375548.76357,5.673981,23.999950170516968
1619375548.77919,3.454193,24.015570163726807
1619375548.79482,1.38092,24.031200170516968
1619375548.81044,-1.303619,24.046820163726807
1619375548.82607,-5.204376,24.062450170516968
1619375548.8417,-10.75195,24.07808017730713
1619375548.85732,-18.10846,24.093700170516968
1619375548.87295,-26.93872,24.10933017730713
1619375548.88857,-36.26022,24.124950170516968
1619375548.9042,-44.4505,24.14058017730713
1619375548.91982,-49.6423,24.156200170516968
1619375548.93545,-50.1438,24.17183017730713
1619375548.95108,-45.02255,24.18746018409729
1619375548.9667,-34.31601,24.20308017730713
1619375548.98233,-19.07977,24.21871018409729
1619375548.99795,-1.172302,24.23433017730713
1619375549.01358,17.15244,24.24996018409729
1619375549.0292,33.62845,24.26558017730713
1619375549.04483,46.51212,24.28121018409729
1619375549.06046,54.8331,24.29684019088745
1619375549.07608,58.66171,24.31246018409729
1619375549.09171,58.84409,24.32809019088745
1619375549.10733,56.63568,24.34371018409729
1619375549.12296,53.13684,24.35934019088745
1619375549.13859,48.90533,24.374970197677612
1619375549.15421,43.9921,24.39059019088745
1619375549.16984,38.2178,24.406220197677612
1619375549.18546,31.69318,24.42184019088745
1619375549.20109,24.95804,24.437470197677612
1619375549.21671,18.97449,24.45309019088745
1619375549.23234,14.65002,24.468720197677612
1619375549.24797,12.45844,24.484350204467773
1619375549.26359,12.2854,24.499970197677612
1619375549.27922,13.54761,24.515600204467773
1619375549.29484,15.56339,24.531220197677612
1619375549.31047,17.76196,24.546850204467773
1619375549.32609,19.84348,24.562470197677612
1619375549.34172,21.52737,24.578100204467773
1619375549.35735,22.51447,24.593730211257935
1619375549.37297,22.31812,24.609350204467773
1619375549.3886,20.46265,24.624980211257935
1619375549.40422,16.72858,24.640600204467773
1619375549.41985,11.32297,24.656230211257935
1619375549.43547,4.867737,24.671850204467773
1619375549.4511,-1.902588,24.687480211257935
1619375549.46673,-8.417633,24.703110218048096
1619375549.48235,-14.54153,24.718730211257935
1619375549.49798,-20.49536,24.734360218048096
1619375549.5136,-26.73389,24.749980211257935
1619375549.52923,-33.69196,24.765610218048096
1619375549.54485,-41.64578,24.781230211257935
1619375549.56048,-50.5253,24.796860218048096
1619375549.57611,-59.81757,24.812489986419678
1619375549.59173,-68.51938,24.828110218048096
1619375549.60736,-75.12662,24.843739986419678
1619375549.62298,-77.95306,24.859360218048096
1619375549.63861,-75.57254,24.874989986419678
1619375549.65423,-67.34082,24.890610218048096
1619375549.66986,-53.72293,24.906239986419678
1619375549.68549,-36.26929,24.92186999320984
1619375549.70111,-17.18848,24.937489986419678
1619375549.71674,1.209595,24.95311999320984
1619375549.73236,17.07819,24.968739986419678
1619375549.74799,29.37616,24.98436999320984
1619375549.76361,37.8331,24.999989986419678
1619375549.77924,42.80588,25.01561999320984
1619375549.79487,44.93405,25.03125
1619375549.81049,44.88562,25.04686999320984
1619375549.82612,43.23419,25.0625
1619375549.84174,40.42453,25.07811999320984
1619375549.85737,36.84201,25.09375
1619375549.87299,32.87332,25.10936999320984
1619375549.88862,28.95261,25.125
1619375549.90425,25.43753,25.14063000679016
1619375549.91987,22.55991,25.15625
1619375549.9355,20.32611,25.17188000679016
1619375549.95112,18.58441,25.1875
1619375549.96675,17.17163,25.20313000679016
1619375549.98237,16.0314,25.21875
1619375549.998,15.24042,25.23438000679016
1619375550.01363,14.95755,25.250010013580322
1619375550.02925,15.20264,25.26563000679016
1619375550.04488,15.69653,25.281260013580322
1619375550.0605,15.90912,25.29688000679016
1619375550.07613,15.16891,25.312510013580322
1619375550.09175,12.89795,25.32813000679016
1619375550.10738,8.921997,25.343760013580322
1619375550.12301,3.529419,25.359390020370483
1619375550.13863,-2.527374,25.375010013580322
1619375550.15426,-8.297577,25.390640020370483
1619375550.16988,-12.94412,25.406260013580322
1619375550.18551,-16.15009,25.421890020370483
1619375550.20113,-18.18582,25.437510013580322
1619375550.21676,-19.8959,25.453140020370483
1619375550.23239,-22.40063,25.468770027160645
1619375550.24801,-26.68338,25.484390020370483
1619375550.26364,-33.25952,25.500020027160645
1619375550.27926,-41.79391,25.515640020370483
1619375550.29489,-51.04523,25.531270027160645
1619375550.31051,-58.97684,25.546890020370483
1619375550.32614,-63.22543,25.562520027160645
1619375550.34177,-61.7648,25.578150033950806
1619375550.35739,-53.61551,25.593770027160645
1619375550.37302,-39.23514,25.609400033950806
1619375550.38864,-20.47125,25.625020027160645
1619375550.40427,-0.06518555,25.640650033950806
1619375550.41989,19.17685,25.656270027160645
1619375550.43552,35.09988,25.671900033950806
1619375550.45115,46.60312,25.687530040740967
1619375550.46677,53.59058,25.703150033950806
1619375550.4824,56.59097,25.718780040740967
1619375550.49802,56.4317,25.734400033950806
1619375550.51365,53.93765,25.750030040740967
1619375550.52927,49.9126,25.765650033950806
1619375550.5449,45.10587,25.781280040740967
1619375550.56053,40.21985,25.796910047531128
1619375550.57615,35.74292,25.812530040740967
1619375550.59178,31.87094,25.828160047531128
1619375550.6074,28.47772,25.843780040740967
1619375550.62303,25.23914,25.859410047531128
1619375550.63865,21.86417,25.875030040740967
1619375550.65428,18.31192,25.890660047531128
1619375550.66991,14.91028,25.90629005432129
1619375550.68553,12.18497,25.921910047531128
1619375550.70116,10.67453,25.93754005432129
1619375550.71678,10.57755,25.953160047531128
1619375550.73241,11.62338,25.96879005432129
1619375550.74803,13.121,25.984410047531128
1619375550.76366,14.17755,26.00004005432129
1619375550.77929,14.01901,26.01567006111145
1619375550.79491,12.22333,26.03129005432129
1619375550.81054,8.855042,26.04692006111145
1619375550.82616,4.352509,26.06254005432129
1619375550.84179,-0.61026,26.07817006111145
1619375550.85741,-5.423523,26.09379005432129
1619375550.87304,-9.712555,26.10942006111145
1619375550.88867,-13.40195,26.12505006790161
1619375550.90429,-16.75662,26.14067006111145
1619375550.91992,-20.31192,26.15630006790161
1619375550.93554,-24.7951,26.17192006111145
1619375550.95117,-30.83475,26.18755006790161
1619375550.96679,-38.58878,26.20317006111145
1619375550.98242,-47.43311,26.21880006790161
1619375550.99805,-55.78943,26.234430074691772
1619375551.01367,-61.48892,26.25005006790161
1619375551.0293,-62.44455,26.265680074691772
1619375551.04492,-57.44669,26.28130006790161
1619375551.06055,-46.74146,26.296930074691772
1619375551.07617,-31.99222,26.31255006790161
1619375551.0918,-15.75455,26.328180074691772
1619375551.10743,-0.5522156,26.343810081481934
1619375551.12305,11.8331,26.359430074691772
1619375551.13868,20.71149,26.375060081481934
1619375551.1543,26.25934,26.390680074691772
1619375551.16993,29.08463,26.406310081481934
1619375551.18555,29.75583,26.421930074691772
1619375551.20118,28.68793,26.437560081481934
1619375551.21681,26.24533,26.453190088272095
1619375551.23243,22.84592,26.468810081481934
1619375551.24806,19.05762,26.484440088272095
1619375551.26368,15.42963,26.500060081481934
1619375551.27931,12.42499,26.515690088272095
1619375551.29493,10.27332,26.531310081481934
1619375551.31056,9.002899,26.546940088272095
1619375551.32619,8.507904,26.562570095062256
1619375551.34181,8.710632,26.578190088272095
1619375551.35744,9.64856,26.593820095062256
1619375551.37306,11.45361,26.609440088272095
1619375551.38869,14.23349,26.625070095062256
1619375551.40431,17.85004,26.640690088272095
1619375551.41994,21.76474,26.656320095062256
1619375551.43557,25.04504,26.671950101852417
1619375551.45119,26.54648,26.687570095062256
1619375551.46682,25.26999,26.703200101852417
1619375551.48244,20.80487,26.718820095062256
1619375551.49807,13.5705,26.734450101852417
1619375551.5137,4.81073,26.750080108642578
1619375551.52932,-3.848938,26.765700101852417
1619375551.54495,-10.8905,26.781330108642578
1619375551.56057,-15.55746,26.796950101852417
1619375551.5762,-18.03229,26.812580108642578
1619375551.59182,-19.39505,26.828200101852417
1619375551.60745,-21.11694,26.843830108642578
1619375551.62308,-24.48206,26.85946011543274
1619375551.6387,-30.11847,26.875080108642578
1619375551.65433,-37.81122,26.89071011543274
1619375551.66995,-46.53168,26.906330108642578
1619375551.68558,-54.66965,26.92196011543274
1619375551.7012,-60.40631,26.937580108642578
1619375551.71683,-62.00964,26.95321011543274
1619375551.73246,-58.30878,26.9688401222229
1619375551.74808,-48.98605,26.98446011543274
1619375551.76371,-34.77258,27.0000901222229
1619375551.77933,-17.32635,27.01571011543274
1619375551.79496,1.165924,27.0313401222229
1619375551.81058,18.65891,27.04696011543274
1619375551.82621,33.76932,27.0625901222229
1619375551.84184,45.96188,27.07822012901306
1619375551.85746,55.35898,27.0938401222229
1619375551.87309,62.29431,27.10947012901306
1619375551.88871,66.94974,27.1250901222229
1619375551.90434,69.31464,27.14072012901306
1619375551.91996,69.38763,27.1563401222229
1619375551.93559,67.48648,27.17197012901306
1619375551.95122,64.3923,27.187600135803223
1619375551.96684,61.19553,27.20322012901306
1619375551.98247,58.95807,27.218850135803223
1619375551.99809,58.39828,27.23447012901306
1619375552.01372,59.77191,27.250100135803223
1619375552.02934,62.83563,27.26572012901306
1619375552.04497,67.04944,27.281350135803223
1619375552.0606,71.71881,27.296980142593384
1619375552.07622,76.12088,27.312600135803223
1619375552.09185,79.66,27.328230142593384
1619375552.10747,81.97314,27.343850135803223
1619375552.1231,83.09579,27.359480142593384
1619375552.13872,83.39825,27.375100135803223
1619375552.15435,83.46887,27.390730142593384
1619375552.16998,83.79556,27.406360149383545
1619375552.1856,84.48795,27.421980142593384
1619375552.20123,85.24878,27.437610149383545
1619375552.21685,85.45523,27.453230142593384
1619375552.23248,84.53937,27.468860149383545
1619375552.2481,82.28705,27.484480142593384
1619375552.26373,79.034,27.500110149383545
1619375552.27936,75.41135,27.515740156173706
1619375552.29498,71.90048,27.531360149383545
1619375552.31061,68.3653,27.546990156173706
1619375552.32623,63.91025,27.562610149383545
1619375552.34186,57.12515,27.578240156173706
1619375552.35748,46.6636,27.593860149383545
1619375552.37311,31.87073,27.609490156173706
1619375552.38874,13.0834,27.625120162963867
1619375552.40436,-8.244522,27.640740156173706
1619375552.41999,-29.96205,27.656370162963867
1619375552.43561,-49.7182,27.671990156173706
1619375552.45124,-65.55174,27.687620162963867
1619375552.46686,-76.34492,27.703240156173706
1619375552.48249,-82.01791,27.718870162963867
1619375552.49812,-83.53867,27.73450016975403
1619375552.51374,-82.47232,27.750120162963867
1619375552.52937,-80.62325,27.76575016975403
1619375552.54499,-79.43121,27.781370162963867
1619375552.56062,-79.7384,27.79700016975403
1619375552.57624,-81.81186,27.812620162963867
1619375552.59187,-85.54651,27.82825016975403
1619375552.6075,-90.7688,27.84388017654419
1619375552.62312,-97.35959,27.85950016975403
1619375552.63875,-105.1787,27.87513017654419
1619375552.65437,-113.8444,27.89075016975403
1619375552.67,-122.7816,27.90638017654419
1619375552.68562,-131.225,27.92200016975403
1619375552.70125,-138.3962,27.93763017654419
1619375552.71688,-143.6372,27.95326018333435
1619375552.7325,-146.3564,27.96888017654419
1619375552.74813,-146.0165,27.98451018333435
1619375552.76375,-142.1385,28.00013017654419
1619375552.77938,-134.4143,28.01576018333435
1619375552.795,-122.8956,28.03138017654419
1619375552.81063,-108.2121,28.04701018333435
1619375552.82626,-91.45522,28.06264019012451
1619375552.84188,-74.04695,28.07826018333435
1619375552.85751,-57.41407,28.09389019012451
1619375552.87313,-42.67891,28.10951018333435
1619375552.88876,-30.51632,28.12514019012451
1619375552.90438,-21.10714,28.14076018333435
1619375552.92001,-14.29318,28.15639019012451
1619375552.93564,-9.707733,28.172020196914673
1619375552.95126,-6.939728,28.18764019012451
1619375552.96689,-5.593147,28.203270196914673
1619375552.98251,-5.239174,28.21889019012451
1619375552.99814,-5.470123,28.234520196914673
1619375553.01376,-5.863419,28.25014019012451
1619375553.02939,-6.086929,28.265770196914673
1619375553.04502,-6.002228,28.281400203704834
1619375553.06064,-5.731155,28.297020196914673
1619375553.07627,-5.626785,28.312650203704834
1619375553.09189,-6.195938,28.328270196914673
1619375553.10752,-7.926575,28.343900203704834
1619375553.12314,-11.19785,28.359520196914673
1619375553.13877,-16.1452,28.375150203704834
1619375553.1544,-22.5011,28.390780210494995
1619375553.17002,-29.505,28.406400203704834
1619375553.18565,-35.86385,28.422030210494995
1619375553.20127,-39.84108,28.437650203704834
1619375553.2169,-39.65608,28.453280210494995
1619375553.23252,-34.09201,28.468900203704834
1619375553.24815,-22.96086,28.484530210494995
1619375553.26378,-7.354874,28.500160217285156
1619375553.2794,10.52403,28.515780210494995
1619375553.29503,28.07458,28.531410217285156
1619375553.31065,43.03339,28.547030210494995
1619375553.32628,54.05209,28.562660217285156
1619375553.3419,60.87296,28.578280210494995
1619375553.35753,64.06566,28.593910217285156
1619375553.37316,64.58218,28.60953998565674
1619375553.38878,63.32634,28.625160217285156
1619375553.40441,60.97508,28.64078998565674
1619375553.42003,57.97923,28.656410217285156
1619375553.43566,54.63786,28.67203998565674
1619375553.45128,51.22801,28.687660217285156
1619375553.46691,47.95264,28.70328998565674
1619375553.48254,44.87012,28.7189199924469
1619375553.49816,41.90361,28.73453998565674
1619375553.51379,38.85036,28.7501699924469
1619375553.52941,35.62057,28.76578998565674
1619375553.54504,32.27631,28.7814199924469
1619375553.56066,29.09662,28.79703998565674
1619375553.57629,26.40433,28.8126699924469
1619375553.59192,24.35408,28.82829999923706
1619375553.60754,22.84789,28.8439199924469
1619375553.62317,21.45059,28.85954999923706
1619375553.63879,19.59656,28.8751699924469
1619375553.65442,16.7003,28.89079999923706
1619375553.67004,12.5392,28.9064199924469
1619375553.68567,7.22641,28.92204999923706
1619375553.7013,1.236908,28.93768000602722
1619375553.71692,-4.709534,28.95329999923706
1619375553.73255,-9.983582,28.96893000602722
1619375553.74817,-14.22855,28.98454999923706
1619375553.7638,-17.59052,29.00018000602722
1619375553.77942,-20.63298,29.01579999923706
1619375553.79505,-24.22389,29.03143000602722
1619375553.81068,-29.14105,29.047060012817383
1619375553.8263,-35.6622,29.06268000602722
1619375553.84193,-43.28204,29.078310012817383
1619375553.85755,-50.63867,29.09393000602722
1619375553.87318,-55.84546,29.109560012817383
1619375553.8888,-57.02719,29.12518000602722
1619375553.90443,-53.00397,29.140810012817383
1619375553.92006,-43.57495,29.156440019607544
1619375553.93568,-29.68484,29.172060012817383
1619375553.95131,-13.09244,29.187690019607544
1619375553.96693,4.126038,29.203310012817383
1619375553.98256,20.03128,29.218940019607544
1619375553.99819,33.16293,29.234570026397705
1619375554.01381,42.62595,29.250190019607544
1619375554.02944,48.13315,29.265820026397705
1619375554.04506,49.79984,29.281440019607544
1619375554.06069,48.13742,29.297070026397705
1619375554.07631,43.95181,29.312690019607544
1619375554.09194,38.2684,29.328320026397705
1619375554.10757,32.15894,29.343950033187866
1619375554.12319,26.61865,29.359570026397705
1619375554.13882,22.31946,29.375200033187866
1619375554.15444,19.52396,29.390820026397705
1619375554.17007,18.14859,29.406450033187866
1619375554.18569,17.79538,29.422070026397705
1619375554.20132,18.01901,29.437700033187866
1619375554.21695,18.42566,29.453330039978027
1619375554.23257,18.90833,29.468950033187866
1619375554.2482,19.60596,29.484580039978027
1619375554.26382,20.74136,29.500200033187866
1619375554.27945,22.38165,29.515830039978027
1619375554.29507,24.24826,29.531450033187866
1619375554.3107,25.685,29.547080039978027
1619375554.32633,25.87936,29.56271004676819
1619375554.34195,24.19083,29.578330039978027
1619375554.35758,20.44431,29.59396004676819
1619375554.3732,15.05582,29.609580039978027
1619375554.38883,8.892426,29.62521004676819
1619375554.40445,2.941223,29.640830039978027
1619375554.42008,-2.129608,29.65646004676819
1619375554.43571,-6.155609,29.67209005355835
1619375554.45133,-9.567108,29.68771004676819
1619375554.46696,-13.15753,29.70334005355835
1619375554.48258,-17.7088,29.71896004676819
1619375554.49821,-23.65735,29.73459005355835
1619375554.51383,-30.93188,29.75021004676819
1619375554.52946,-38.76721,29.76584005355835
1619375554.54509,-45.81775,29.78147006034851
1619375554.56071,-50.41434,29.79709005355835
1619375554.57634,-50.98093,29.81272006034851
1619375554.59196,-46.53595,29.82834005355835
1619375554.60759,-37.11893,29.84397006034851
1619375554.62321,-23.77563,29.85959005355835
1619375554.63884,-8.395538,29.87522006034851
1619375554.65447,6.794983,29.890850067138672
1619375554.67009,19.88724,29.90647006034851
1619375554.68572,29.66623,29.922100067138672
1619375554.70134,35.84531,29.93772006034851
1619375554.71697,38.85336,29.953350067138672
1619375554.73259,39.55014,29.96897006034851
1619375554.74822,38.79959,29.984600067138672
1619375554.76385,37.27182,30.000230073928833
1619375554.77947,35.27646,30.015850067138672
1619375554.7951,32.85406,30.031480073928833
1619375554.81072,29.95056,30.047100067138672
1619375554.82635,26.48477,30.062730073928833
1619375554.84197,22.56534,30.078350067138672
1619375554.8576,18.49597,30.093980073928833
1619375554.87323,14.69104,30.109610080718994
1619375554.88885,11.55032,30.125230073928833
1619375554.90448,9.3172,30.140860080718994
1619375554.9201,8.010712,30.156480073928833
1619375554.93573,7.510284,30.172110080718994
1619375554.95135,7.662354,30.187730073928833
1619375554.96698,8.303497,30.203360080718994
1619375554.98261,9.265991,30.218990087509155
1619375554.99823,10.33414,30.234610080718994
1619375555.01386,11.11151,30.250240087509155
1619375555.02948,11.12595,30.265860080718994
1619375555.04511,9.930176,30.281490087509155
1619375555.06073,7.368988,30.297110080718994
1619375555.07636,3.667877,30.312740087509155
1619375555.09199,-0.52005,30.328370094299316
1619375555.10761,-4.431305,30.343990087509155
1619375555.12324,-7.427032,30.359620094299316
1619375555.13886,-9.373779,30.375240087509155
1619375555.15449,-10.73172,30.390870094299316
1619375555.17011,-12.37485,30.406490087509155
1619375555.18574,-15.30507,30.422120094299316
1619375555.20137,-20.24774,30.437750101089478
1619375555.21699,-27.31241,30.453370094299316
1619375555.23262,-35.80682,30.469000101089478
1619375555.24824,-44.29022,30.484620094299316
1619375555.26387,-50.82851,30.500250101089478
1619375555.27949,-53.54881,30.515870094299316
1619375555.29512,-51.1571,30.531500101089478
1619375555.31075,-43.34961,30.54713010787964
1619375555.32637,-30.97701,30.562750101089478
1619375555.342,-15.8425,30.57838010787964
1619375555.35762,-0.1805725,30.594000101089478
1619375555.37325,13.94173,30.60963010787964
1619375555.38887,25.13319,30.625250101089478
1619375555.4045,32.84731,30.64088010787964
1619375555.42013,37.28856,30.6565101146698
1619375555.43575,39.04492,30.67213010787964
1619375555.45138,38.81575,30.6877601146698
1619375555.467,37.11737,30.70338010787964
1619375555.48263,34.32809,30.7190101146698
1619375555.49825,30.77019,30.73463010787964
1619375555.51388,26.75671,30.7502601146698
1619375555.52951,22.64696,30.76589012145996
1619375555.54513,18.76932,30.7815101146698
1619375555.56076,15.36215,30.79714012145996
1619375555.57638,12.52448,30.8127601146698
1619375555.59201,10.21417,30.82839012145996
1619375555.60763,8.303284,30.8440101146698
1619375555.62326,6.739563,30.85964012145996
1619375555.63889,5.623199,30.875270128250122
1619375555.65451,5.132675,30.89089012145996
1619375555.67014,5.476288,30.906520128250122
1619375555.68576,6.660172,30.92214012145996
1619375555.70139,8.395554,30.937770128250122
1619375555.71701,10.14215,30.95339012145996
1619375555.73264,11.14134,30.969020128250122
1619375555.74827,10.67816,30.984650135040283
1619375555.76389,8.318375,31.000270128250122
1619375555.77952,4.019379,31.015900135040283
1619375555.79514,-1.85498,31.031520128250122
1619375555.81077,-8.661179,31.047150135040283
1619375555.82639,-15.57315,31.062770128250122
1619375555.84202,-21.87679,31.078400135040283
1619375555.85765,-27.02882,31.094030141830444
1619375555.87327,-30.84172,31.109650135040283
1619375555.8889,-33.46136,31.125280141830444
1619375555.90452,-35.41719,31.140900135040283
1619375555.92015,-37.45195,31.156530141830444
1619375555.93577,-40.37567,31.172150135040283
1619375555.9514,-44.6633,31.187780141830444
1619375555.96703,-50.18011,31.203410148620605
1619375555.98265,-56.05475,31.219030141830444
1619375555.99828,-60.71246,31.234660148620605
1619375556.0139,-62.33051,31.250280141830444
1619375556.02953,-59.38727,31.265910148620605
1619375556.04515,-51.23216,31.281530141830444
1619375556.06078,-38.3692,31.297160148620605
1619375556.07641,-22.32518,31.312790155410767
1619375556.09203,-5.145157,31.328410148620605
1619375556.10766,11.13307,31.344040155410767
1619375556.12328,24.98947,31.359660148620605
1619375556.13891,35.59074,31.375290155410767
1619375556.15454,42.6945,31.390920162200928
1619375556.17016,46.46323,31.406540155410767
1619375556.18579,47.26006,31.422170162200928
1619375556.20141,45.52237,31.437790155410767
1619375556.21704,41.83856,31.453420162200928
1619375556.23266,36.92444,31.469040155410767
1619375556.24829,31.56609,31.484670162200928
1619375556.26392,26.51706,31.50030016899109
1619375556.27954,22.3192,31.515920162200928
1619375556.29517,19.2095,31.53155016899109
1619375556.31079,17.07849,31.547170162200928
1619375556.32642,15.65392,31.56280016899109
1619375556.34204,14.62367,31.578420162200928
1619375556.35767,13.815,31.59405016899109
1619375556.3733,13.24585,31.60968017578125
1619375556.38892,13.06131,31.62530016899109
1619375556.40455,13.41685,31.64093017578125
1619375556.42017,14.30486,31.65655016899109
1619375556.4358,15.36609,31.67218017578125
1619375556.45142,15.93692,31.68780016899109
1619375556.46705,15.26543,31.70343017578125
1619375556.48268,12.79665,31.71906018257141
1619375556.4983,8.423431,31.73468017578125
1619375556.51393,2.605011,31.75031018257141
1619375556.52955,-3.82962,31.76593017578125
1619375556.54518,-9.994537,31.78156018257141
1619375556.5608,-15.27747,31.79718017578125
1619375556.57643,-19.55443,31.81281018257141
1619375556.59206,-23.16304,31.828440189361572
1619375556.60768,-26.71507,31.84406018257141
1619375556.62331,-30.86961,31.859690189361572
1619375556.63893,-36.12366,31.87531018257141
1619375556.65456,-42.5694,31.890940189361572
1619375556.67018,-49.84468,31.90656018257141
1619375556.68581,-56.989,31.922190189361572
1619375556.70144,-62.59467,31.937820196151733
1619375556.71706,-65.01065,31.953440189361572
1619375556.73269,-62.85262,31.969070196151733
1619375556.74831,-55.52663,31.984690189361572
1619375556.76394,-43.50986,32.00032019615173
1619375556.77956,-28.22246,32.01594018936157
1619375556.79519,-11.62247,32.03157019615173
1619375556.81082,4.357925,32.047200202941895
1619375556.82644,18.3112,32.06282019615173
1619375556.84207,29.48528,32.078450202941895
1619375556.85769,37.68092,32.09407019615173
1619375556.87332,42.96187,32.109700202941895
1619375556.88894,45.44981,32.12532019615173
1619375556.90457,45.30966,32.140950202941895
1619375556.9202,42.87708,32.156580209732056
1619375556.93582,38.73068,32.172200202941895
1619375556.95145,33.67043,32.187830209732056
1619375556.96707,28.56941,32.203450202941895
1619375556.9827,24.14197,32.219080209732056
1619375556.99832,20.76712,32.234700202941895
1619375557.01395,18.48595,32.250330209732056
1619375557.02958,17.0582,32.26596021652222
1619375557.0452,16.18079,32.281580209732056
1619375557.06083,15.63812,32.29721021652222
1619375557.07645,15.31531,32.312830209732056
1619375557.09208,15.17403,32.32846021652222
1619375557.1077,15.13742,32.344080209732056
1619375557.12333,15.03746,32.35971021652222
1619375557.13896,14.61076,32.3753399848938
1619375557.15458,13.65157,32.39096021652222
1619375557.17021,12.10417,32.4065899848938
1619375557.18583,10.05722,32.42221021652222
1619375557.20146,7.762268,32.4378399848938
1619375557.21708,5.391998,32.45346021652222
1619375557.23271,3.054932,32.4690899848938
1619375557.24834,0.7492828,32.48471999168396
1619375557.26396,-1.537659,32.5003399848938
1619375557.27959,-3.737518,32.51596999168396
1619375557.29521,-5.684265,32.5315899848938
1619375557.31084,-7.233124,32.54721999168396
1619375557.32646,-8.452377,32.5628399848938
1619375557.34209,-9.643661,32.57846999168396
1619375557.35772,-11.35567,32.59409999847412
1619375557.37334,-14.03702,32.60971999168396
1619375557.38897,-17.72028,32.62534999847412
1619375557.40459,-21.73398,32.64096999168396
1619375557.42022,-24.71292,32.65659999847412
1619375557.43584,-24.80283,32.67221999168396
1619375557.45147,-20.25125,32.68784999847412
1619375557.4671,-9.970566,32.70348000526428
1619375557.48272,6.0215,32.71909999847412
1619375557.49835,26.49306,32.73473000526428
1619375557.51397,49.38657,32.75034999847412
1619375557.5296,72.33807,32.76598000526428
1619375557.54522,93.3688,32.78159999847412
1619375557.56085,111.3017,32.79723000526428
1619375557.57648,125.8928,32.81286001205444
1619375557.5921,137.6335,32.82848000526428
1619375557.60773,147.3973,32.84411001205444
1619375557.62335,156.1177,32.85973000526428
1619375557.63898,164.5371,32.87536001205444
1619375557.6546,173.135,32.89098000526428
1619375557.67023,182.0896,32.90661001205444
1619375557.68586,191.3005,32.922240018844604
1619375557.70148,200.4964,32.93786001205444
1619375557.71711,209.3593,32.953490018844604
1619375557.73273,217.688,32.96911001205444
1619375557.74836,225.5461,32.984740018844604
1619375557.76398,233.2711,33.00036001205444
1619375557.77961,241.3249,33.015990018844604
1619375557.79524,250.1486,33.031620025634766
1619375557.81086,259.8159,33.047240018844604
1619375557.82649,269.7782,33.062870025634766
1619375557.84211,278.6638,33.078490018844604
1619375557.85774,284.3963,33.094120025634766
1619375557.87336,284.5863,33.109740018844604
1619375557.88899,277.22,33.125370025634766
1619375557.90462,261.3817,33.14100003242493
1619375557.92024,237.5567,33.156620025634766
1619375557.93587,207.4774,33.17225003242493
1619375557.95149,173.4648,33.187870025634766
1619375557.96712,137.6953,33.20350003242493
1619375557.98274,101.5979,33.219120025634766
1619375557.99837,65.91412,33.23475003242493
1619375558.014,31.02798,33.25038003921509
1619375558.02962,-2.489014,33.26600003242493
1619375558.04525,-33.63184,33.28163003921509
1619375558.06087,-61.17108,33.29725003242493
1619375558.0765,-84.12613,33.31288003921509
1619375558.09212,-102.2513,33.32850003242493
1619375558.10775,-116.0448,33.34413003921509
1619375558.12338,-126.4595,33.35976004600525
1619375558.139,-134.3591,33.37538003921509
1619375558.15463,-140.0285,33.39101004600525
1619375558.17025,-143.1487,33.40663003921509
1619375558.18588,-143.0353,33.42226004600525
1619375558.2015,-139.2686,33.43788003921509
1619375558.21713,-132.2083,33.45351004600525
1619375558.23276,-123.2145,33.46914005279541
1619375558.24838,-114.3893,33.48476004600525
1619375558.26401,-107.8761,33.50039005279541
1619375558.27963,-105.1404,33.51601004600525
1619375558.29526,-106.3807,33.53164005279541
1619375558.31088,-110.5482,33.54726004600525
1619375558.32651,-115.9468,33.56289005279541
1619375558.34214,-121.0062,33.57852005958557
1619375558.35776,-124.9847,33.59414005279541
1619375558.37339,-128.2587,33.60977005958557
1619375558.38901,-132.1506,33.62539005279541
1619375558.40464,-138.533,33.64102005958557
1619375558.42026,-149.6467,33.65664005279541
1619375558.43589,-168.0562,33.67227005958557
1619375558.45152,-196.2587,33.68790006637573
1619375558.46714,-235.6353,33.70352005958557
1619375558.48277,-285.0496,33.71915006637573
1619375558.49839,-339.8383,33.73477005958557
1619375558.51402,-392.1729,33.75040006637573
1619375558.52964,-433.1771,33.76602005958557
1619375558.54527,-455.9697,33.78165006637573
1619375558.5609,-458.0804,33.797280073165894
1619375558.57652,-442.028,33.81290006637573
1619375558.59215,-413.5998,33.828530073165894
1619375558.60777,-378.9619,33.84415006637573
1619375558.6234,-342.332,33.859780073165894
1619375558.63902,-305.4948,33.87540006637573
1619375558.65465,-268.9761,33.891030073165894
1619375558.67028,-233.8464,33.906660079956055
1619375558.6859,-202.4564,33.922280073165894
1619375558.70153,-177.77,33.937910079956055
1619375558.71715,-161.7266,33.953530073165894
1619375558.73278,-153.8215,33.969160079956055
1619375558.7484,-151.1395,33.984780073165894
1619375558.76403,-149.7044,34.000410079956055
1619375558.77966,-146.3652,34.016040086746216
1619375558.79528,-139.8878,34.031660079956055
1619375558.81091,-130.8336,34.047290086746216
1619375558.82653,-120.5259,34.062910079956055
1619375558.84216,-109.629,34.078540086746216
1619375558.85779,-97.55377,34.09417009353638
1619375558.87341,-82.63354,34.109790086746216
1619375558.88904,-63.20355,34.12542009353638
1619375558.90466,-38.67114,34.141040086746216
1619375558.92029,-10.05548,34.15667009353638
1619375558.93591,20.23969,34.172290086746216
1619375558.95154,49.18707,34.18792009353638
1619375558.96717,74.18304,34.20355010032654
1619375558.98279,93.78302,34.21917009353638
1619375558.99842,107.8456,34.23480010032654
1619375559.01404,117.2383,34.25042009353638
1619375559.02967,123.2871,34.26605010032654
1619375559.04529,127.1238,34.28167009353638
1619375559.06092,129.4258,34.29730010032654
1619375559.07655,130.4175,34.3129301071167
1619375559.09217,129.9359,34.32855010032654
1619375559.1078,127.7781,34.3441801071167
1619375559.12342,123.8823,34.35980010032654
1619375559.13905,118.4472,34.3754301071167
1619375559.15467,111.9788,34.39105010032654
1619375559.1703,105.1223,34.4066801071167
1619375559.18593,98.56873,34.42231011390686
1619375559.20155,92.98712,34.4379301071167
1619375559.21718,88.81366,34.45356011390686
1619375559.2328,86.17169,34.4691801071167
1619375559.24843,84.7785,34.48481011390686
1619375559.26405,83.99652,34.5004301071167
1619375559.27968,82.9364,34.51606011390686
1619375559.29531,80.81061,34.53169012069702
1619375559.31093,77.19531,34.54731011390686
1619375559.32656,72.16815,34.56294012069702
1619375559.34218,66.36255,34.57856011390686
1619375559.35781,60.61078,34.59419012069702
1619375559.37343,55.68445,34.60981011390686
1619375559.38906,51.97906,34.62544012069702
1619375559.40469,49.41284,34.64107012748718
1619375559.42031,47.42883,34.65669012069702
1619375559.43594,45.24713,34.67232012748718
1619375559.45156,42.0531,34.68794012069702
1619375559.46719,37.17621,34.70357012748718
1619375559.48281,30.4165,34.71919012069702
1619375559.49844,22.13135,34.73482012748718
1619375559.51407,13.29004,34.750450134277344
1619375559.52969,5.368713,34.76607012748718
1619375559.54532,0.0355835,34.781700134277344
1619375559.56094,-1.441101,34.79732012748718
1619375559.57657,1.404175,34.812950134277344
1619375559.59219,7.92038,34.82857012748718
1619375559.60782,16.47162,34.844200134277344
1619375559.62345,24.96808,34.859830141067505
1619375559.63907,31.44772,34.875450134277344
1619375559.6547,34.71579,34.891080141067505
1619375559.67032,34.55991,34.906700134277344
1619375559.68595,31.69455,34.922330141067505
1619375559.70157,27.41785,34.937950134277344
1619375559.7172,23.05258,34.953580141067505
1619375559.73283,19.54916,34.969210147857666
1619375559.74845,17.19925,34.984830141067505
1619375559.76408,15.68216,35.000460147857666
1619375559.7797,14.24103,35.016080141067505
1619375559.79533,12.10291,35.031710147857666
1619375559.81095,8.881378,35.047330141067505
1619375559.82658,4.822449,35.062960147857666
1619375559.84221,0.7590942,35.07859015464783
1619375559.85783,-2.231079,35.094210147857666
1619375559.87346,-3.280823,35.10984015464783
1619375559.88908,-2.135406,35.125460147857666
1619375559.90471,0.7806702,35.14109015464783
1619375559.92033,4.518311,35.156710147857666
1619375559.93596,8.042755,35.17234015464783
1619375559.95159,10.55591,35.18797016143799
1619375559.96721,11.64322,35.20359015464783
1619375559.98284,11.26553,35.21922016143799
1619375559.99846,9.653381,35.23484015464783
1619375560.01409,7.360168,35.25047016143799
1619375560.02971,5.159271,35.26609015464783
1619375560.04534,3.950867,35.28172016143799
1619375560.06097,4.414642,35.29735016822815
1619375560.07659,6.630005,35.31297016143799
1619375560.09222,9.743011,35.32860016822815
1619375560.10784,12.12173,35.34422016143799
1619375560.12347,11.92264,35.35985016822815
1619375560.13909,7.937347,35.37547016143799
1619375560.15472,0.4142761,35.39110016822815
1619375560.17035,-8.845245,35.40673017501831
1619375560.18597,-16.99905,35.42235016822815
1619375560.2016,-21.29068,35.43798017501831
1619375560.21722,-20.03735,35.45360016822815
1619375560.23285,-13.32684,35.46923017501831
1619375560.24847,-2.781494,35.48485016822815
1619375560.2641,9.16452,35.50048017501831
1619375560.27973,20.14703,35.51611018180847
1619375560.29535,28.59232,35.53173017501831
1619375560.31098,33.84967,35.54736018180847
1619375560.3266,35.98975,35.56298017501831
1619375560.34223,35.36636,35.57861018180847
1619375560.35785,32.33588,35.59423017501831
1619375560.37348,27.07745,35.60986018180847
1619375560.38911,19.77209,35.62549018859863
1619375560.40473,10.75275,35.64111018180847
1619375560.42036,0.5121765,35.65674018859863
1619375560.43598,-10.33841,35.67236018180847
1619375560.45161,-21.17209,35.68799018859863
1619375560.46723,-31.43729,35.70361018180847
1619375560.48286,-40.63898,35.71924018859863
1619375560.49849,-48.32996,35.734870195388794
1619375560.51411,-54.10068,35.75049018859863
1619375560.52974,-57.64984,35.766120195388794
1619375560.54536,-58.84985,35.78174018859863
1619375560.56099,-57.87213,35.797370195388794
1619375560.57661,-55.19983,35.81299018859863
1619375560.59224,-51.50189,35.828620195388794
1619375560.60787,-47.46558,35.844250202178955
1619375560.62349,-43.55927,35.859870195388794
1619375560.63912,-39.92374,35.875500202178955
1619375560.65474,-36.42059,35.891120195388794
1619375560.67037,-32.8353,35.906750202178955
1619375560.68599,-29.07608,35.922370195388794
1619375560.70162,-25.44681,35.938000202178955
1619375560.71725,-22.58838,35.953630208969116
1619375560.73287,-21.3826,35.969250202178955
1619375560.7485,-22.57236,35.984880208969116
1619375560.76412,-26.32028,36.000500202178955
1619375560.77975,-31.88486,36.016130208969116
1619375560.79537,-37.63077,36.031750202178955
1619375560.811,-41.30966,36.047380208969116
1619375560.82663,-40.77002,36.06301021575928
1619375560.84225,-34.68222,36.078630208969116
1619375560.85788,-23.07687,36.09426021575928
1619375560.8735,-7.435089,36.109880208969116
1619375560.88913,9.771179,36.12551021575928
1619375560.90475,25.86911,36.141130208969116
1619375560.92038,38.74976,36.15676021575928
1619375560.93601,47.27161,36.17238998413086
1619375560.95163,51.31302,36.18801021575928
1619375560.96726,51.41985,36.20363998413086
1619375560.98288,48.41496,36.21926021575928
1619375560.99851,43.19655,36.23488998413086
1619375561.01413,36.67488,36.25051021575928
1619375561.02976,29.82175,36.26613998413086
1619375561.04539,23.59563,36.28176999092102
1619375561.06101,18.77039,36.29738998413086
1619375561.07664,15.75043,36.31301999092102
1619375561.09226,14.46486,36.32863998413086
1619375561.10789,14.50581,36.34426999092102
1619375561.12352,15.33789,36.35989999771118
1619375561.13914,16.48813,36.37551999092102
1619375561.15477,17.61279,36.39114999771118
1619375561.17039,18.51979,36.40676999092102
1619375561.18602,19.05499,36.42239999771118
1619375561.20164,19.11139,36.43801999092102
1619375561.21727,18.64966,36.45364999771118
1619375561.2329,17.73466,36.46928000450134
1619375561.24852,16.48236,36.48489999771118
1619375561.26415,14.96387,36.50053000450134
1619375561.27977,13.08931,36.51614999771118
1619375561.2954,10.56367,36.53178000450134
1619375561.31102,6.981674,36.54739999771118
1619375561.32665,2.053101,36.56303000450134
1619375561.34228,-4.222137,36.578660011291504
1619375561.3579,-11.47704,36.59428000450134
1619375561.37353,-18.95255,36.609910011291504
1619375561.38915,-25.55644,36.62553000450134
1619375561.40478,-29.94826,36.641160011291504
1619375561.4204,-30.77913,36.65678000450134
1619375561.43603,-27.03496,36.672410011291504
1619375561.45166,-18.39484,36.688040018081665
1619375561.46728,-5.485275,36.703660011291504
1619375561.48291,10.12607,36.719290018081665
1619375561.49853,26.27879,36.734910011291504
1619375561.51416,40.75683,36.750540018081665
1619375561.52978,51.9273,36.766160011291504
1619375561.54541,59.06717,36.781790018081665
1619375561.56104,62.36919,36.797420024871826
1619375561.57666,62.61346,36.813040018081665
1619375561.59229,60.69756,36.828670024871826
1619375561.60791,57.30199,36.844290018081665
1619375561.62354,52.77769,36.859920024871826
1619375561.63916,47.24013,36.875540018081665
1619375561.65479,40.88159,36.891170024871826
1619375561.67042,34.09495,36.90680003166199
1619375561.68604,27.52048,36.922420024871826
1619375561.70167,21.88935,36.93805003166199
1619375561.71729,17.72553,36.953670024871826
1619375561.73292,15.12489,36.96930003166199
1619375561.74854,13.68742,36.984920024871826
1619375561.76417,12.65289,37.00055003166199
1619375561.7798,11.24442,37.01618003845215
1619375561.79542,8.992355,37.03180003166199
1619375561.81105,5.895309,37.04743003845215
1619375561.82667,2.352577,37.06305003166199
1619375561.8423,-1.070061,37.07868003845215
1619375561.85792,-3.957443,37.09430003166199
1619375561.87355,-6.260788,37.10993003845215
1619375561.88918,-8.28717,37.12556004524231
1619375561.9048,-10.50776,37.14118003845215
1619375561.92043,-13.3576,37.15681004524231
1619375561.93605,-17.15237,37.17243003845215
1619375561.95168,-22.01042,37.18806004524231
1619375561.9673,-27.89057,37.20368003845215
1619375561.98293,-34.44795,37.21931004524231
1619375561.99856,-40.87776,37.23494005203247
1619375562.01418,-45.83209,37.25056004524231
1619375562.02981,-47.61023,37.26619005203247
1619375562.04543,-44.64227,37.28181004524231
1619375562.06106,-36.17072,37.29744005203247
1619375562.07668,-22.69947,37.31306004524231
1619375562.09231,-6.040085,37.32869005203247
1619375562.10794,11.19382,37.34432005882263
1619375562.12356,26.43424,37.35994005203247
1619375562.13919,37.85445,37.37557005882263
1619375562.15481,44.80087,37.39119005203247
1619375562.17044,47.69207,37.40682005882263
1619375562.18606,47.49429,37.42244005203247
1619375562.20169,45.31461,37.43807005882263
1619375562.21732,41.97815,37.45370006561279
1619375562.23294,37.97013,37.46932005882263
1619375562.24857,33.52945,37.48495006561279
1619375562.26419,28.80357,37.50057005882263
1619375562.27982,23.9399,37.51620006561279
1619375562.29544,19.11721,37.53182005882263
1619375562.31107,14.57616,37.54745006561279
1619375562.3267,10.51637,37.563080072402954
1619375562.34232,7.175076,37.57870006561279
1619375562.35795,4.725956,37.594330072402954
1619375562.37357,3.255951,37.60995006561279
1619375562.3892,2.643745,37.625580072402954
1619375562.40482,2.544067,37.64120006561279
1619375562.42045,2.418743,37.656830072402954
1619375562.43608,1.740295,37.672460079193115
1619375562.4517,0.1667862,37.688080072402954
1619375562.46733,-2.28289,37.703710079193115
1619375562.48295,-5.261631,37.719330072402954
1619375562.49858,-8.310886,37.734960079193115
1619375562.5142,-11.07922,37.750580072402954
1619375562.52983,-13.52813,37.766210079193115
1619375562.54546,-15.85166,37.781840085983276
1619375562.56108,-18.40688,37.797460079193115
1619375562.57671,-21.49329,37.813090085983276
1619375562.59233,-25.2995,37.828710079193115
1619375562.60796,-29.77146,37.844340085983276
1619375562.62358,-34.48127,37.859960079193115
1619375562.63921,-38.57841,37.875590085983276
1619375562.65484,-40.80632,37.89122009277344
1619375562.67046,-39.71294,37.906840085983276
1619375562.68609,-34.17503,37.92247009277344
1619375562.70171,-23.94359,37.938090085983276
1619375562.71734,-9.947552,37.95372009277344
1619375562.73296,5.848724,37.969340085983276
1619375562.74859,20.99617,37.98497009277344
1619375562.76422,33.38399,38.0006000995636
1619375562.77984,41.79646,38.01622009277344
1619375562.79547,46.08886,38.0318500995636
1619375562.81109,46.93166,38.04747009277344
1619375562.82672,45.25124,38.0631000995636
1619375562.84234,41.89939,38.07872009277344
1619375562.85797,37.46285,38.0943500995636
1619375562.8736,32.4213,38.10998010635376
1619375562.88922,27.14465,38.1256000995636
1619375562.90485,22.06745,38.14123010635376
1619375562.92047,17.47329,38.1568500995636
1619375562.9361,13.50377,38.17248010635376
1619375562.95172,10.11975,38.1881000995636
1619375562.96735,7.272766,38.20373010635376
1619375562.98298,5.048676,38.21936011314392
1619375562.9986,3.727001,38.23498010635376
1619375563.01423,3.703243,38.25061011314392
1619375563.02985,5.184914,38.26623010635376
1619375563.04548,8.047394,38.28186011314392
1619375563.0611,11.68641,38.29748010635376
1619375563.07673,15.21482,38.31311011314392
1619375563.09236,17.78377,38.32874011993408
1619375563.10798,18.87245,38.34436011314392
1619375563.12361,18.48847,38.35999011993408
1619375563.13923,17.1175,38.37561011314392
1619375563.15486,15.42177,38.39124011993408
1619375563.17048,13.92362,38.40686011314392
1619375563.18611,12.80138,38.42249011993408
1619375563.20174,11.91019,38.43812012672424
1619375563.21736,10.89471,38.45374011993408
1619375563.23299,9.433884,38.46937012672424
1619375563.24861,7.297859,38.48499011993408
1619375563.26424,4.406601,38.50062012672424
1619375563.27987,0.9168243,38.516250133514404
1619375563.29549,-2.60495,38.53187012672424
1619375563.31112,-5.086746,38.547500133514404
1619375563.32674,-4.978233,38.56312012672424
1619375563.34237,-0.6524582,38.578750133514404
1619375563.35799,8.997681,38.59437012672424
1619375563.37362,24.01105,38.610000133514404
1619375563.38925,43.17995,38.625630140304565
1619375563.40487,64.43014,38.641250133514404
1619375563.4205,85.51934,38.656880140304565
1619375563.43612,104.8253,38.672500133514404
1619375563.45175,121.5982,38.688130140304565
1619375563.46737,135.9465,38.703750133514404
1619375563.483,148.3598,38.719380140304565
1619375563.49863,159.2186,38.73501014709473
1619375563.51425,168.6762,38.750630140304565
1619375563.52988,176.715,38.76626014709473
1619375563.5455,183.4715,38.781880140304565
1619375563.56113,189.3341,38.79751014709473
1619375563.57675,194.9538,38.813130140304565
1619375563.59238,201.0332,38.82876014709473
1619375563.60801,208.208,38.84439015388489
1619375563.62363,216.8317,38.86001014709473
1619375563.63926,226.9012,38.87564015388489
1619375563.65488,237.9434,38.89126014709473
1619375563.67051,248.9809,38.90689015388489
1619375563.68613,258.5576,38.92251014709473
1619375563.70176,264.8858,38.93814015388489
1619375563.71739,266.2004,38.95377016067505
1619375563.73301,261.1647,38.96939015388489
1619375563.74864,249.256,38.98502016067505
1619375563.76426,230.869,39.00064015388489
1619375563.77989,207.2403,39.01627016067505
1619375563.79551,180.1682,39.03189015388489
1619375563.81114,151.5821,39.04752016067505
1619375563.82677,123.2707,39.06315016746521
1619375563.84239,96.58774,39.07877016067505
1619375563.85802,72.44885,39.09440016746521
1619375563.87364,51.22699,39.11002016067505
1619375563.88927,32.83899,39.12565016746521
1619375563.90489,16.82672,39.14127016067505
1619375563.92052,2.557068,39.15690016746521
1619375563.93615,-10.49475,39.17253017425537
1619375563.95177,-22.59564,39.18815016746521
1619375563.9674,-33.62543,39.20378017425537
1619375563.98302,-43.24542,39.21940016746521
1619375563.99865,-51.16162,39.23503017425537
1619375564.01427,-57.41235,39.25065016746521
1619375564.0299,-62.49908,39.26628017425537
1619375564.04553,-67.29608,39.28191018104553
1619375564.06115,-72.66724,39.29753017425537
1619375564.07678,-79.09137,39.31316018104553
1619375564.0924,-86.45111,39.32878017425537
1619375564.10803,-94.00403,39.34441018104553
1619375564.12365,-100.8525,39.36003017425537
1619375564.13928,-106.4192,39.37566018104553
1619375564.15491,-110.8931,39.39129018783569
1619375564.17053,-115.3603,39.40691018104553
1619375564.18616,-121.3738,39.42254018783569
1619375564.20178,-130.3302,39.43816018104553
1619375564.21741,-142.7684,39.45379018783569
1619375564.23303,-158.1096,39.46941018104553
1619375564.24866,-174.9478,39.48504018783569
1619375564.26429,-191.5988,39.500670194625854
1619375564.27991,-206.9072,39.51629018783569
1619375564.29554,-220.663,39.531920194625854
1619375564.31116,-233.7454,39.54754018783569
1619375564.32679,-247.8032,39.563170194625854
1619375564.34241,-265.1064,39.57879018783569
1619375564.35804,-288.3279,39.594420194625854
1619375564.37367,-320.0177,39.610050201416016
1619375564.38929,-361.5037,39.625670194625854
1619375564.40492,-411.4503,39.641300201416016
1619375564.42054,-464.9567,39.656920194625854
1619375564.43617,-514.0111,39.672550201416016
1619375564.45179,-549.7328,39.688170194625854
1619375564.46742,-565.4907,39.703800201416016
1619375564.48305,-559.4297,39.71943020820618
1619375564.49867,-535.0848,39.735050201416016
1619375564.5143,-499.6383,39.75068020820618
1619375564.52992,-460.6898,39.766300201416016
1619375564.54555,-423.4537,39.78193020820618
1619375564.56117,-389.6259,39.797550201416016
1619375564.5768,-358.2183,39.81318020820618
1619375564.59243,-327.4639,39.82881021499634
1619375564.60805,-296.392,39.84443020820618
1619375564.62368,-265.1691,39.86006021499634
1619375564.6393,-234.2723,39.87568020820618
1619375564.65493,-203.4987,39.89131021499634
1619375564.67055,-171.5151,39.90693020820618
1619375564.68618,-136.6084,39.92256021499634
1619375564.70181,-97.78784,39.93818998336792
1619375564.71743,-55.72705,39.95381021499634
1619375564.73306,-12.78625,39.96943998336792
1619375564.74868,27.62378,39.98506021499634
1619375564.76431,62.47595,40.00068998336792
1619375564.77993,90.17236,40.01631021499634
1619375564.79556,110.9265,40.03193998336792
1619375564.81119,126.3906,40.04756999015808
1619375564.82681,138.6161,40.06318998336792
1619375564.84244,149.1622,40.07881999015808
1619375564.85806,158.5812,40.09443998336792
1619375564.87369,166.4237,40.11006999015808
1619375564.88931,171.7638,40.12568998336792
1619375564.90494,173.8596,40.14131999015808
1619375564.92057,172.5133,40.15694999694824
1619375564.93619,168.1299,40.17256999015808
1619375564.95182,161.5585,40.18819999694824
1619375564.96744,153.7057,40.20381999015808
1619375564.98307,145.3411,40.21944999694824
1619375564.99869,137.0522,40.23506999015808
1619375565.01432,129.2041,40.25069999694824
1619375565.02995,122.0523,40.2663300037384
1619375565.04557,115.857,40.28194999694824
1619375565.0612,110.7835,40.2975800037384
1619375565.07682,106.8053,40.31319999694824
1619375565.09245,103.7026,40.3288300037384
1619375565.10807,100.9937,40.34444999694824
1619375565.1237,98.09601,40.3600800037384
1619375565.13933,94.60583,40.375710010528564
1619375565.15495,90.37885,40.3913300037384
1619375565.17058,85.63635,40.406960010528564
1619375565.1862,80.78009,40.4225800037384
1619375565.20183,76.16724,40.438210010528564
1619375565.21745,71.88574,40.4538300037384
1619375565.23308,67.76074,40.469460010528564
1619375565.24871,63.40619,40.485090017318726
1619375565.26433,58.44965,40.500710010528564
1619375565.27996,52.72919,40.516340017318726
1619375565.29558,46.28302,40.531960010528564
1619375565.31121,39.33423,40.547590017318726
1619375565.32683,32.18317,40.563210010528564
1619375565.34246,25.07986,40.578840017318726
1619375565.35809,18.23746,40.59447002410889
1619375565.37371,11.81912,40.610090017318726
1619375565.38934,5.858582,40.62572002410889
1619375565.40496,0.2335205,40.641340017318726
1619375565.42059,-5.331848,40.65697002410889
1619375565.43621,-11.25009,40.672590017318726
1619375565.45184,-17.81885,40.68822002410889
1619375565.46747,-24.91946,40.70385003089905
1619375565.48309,-31.78986,40.71947002410889
1619375565.49872,-36.98257,40.73510003089905
1619375565.51434,-38.74875,40.75072002410889
1619375565.52997,-35.59036,40.76635003089905
1619375565.54559,-26.88565,40.78197002410889
1619375565.56122,-13.17267,40.79760003089905
1619375565.57685,3.86264,40.81323003768921
1619375565.59247,21.86334,40.82885003089905
1619375565.6081,38.44412,40.84448003768921
1619375565.62372,51.77493,40.86010003089905
1619375565.63935,60.96893,40.87573003768921
1619375565.65497,66.02454,40.89135003089905
1619375565.6706,67.63757,40.90698003768921
1619375565.68623,66.70172,40.92261004447937
1619375565.70185,64.06555,40.93823003768921
1619375565.71748,60.35925,40.95386004447937
1619375565.7331,56.00687,40.96948003768921
1619375565.74873,51.35815,40.98511004447937
1619375565.76435,46.79742,41.00073003768921
1619375565.77998,42.7319,41.01636004447937
1619375565.79561,39.52286,41.03199005126953
1619375565.81123,37.34631,41.04761004447937
1619375565.82686,36.13397,41.06324005126953
1619375565.84248,35.67404,41.07886004447937
1619375565.85811,35.72293,41.09449005126953
1619375565.87373,36.02423,41.11011004447937
1619375565.88936,36.40683,41.12574005126953
1619375565.90499,36.6683,41.14137005805969
1619375565.92061,36.58032,41.15699005126953
1619375565.93624,35.86153,41.17262005805969
1619375565.95186,34.33803,41.18824005126953
1619375565.96749,32.02312,41.20387005805969
1619375565.98312,29.18074,41.21950006484985
1619375565.99874,26.214,41.23512005805969
1619375566.01437,23.42462,41.25075006484985
1619375566.02999,20.9314,41.26637005805969
1619375566.04562,18.57407,41.28200006484985
1619375566.06124,15.98668,41.29762005805969
1619375566.07687,12.84422,41.31325006484985
1619375566.0925,8.980698,41.328880071640015
1619375566.10812,4.416443,41.34450006484985
1619375566.12375,-0.6808014,41.360130071640015
1619375566.13937,-6.03801,41.37575006484985
1619375566.155,-11.41841,41.391380071640015
1619375566.17062,-16.56754,41.40700006484985
1619375566.18625,-21.31537,41.422630071640015
1619375566.20188,-25.69641,41.438260078430176
1619375566.2175,-29.98596,41.453880071640015
1619375566.23313,-34.7039,41.469510078430176
1619375566.24875,-40.35033,41.485130071640015
1619375566.26438,-47.02783,41.500760078430176
1619375566.28,-53.97185,41.516380071640015
1619375566.29563,-59.54086,41.532010078430176
1619375566.31126,-61.60693,41.54764008522034
1619375566.32688,-58.35181,41.563260078430176
1619375566.34251,-49.0975,41.57889008522034
1619375566.35813,-34.61563,41.594510078430176
1619375566.37376,-17.00101,41.61014008522034
1619375566.38938,1.114594,41.625760078430176
1619375566.40501,17.34124,41.64139008522034
1619375566.42064,30.2055,41.6570200920105
1619375566.43626,39.17815,41.67264008522034
1619375566.45189,44.44731,41.6882700920105
1619375566.46751,46.5099,41.70389008522034
1619375566.48314,45.9194,41.7195200920105
1619375566.49876,43.20061,41.73514008522034
1619375566.51439,38.89248,41.7507700920105
1619375566.53002,33.62666,41.76640009880066
1619375566.54564,28.09267,41.7820200920105
1619375566.56127,22.93558,41.79765009880066
1619375566.57689,18.61701,41.8132700920105
1619375566.59252,15.31112,41.82890009880066
1619375566.60814,13.00261,41.8445200920105
1619375566.62377,11.4612,41.86015009880066
1619375566.6394,10.43289,41.87578010559082
1619375566.65502,9.713062,41.89140009880066
1619375566.67065,9.281113,41.90703010559082
1619375566.68627,9.246548,41.92265009880066
1619375566.7019,9.727261,41.93828010559082
1619375566.71752,10.69643,41.95390009880066
1619375566.73315,11.84286,41.96953010559082
1619375566.74878,12.62942,41.98516011238098
1619375566.7644,12.37464,42.00078010559082
1619375566.78003,10.50953,42.01641011238098
1619375566.79565,6.747101,42.03203010559082
1619375566.81128,1.222079,42.04766011238098
1619375566.8269,-5.592204,42.06328010559082
1619375566.84253,-13.02522,42.07891011238098
1619375566.85816,-20.35059,42.09454011917114
1619375566.87378,-27.00739,42.11016011238098
1619375566.88941,-32.71877,42.12579011917114
1619375566.90503,-37.54391,42.14141011238098
1619375566.92066,-41.82421,42.15704011917114
