timestamp,value,norm_ts
1619375637.54893,63.67395,0.9389300346374512
1619375637.56456,75.03998,0.9545600414276123
1619375637.58018,82.24146,0.9701800346374512
1619375637.59581,85.49304,0.9858100414276123
1619375637.61143,85.92096,1.0014300346374512
1619375637.62706,84.97278,1.0170600414276123
1619375637.64268,83.71588,1.0326800346374512
1619375637.65831,82.40546,1.0483100414276123
1619375637.67394,80.54883,1.0639400482177734
1619375637.68956,77.3858,1.0795600414276123
1619375637.70519,72.43964,1.0951900482177734
1619375637.72081,65.90039,1.1108100414276123
1619375637.73644,58.6228,1.1264400482177734
1619375637.75206,51.83777,1.1420600414276123
1619375637.76769,46.72046,1.1576900482177734
1619375637.78332,44.01654,1.1733200550079346
1619375637.79894,43.89459,1.1889400482177734
1619375637.81457,45.99078,1.2045700550079346
1619375637.83019,49.62939,1.2201900482177734
1619375637.84582,54.05212,1.2358200550079346
1619375637.86144,58.61346,1.2514400482177734
1619375637.87707,62.8996,1.2670700550079346
1619375637.8927,66.72095,1.2827000617980957
1619375637.90832,70.05328,1.2983200550079346
1619375637.92395,73.04706,1.3139500617980957
1619375637.93957,75.93475,1.3295700550079346
1619375637.9552,78.85529,1.3452000617980957
1619375637.97082,81.66321,1.3608200550079346
1619375637.98645,83.73077,1.3764500617980957
1619375638.00208,83.82904,1.3920800685882568
1619375638.0177,80.42175,1.4077000617980957
1619375638.03333,72.07507,1.4233300685882568
1619375638.04895,58.00494,1.4389500617980957
1619375638.06458,38.48492,1.4545800685882568
1619375638.0802,14.85059,1.4702000617980957
1619375638.09583,-10.81177,1.4858300685882568
1619375638.11146,-36.05554,1.501460075378418
1619375638.12708,-58.46301,1.5170800685882568
1619375638.14271,-75.81244,1.532710075378418
1619375638.15833,-86.12775,1.5483300685882568
1619375638.17396,-87.75684,1.563960075378418
1619375638.18958,-79.69843,1.5795800685882568
1619375638.20521,-62.09631,1.595210075378418
1619375638.22084,-36.5,1.610840082168579
1619375638.23646,-5.910645,1.626460075378418
1619375638.25209,25.90265,1.642090082168579
1619375638.26771,55.24475,1.657710075378418
1619375638.28334,79.44574,1.673340082168579
1619375638.29896,97.38312,1.688960075378418
1619375638.31459,109.6786,1.704590082168579
1619375638.33022,118.3685,1.7202200889587402
1619375638.34584,126.2449,1.735840082168579
1619375638.36147,135.9904,1.7514700889587402
1619375638.37709,149.2175,1.767090082168579
1619375638.39272,165.8834,1.7827200889587402
1619375638.40834,184.0798,1.798340082168579
1619375638.42397,200.6251,1.8139700889587402
1619375638.4396,212.0757,1.8296000957489014
1619375638.45522,215.9846,1.8452200889587402
1619375638.47085,211.6956,1.8608500957489014
1619375638.48647,200.5121,1.8764700889587402
1619375638.5021,185.1059,1.8921000957489014
1619375638.51772,168.4173,1.9077200889587402
1619375638.53335,152.5629,1.9233500957489014
1619375638.54898,138.2337,1.9389801025390625
1619375638.5646,124.7951,1.9546000957489014
1619375638.58023,110.9234,1.9702301025390625
1619375638.59585,95.36853,1.9858500957489014
1619375638.61148,77.52164,2.0014801025390625
1619375638.6271,57.6521,2.0171000957489014
1619375638.64273,36.69223,2.0327301025390625
1619375638.65836,15.71948,2.0483601093292236
1619375638.67398,-4.412628,2.0639801025390625
1619375638.68961,-23.26996,2.0796101093292236
1619375638.70523,-40.73163,2.0952301025390625
1619375638.72086,-56.62967,2.1108601093292236
1619375638.73648,-70.6676,2.1264801025390625
1619375638.75211,-82.54846,2.1421101093292236
1619375638.76774,-92.2532,2.1577401161193848
1619375638.78336,-100.2505,2.1733601093292236
1619375638.79899,-107.5409,2.1889901161193848
1619375638.81461,-115.3346,2.2046101093292236
1619375638.83024,-124.5677,2.2202401161193848
1619375638.84586,-135.4315,2.2358601093292236
1619375638.86149,-147.0126,2.2514901161193848
1619375638.87712,-157.3052,2.267120122909546
1619375638.89274,-163.6083,2.2827401161193848
1619375638.90837,-163.3687,2.298370122909546
1619375638.92399,-155.107,2.3139901161193848
1619375638.93962,-139.153,2.329620122909546
1619375638.95524,-117.7318,2.3452401161193848
1619375638.97087,-94.40002,2.360870122909546
1619375638.9865,-72.90491,2.376500129699707
1619375639.00212,-55.98737,2.392120122909546
1619375639.01775,-44.70624,2.407750129699707
1619375639.03337,-38.55859,2.423370122909546
1619375639.049,-36.29417,2.439000129699707
1619375639.06462,-36.75652,2.454620122909546
1619375639.08025,-39.38437,2.470250129699707
1619375639.09588,-44.04541,2.485880136489868
1619375639.1115,-50.5508,2.501500129699707
1619375639.12713,-58.20527,2.517130136489868
1619375639.14275,-65.83295,2.532750129699707
1619375639.15838,-72.21146,2.548380136489868
1619375639.174,-76.66396,2.564000129699707
1619375639.18963,-79.32557,2.579630136489868
1619375639.20526,-80.98347,2.5952601432800293
1619375639.22088,-82.56729,2.610880136489868
1619375639.23651,-84.62348,2.6265101432800293
1619375639.25213,-87.13406,2.642130136489868
1619375639.26776,-89.67223,2.6577601432800293
1619375639.28338,-91.87238,2.673380136489868
1619375639.29901,-93.75229,2.6890101432800293
1619375639.31464,-95.88645,2.7046401500701904
1619375639.33026,-99.16281,2.7202601432800293
1619375639.34589,-104.4,2.7358901500701904
1619375639.36151,-111.9523,2.7515101432800293
1619375639.37714,-121.3757,2.7671401500701904
1619375639.39277,-131.3598,2.7827701568603516
1619375639.40839,-139.9751,2.7983901500701904
1619375639.42402,-145.1828,2.8140201568603516
1619375639.43964,-145.395,2.8296401500701904
1619375639.45527,-139.9534,2.8452701568603516
1619375639.47089,-129.301,2.8608901500701904
1619375639.48652,-114.801,2.8765201568603516
1619375639.50215,-98.36136,2.8921501636505127
1619375639.51777,-81.90709,2.9077701568603516
1619375639.5334,-66.93446,2.9234001636505127
1619375639.54902,-54.13306,2.9390201568603516
1619375639.56465,-43.25649,2.9546501636505127
1619375639.58027,-33.17876,2.9702701568603516
1619375639.5959,-22.24464,2.9859001636505127
1619375639.61153,-8.921715,3.001530170440674
1619375639.62715,7.590034,3.0171501636505127
1619375639.64278,26.91674,3.032780170440674
1619375639.6584,47.61482,3.0484001636505127
1619375639.67403,67.64651,3.064030170440674
1619375639.68965,85.13791,3.0796501636505127
1619375639.70528,98.95393,3.095280170440674
1619375639.72091,108.8622,3.110910177230835
1619375639.73653,115.281,3.126530170440674
1619375639.75216,118.8348,3.142160177230835
1619375639.76778,119.999,3.157780170440674
1619375639.78341,118.9513,3.173410177230835
1619375639.79903,115.7141,3.189030170440674
1619375639.81466,110.2024,3.204660177230835
1619375639.83029,102.3765,3.220290184020996
1619375639.84591,92.37404,3.235910177230835
1619375639.86154,80.59413,3.251540184020996
1619375639.87716,67.77213,3.267160177230835
1619375639.89279,54.92766,3.282790184020996
1619375639.90841,43.18634,3.298410177230835
1619375639.92404,33.46748,3.314040184020996
1619375639.93967,26.28529,3.3296701908111572
1619375639.95529,21.68553,3.345290184020996
1619375639.97092,19.35066,3.3609201908111572
1619375639.98654,18.84435,3.376540184020996
1619375640.00217,19.68716,3.3921701908111572
1619375640.01779,21.43227,3.407790184020996
1619375640.03342,23.52078,3.4234201908111572
1619375640.04905,25.31003,3.4390501976013184
1619375640.06467,26.09758,3.4546701908111572
1619375640.0803,25.32678,3.4703001976013184
1619375640.09592,22.79698,3.4859201908111572
1619375640.11155,18.7357,3.5015501976013184
1619375640.12717,13.80981,3.5171701908111572
1619375640.1428,8.80159,3.5328001976013184
1619375640.15843,4.394836,3.5484302043914795
1619375640.17405,0.790741,3.5640501976013184
1619375640.18968,-2.339493,3.5796802043914795
1619375640.2053,-5.723053,3.5953001976013184
1619375640.22093,-10.2562,3.6109302043914795
1619375640.23655,-16.53731,3.6265501976013184
1619375640.25218,-24.59401,3.6421802043914795
1619375640.26781,-33.63092,3.6578102111816406
1619375640.28343,-42.18661,3.6734302043914795
1619375640.29906,-48.36986,3.6890602111816406
1619375640.31468,-50.38844,3.7046802043914795
1619375640.33031,-47.05988,3.7203102111816406
1619375640.34593,-38.19524,3.7359302043914795
1619375640.36156,-24.77667,3.7515602111816406
1619375640.37719,-8.704437,3.7671902179718018
1619375640.39281,7.619247,3.7828102111816406
1619375640.40844,22.04286,3.7984402179718018
1619375640.42406,33.12134,3.8140602111816406
1619375640.43969,40.39893,3.8296902179718018
1619375640.45531,44.2464,3.8453102111816406
1619375640.47094,45.47948,3.8609402179718018
1619375640.48657,44.93665,3.876569986343384
1619375640.50219,43.15912,3.8921902179718018
1619375640.51782,40.4828,3.907819986343384
1619375640.53344,37.05038,3.9234402179718018
1619375640.54907,32.98555,3.939069986343384
1619375640.56469,28.48163,3.9546902179718018
1619375640.58032,23.73036,3.970319986343384
1619375640.59595,18.90051,3.985949993133545
1619375640.61157,14.1133,4.001569986343384
1619375640.6272,9.561707,4.017199993133545
1619375640.64282,5.453522,4.032819986343384
1619375640.65845,2.193329,4.048449993133545
1619375640.67407,0.1496735,4.064069986343384
1619375640.6897,-0.4903717,4.079699993133545
1619375640.70533,0.1717072,4.095329999923706
1619375640.72095,1.645966,4.110949993133545
1619375640.73658,3.290451,4.126579999923706
1619375640.7522,4.41748,4.142199993133545
1619375640.76783,4.585098,4.157829999923706
1619375640.78345,3.634995,4.173449993133545
1619375640.79908,1.721497,4.189079999923706
1619375640.81471,-0.8559113,4.204710006713867
1619375640.83033,-3.76622,4.220329999923706
1619375640.84596,-6.77803,4.235960006713867
1619375640.86158,-9.790771,4.251579999923706
1619375640.87721,-12.81284,4.267210006713867
1619375640.89283,-16.05882,4.282829999923706
1619375640.90846,-19.82077,4.298460006713867
1619375640.92409,-24.51714,4.314090013504028
1619375640.93971,-30.3905,4.329710006713867
1619375640.95534,-37.25674,4.345340013504028
1619375640.97096,-44.15323,4.360960006713867
1619375640.98659,-49.38647,4.376590013504028
1619375641.00221,-50.97667,4.392210006713867
1619375641.01784,-47.30991,4.407840013504028
1619375641.03347,-37.84505,4.4234700202941895
1619375641.04909,-23.45026,4.439090013504028
1619375641.06472,-6.144501,4.4547200202941895
1619375641.08034,11.55077,4.470340013504028
1619375641.09597,27.3903,4.4859700202941895
1619375641.11159,39.95805,4.501590013504028
1619375641.12722,48.7923,4.5172200202941895
1619375641.14285,54.15002,4.532850027084351
1619375641.15847,56.62573,4.5484700202941895
1619375641.1741,56.96799,4.564100027084351
1619375641.18972,55.92543,4.5797200202941895
1619375641.20535,54.20972,4.595350027084351
1619375641.22097,52.40785,4.6109700202941895
1619375641.2366,50.89903,4.626600027084351
1619375641.25223,49.72188,4.642230033874512
1619375641.26785,48.70166,4.657850027084351
1619375641.28348,47.69537,4.673480033874512
1619375641.2991,46.80347,4.689100027084351
1619375641.31473,46.49188,4.704730033874512
1619375641.33035,47.40956,4.720350027084351
1619375641.34598,50.12698,4.735980033874512
1619375641.36161,54.86575,4.751610040664673
1619375641.37723,61.32396,4.767230033874512
1619375641.39286,68.66568,4.782860040664673
1619375641.40848,75.7142,4.798480033874512
1619375641.42411,81.1017,4.814110040664673
1619375641.43973,83.44229,4.829730033874512
1619375641.45536,81.57523,4.845360040664673
1619375641.47099,74.74433,4.860990047454834
1619375641.48661,62.86395,4.876610040664673
1619375641.50224,46.68397,4.892240047454834
1619375641.51786,27.71967,4.907860040664673
1619375641.53349,7.873718,4.923490047454834
1619375641.54911,-11.15945,4.939110040664673
1619375641.56474,-28.42323,4.954740047454834
1619375641.58037,-43.93087,4.970370054244995
1619375641.59599,-58.31733,4.985990047454834
1619375641.61162,-72.21983,5.001620054244995
1619375641.62724,-85.54047,5.017240047454834
1619375641.64287,-97.19663,5.032870054244995
1619375641.65849,-105.3693,5.048490047454834
1619375641.67412,-108.2453,5.064120054244995
1619375641.68975,-104.8763,5.079750061035156
1619375641.70537,-95.74021,5.095370054244995
1619375641.721,-82.66429,5.111000061035156
1619375641.73662,-68.18147,5.126620054244995
1619375641.75225,-54.72504,5.142250061035156
1619375641.76787,-43.88343,5.157870054244995
1619375641.7835,-36.12958,5.173500061035156
1619375641.79913,-31.01895,5.189130067825317
1619375641.81475,-27.68675,5.204750061035156
1619375641.83038,-25.37774,5.220380067825317
1619375641.846,-23.77002,5.236000061035156
1619375641.86163,-23.02856,5.251630067825317
1619375641.87725,-23.44648,5.267250061035156
1619375641.89288,-25.2148,5.282880067825317
1619375641.90851,-28.1849,5.2985100746154785
1619375641.92413,-31.86822,5.314130067825317
1619375641.93976,-35.68103,5.3297600746154785
1619375641.95538,-39.12367,5.345380067825317
1619375641.97101,-41.85397,5.3610100746154785
1619375641.98663,-43.55582,5.376630067825317
1619375642.00226,-43.81588,5.3922600746154785
1619375642.01789,-42.0312,5.40789008140564
1619375642.03351,-37.70116,5.4235100746154785
1619375642.04914,-30.85888,5.43914008140564
1619375642.06476,-22.29251,5.4547600746154785
1619375642.08039,-13.53909,5.47039008140564
1619375642.09602,-6.366207,5.486020088195801
1619375642.11164,-2.117769,5.50164008140564
1619375642.12727,-1.145035,5.517270088195801
1619375642.14289,-2.817682,5.53289008140564
1619375642.15852,-6.058321,5.548520088195801
1619375642.17414,-9.989237,5.56414008140564
1619375642.18977,-14.44554,5.579770088195801
1619375642.2054,-19.86486,5.595400094985962
1619375642.22102,-26.95858,5.611020088195801
1619375642.23665,-35.97504,5.626650094985962
1619375642.25227,-46.30613,5.642270088195801
1619375642.2679,-56.40044,5.657900094985962
1619375642.28352,-64.25764,5.673520088195801
1619375642.29915,-67.97716,5.689150094985962
1619375642.31478,-66.33167,5.704780101776123
1619375642.3304,-59.0405,5.720400094985962
1619375642.34603,-46.73655,5.736030101776123
1619375642.36165,-30.88602,5.751650094985962
1619375642.37728,-13.34301,5.767280101776123
1619375642.3929,3.92128,5.782900094985962
1619375642.40853,19.21747,5.798530101776123
1619375642.42416,31.37206,5.814160108566284
1619375642.43978,39.95533,5.829780101776123
1619375642.45541,45.31978,5.845410108566284
1619375642.47103,48.44334,5.861030101776123
1619375642.48666,50.55821,5.876660108566284
1619375642.50228,52.71091,5.892280101776123
1619375642.51791,55.44686,5.907910108566284
1619375642.53354,58.63383,5.923540115356445
1619375642.54916,61.60076,5.939160108566284
1619375642.56479,63.52615,5.954790115356445
1619375642.58041,63.9284,5.970410108566284
1619375642.59604,63.03048,5.986040115356445
1619375642.61166,61.75552,6.001660108566284
1619375642.62729,61.44709,6.017290115356445
1619375642.64292,63.35711,6.0329201221466064
1619375642.65854,68.13608,6.048540115356445
1619375642.67417,75.5623,6.0641701221466064
1619375642.68979,84.65839,6.079790115356445
1619375642.70542,94.1237,6.0954201221466064
1619375642.72104,102.763,6.111040115356445
1619375642.73667,109.808,6.1266701221466064
1619375642.7523,115.0093,6.142300128936768
1619375642.76792,118.5539,6.1579201221466064
1619375642.78355,120.8593,6.173550128936768
1619375642.79917,122.3884,6.1891701221466064
1619375642.8148,123.6143,6.204800128936768
1619375642.83042,124.9091,6.2204201221466064
1619375642.84605,126.4677,6.236050128936768
1619375642.86168,127.9981,6.251680135726929
1619375642.8773,128.5334,6.267300128936768
1619375642.89293,126.6479,6.282930135726929
1619375642.90855,121.0047,6.298550128936768
1619375642.92418,111.288,6.314180135726929
1619375642.9398,98.70567,6.329800128936768
1619375642.95543,85.95341,6.345430135726929
1619375642.97106,76.2612,6.36106014251709
1619375642.98668,72.008,6.376680135726929
1619375643.00231,73.50081,6.39231014251709
1619375643.01793,78.61604,6.407930135726929
1619375643.03356,83.56853,6.42356014251709
1619375643.04918,84.39989,6.439180135726929
1619375643.06481,78.54102,6.45481014251709
1619375643.08044,65.55758,6.470440149307251
1619375643.09606,46.85825,6.48606014251709
1619375643.11169,24.77502,6.501690149307251
1619375643.12731,1.437668,6.51731014251709
1619375643.14294,-21.75943,6.532940149307251
1619375643.15856,-44.13626,6.54856014251709
1619375643.17419,-65.2588,6.564190149307251
1619375643.18982,-84.59048,6.579820156097412
1619375643.20544,-101.3787,6.595440149307251
1619375643.22107,-114.9434,6.611070156097412
1619375643.23669,-125.0859,6.626690149307251
1619375643.25232,-132.1182,6.642320156097412
1619375643.26794,-136.6944,6.657940149307251
1619375643.28357,-139.4252,6.673570156097412
1619375643.2992,-140.6284,6.689200162887573
1619375643.31482,-140.4435,6.704820156097412
1619375643.33045,-139.1635,6.720450162887573
1619375643.34607,-137.5506,6.736070156097412
1619375643.3617,-136.8541,6.751700162887573
1619375643.37732,-138.4091,6.767320156097412
1619375643.39295,-142.9774,6.782950162887573
1619375643.40858,-150.2746,6.798580169677734
1619375643.4242,-158.9733,6.814200162887573
1619375643.43983,-167.2834,6.829830169677734
1619375643.45545,-173.7594,6.845450162887573
1619375643.47108,-178.0271,6.861080169677734
1619375643.4867,-180.9448,6.876700162887573
1619375643.50233,-184.2071,6.892330169677734
1619375643.51796,-189.554,6.9079601764678955
1619375643.53358,-197.8839,6.923580169677734
1619375643.54921,-208.5878,6.9392101764678955
1619375643.56483,-219.361,6.954830169677734
1619375643.58046,-226.5501,6.9704601764678955
1619375643.59608,-226.1481,6.986080169677734
1619375643.61171,-214.9686,7.0017101764678955
1619375643.62734,-191.8154,7.017340183258057
1619375643.64296,-158.0626,7.0329601764678955
1619375643.65859,-117.3756,7.048590183258057
1619375643.67421,-74.69208,7.0642101764678955
1619375643.68984,-34.77707,7.079840183258057
1619375643.70546,-1.082062,7.0954601764678955
1619375643.72109,24.86682,7.111090183258057
1619375643.73672,43.08411,7.126720190048218
1619375643.75234,54.55606,7.142340183258057
1619375643.76797,60.59055,7.157970190048218
1619375643.78359,62.48242,7.173590183258057
1619375643.79922,61.50723,7.189220190048218
1619375643.81484,58.94714,7.204840183258057
1619375643.83047,56.12724,7.220470190048218
1619375643.8461,54.16197,7.236100196838379
1619375643.86172,53.76256,7.251720190048218
1619375643.87735,55.01921,7.267350196838379
1619375643.89297,57.39938,7.282970190048218
1619375643.9086,60.01234,7.298600196838379
1619375643.92422,61.89554,7.314220190048218
1619375643.93985,62.36954,7.329850196838379
1619375643.95548,61.27223,7.34548020362854
1619375643.9711,58.9641,7.361100196838379
1619375643.98673,56.16466,7.37673020362854
1619375644.00235,53.6667,7.392350196838379
1619375644.01798,52.01294,7.40798020362854
1619375644.0336,51.26184,7.423600196838379
1619375644.04923,50.97488,7.43923020362854
1619375644.06486,50.32613,7.454860210418701
1619375644.08048,48.39407,7.47048020362854
1619375644.09611,44.35391,7.486110210418701
1619375644.11173,37.72604,7.50173020362854
1619375644.12736,28.52989,7.517360210418701
1619375644.14298,17.44591,7.53298020362854
1619375644.15861,5.8283,7.548610210418701
1619375644.17424,-4.486206,7.564240217208862
1619375644.18986,-11.50435,7.579860210418701
1619375644.20549,-13.62719,7.595490217208862
1619375644.22111,-10.1302,7.611110210418701
1619375644.23674,-1.457634,7.626740217208862
1619375644.25237,10.89139,7.642370223999023
1619375644.26799,24.8103,7.657990217208862
1619375644.28362,38.20663,7.673620223999023
1619375644.29924,49.48031,7.689240217208862
1619375644.31487,57.72518,7.704870223999023
1619375644.33049,62.57548,7.720490217208862
1619375644.34612,63.84772,7.736120223999023
1619375644.36175,61.41734,7.7517499923706055
1619375644.37737,55.13967,7.767370223999023
1619375644.393,45.12391,7.7829999923706055
1619375644.40862,31.98627,7.798620223999023
1619375644.42425,16.87781,7.8142499923706055
1619375644.43987,1.310516,7.829870223999023
1619375644.4555,-13.21342,7.8454999923706055
1619375644.47113,-25.60295,7.861129999160767
1619375644.48675,-35.40271,7.8767499923706055
1619375644.50238,-42.71484,7.892379999160767
1619375644.518,-48.01884,7.9079999923706055
1619375644.53363,-51.79892,7.923629999160767
1619375644.54925,-54.31559,7.9392499923706055
1619375644.56488,-55.60383,7.954879999160767
1619375644.58051,-55.50195,7.970510005950928
1619375644.59613,-53.9749,7.986129999160767
1619375644.61176,-51.18121,8.001760005950928
1619375644.62738,-47.61115,8.017379999160767
1619375644.64301,-43.92578,8.033010005950928
1619375644.65863,-40.65504,8.048629999160767
1619375644.67426,-37.97349,8.064260005950928
1619375644.68989,-35.62593,8.079890012741089
1619375644.70551,-33.09391,8.095510005950928
1619375644.72114,-29.86751,8.111140012741089
1619375644.73676,-25.68054,8.126760005950928
1619375644.75239,-20.40079,8.142390012741089
1619375644.76801,-13.76587,8.158010005950928
1619375644.78364,-5.133578,8.173640012741089
1619375644.79927,6.560019,8.18927001953125
1619375644.81489,22.41251,8.204890012741089
1619375644.83052,42.97236,8.22052001953125
1619375644.84614,67.66956,8.236140012741089
1619375644.86177,94.67025,8.25177001953125
1619375644.87739,121.2439,8.267390012741089
1619375644.89302,144.4182,8.28302001953125
1619375644.90865,161.9003,8.298650026321411
1619375644.92427,172.5985,8.31427001953125
1619375644.9399,176.8555,8.329900026321411
1619375644.95552,176.2153,8.34552001953125
1619375644.97115,173.0241,8.361150026321411
1619375644.98677,169.7579,8.37677001953125
1619375645.0024,168.4707,8.392400026321411
1619375645.01803,170.2699,8.408030033111572
1619375645.03365,175.0752,8.423650026321411
1619375645.04928,181.7287,8.439280033111572
1619375645.0649,188.188,8.454900026321411
1619375645.08053,192.1204,8.470530033111572
1619375645.09615,191.4502,8.486150026321411
1619375645.11178,184.9997,8.501780033111572
1619375645.12741,172.8582,8.517410039901733
1619375645.14303,156.4607,8.533030033111572
1619375645.15866,138.1923,8.548660039901733
1619375645.17428,120.6253,8.564280033111572
1619375645.18991,105.6196,8.579910039901733
1619375645.20553,93.49924,8.595530033111572
1619375645.22116,82.95155,8.611160039901733
1619375645.23679,71.57302,8.626790046691895
1619375645.25241,56.93918,8.642410039901733
1619375645.26804,37.73595,8.658040046691895
1619375645.28366,14.22674,8.673660039901733
1619375645.29929,-12.00384,8.689290046691895
1619375645.31491,-39.09028,8.704910039901733
1619375645.33054,-65.79265,8.720540046691895
1619375645.34617,-92.08795,8.736170053482056
1619375645.36179,-118.5889,8.751790046691895
1619375645.37742,-145.5338,8.767420053482056
1619375645.39304,-171.65,8.783040046691895
1619375645.40867,-193.8235,8.798670053482056
1619375645.42429,-207.9182,8.814290046691895
1619375645.43992,-210.4504,8.829920053482056
1619375645.45555,-200.3519,8.845550060272217
1619375645.47117,-179.7467,8.861170053482056
1619375645.4868,-153.5434,8.876800060272217
1619375645.50242,-127.6732,8.892420053482056
1619375645.51805,-107.1034,8.908050060272217
1619375645.53367,-94.37398,8.923670053482056
1619375645.5493,-89.32933,8.939300060272217
1619375645.56493,-89.97824,8.954930067062378
1619375645.58055,-93.93291,8.970550060272217
1619375645.59618,-99.61096,8.986180067062378
1619375645.6118,-106.6191,9.001800060272217
1619375645.62743,-115.3948,9.017430067062378
1619375645.64305,-126.3967,9.033050060272217
1619375645.65868,-139.4034,9.048680067062378
1619375645.67431,-153.1242,9.064310073852539
1619375645.68993,-165.4337,9.079930067062378
1619375645.70556,-173.7465,9.095560073852539
1619375645.72118,-175.6945,9.111180067062378
1619375645.73681,-169.6061,9.126810073852539
1619375645.75243,-154.8905,9.142430067062378
1619375645.76806,-132.237,9.158060073852539
1619375645.78369,-103.4783,9.1736900806427
1619375645.79931,-71.29161,9.189310073852539
1619375645.81494,-38.65959,9.2049400806427
1619375645.83056,-8.300842,9.220560073852539
1619375645.84619,17.77965,9.2361900806427
1619375645.86181,38.46988,9.251810073852539
1619375645.87744,53.38881,9.2674400806427
1619375645.89307,62.64796,9.283070087432861
1619375645.90869,66.58763,9.2986900806427
1619375645.92432,65.77118,9.314320087432861
1619375645.93994,61.0545,9.3299400806427
1619375645.95557,53.70236,9.345570087432861
1619375645.97119,45.22354,9.3611900806427
1619375645.98682,36.99902,9.376820087432861
1619375646.00245,29.88458,9.392450094223022
1619375646.01807,24.03001,9.408070087432861
1619375646.0337,19.20149,9.423700094223022
1619375646.04932,15.23758,9.439320087432861
1619375646.06495,12.57603,9.454950094223022
1619375646.08057,12.28528,9.470570087432861
1619375646.0962,15.57654,9.486200094223022
1619375646.11183,23.0997,9.501830101013184
1619375646.12745,34.3894,9.517450094223022
1619375646.14308,47.93219,9.533080101013184
1619375646.1587,61.60101,9.548700094223022
1619375646.17433,73.5515,9.564330101013184
1619375646.18995,82.69542,9.579950094223022
1619375646.20558,88.89265,9.595580101013184
1619375646.22121,92.55846,9.611210107803345
1619375646.23683,94.22823,9.626830101013184
1619375646.25246,94.21669,9.642460107803345
1619375646.26808,92.53481,9.658080101013184
1619375646.28371,89.17183,9.673710107803345
1619375646.29933,84.19254,9.689330101013184
1619375646.31496,77.95728,9.704960107803345
1619375646.33059,71.00372,9.720590114593506
1619375646.34621,63.95033,9.736210107803345
1619375646.36184,57.27208,9.751840114593506
1619375646.37746,51.21716,9.767460107803345
1619375646.39309,45.76059,9.783090114593506
1619375646.40871,40.74225,9.798710107803345
1619375646.42434,35.93677,9.814340114593506
1619375646.43997,31.05615,9.829970121383667
1619375646.45559,25.86852,9.845590114593506
1619375646.47122,20.10802,9.861220121383667
1619375646.48684,13.58139,9.876840114593506
1619375646.50247,6.239502,9.892470121383667
1619375646.5181,-1.743683,9.908100128173828
1619375646.53372,-9.962204,9.923720121383667
1619375646.54935,-17.8735,9.939350128173828
1619375646.56497,-24.98419,9.954970121383667
1619375646.5806,-31.05316,9.970600128173828
1619375646.59622,-36.25253,9.986220121383667
1619375646.61185,-41.26031,10.001850128173828
1619375646.62748,-47.0074,10.01748013496399
1619375646.6431,-54.37131,10.033100128173828
1619375646.65873,-63.61383,10.04873013496399
1619375646.67435,-74.02975,10.064350128173828
1619375646.68998,-83.82385,10.07998013496399
1619375646.7056,-90.47961,10.095600128173828
1619375646.72123,-91.58633,10.11123013496399
1619375646.73686,-85.73112,10.12686014175415
1619375646.75248,-73.1891,10.14248013496399
1619375646.76811,-55.91963,10.15811014175415
1619375646.78373,-36.9368,10.17373013496399
1619375646.79936,-19.34592,10.18936014175415
1619375646.81498,-5.476822,10.20498013496399
1619375646.83061,3.557739,10.22061014175415
1619375646.84624,7.808289,10.236240148544312
1619375646.86186,8.054703,10.25186014175415
1619375646.87749,5.381378,10.267490148544312
1619375646.89311,0.8428345,10.28311014175415
1619375646.90874,-4.579132,10.298740148544312
1619375646.92436,-10.00893,10.31436014175415
1619375646.93999,-14.67932,10.329990148544312
1619375646.95562,-17.98758,10.345620155334473
1619375646.97124,-19.42067,10.361240148544312
1619375646.98687,-18.58725,10.376870155334473
1619375647.00249,-15.16609,10.392490148544312
1619375647.01812,-8.939423,10.408120155334473
1619375647.03374,0.02539063,10.423740148544312
1619375647.04937,11.28362,10.439370155334473
1619375647.065,23.83232,10.455000162124634
1619375647.08062,36.31332,10.470620155334473
1619375647.09625,47.22917,10.486250162124634
1619375647.11187,55.2966,10.501870155334473
1619375647.1275,59.78287,10.517500162124634
1619375647.14312,60.61835,10.533120155334473
1619375647.15875,58.3755,10.548750162124634
1619375647.17438,54.07985,10.564380168914795
1619375647.19,48.86693,10.580000162124634
1619375647.20563,43.66013,10.595630168914795
1619375647.22125,38.90999,10.611250162124634
1619375647.23688,34.56142,10.626880168914795
1619375647.2525,30.08965,10.642500162124634
1619375647.26813,25.06308,10.658130168914795
1619375647.28376,19.52277,10.673760175704956
1619375647.29938,14.29483,10.689380168914795
1619375647.31501,10.83957,10.705010175704956
1619375647.33063,10.67357,10.720630168914795
1619375647.34626,14.63365,10.736260175704956
1619375647.36188,22.37994,10.751880168914795
1619375647.37751,32.30984,10.767510175704956
1619375647.39314,41.85962,10.783140182495117
1619375647.40876,48.17104,10.798760175704956
1619375647.42439,48.80128,10.814390182495117
1619375647.44001,42.32011,10.830010175704956
1619375647.45564,28.65488,10.845640182495117
1619375647.47126,9.263168,10.861260175704956
1619375647.48689,-13.11755,10.876890182495117
1619375647.50252,-35.03497,10.892520189285278
1619375647.51814,-53.09143,10.908140182495117
1619375647.53377,-64.86801,10.923770189285278
1619375647.54939,-69.46262,10.939390182495117
1619375647.56502,-67.58493,10.955020189285278
1619375647.58064,-61.04227,10.970640182495117
1619375647.59627,-51.9433,10.986270189285278
1619375647.6119,-42.00482,11.00190019607544
1619375647.62752,-32.17719,11.017520189285278
1619375647.64315,-22.88937,11.03315019607544
1619375647.65877,-14.33908,11.048770189285278
1619375647.6744,-6.854279,11.06440019607544
1619375647.69002,-0.8928833,11.080020189285278
1619375647.70565,3.094788,11.09565019607544
1619375647.72128,4.935486,11.1112802028656
1619375647.7369,4.891418,11.12690019607544
1619375647.75253,3.452393,11.1425302028656
1619375647.76815,1.172791,11.15815019607544
1619375647.78378,-1.647644,11.1737802028656
1619375647.7994,-4.987701,11.18940019607544
1619375647.81503,-8.97525,11.2050302028656
1619375647.83066,-13.65921,11.220660209655762
1619375647.84628,-18.86938,11.2362802028656
1619375647.86191,-24.23126,11.251910209655762
1619375647.87753,-29.35297,11.2675302028656
1619375647.89316,-34.0336,11.283160209655762
1619375647.90878,-38.30814,11.2987802028656
1619375647.92441,-42.26685,11.314410209655762
1619375647.94004,-45.80115,11.330040216445923
1619375647.95566,-48.35812,11.345660209655762
1619375647.97129,-48.92221,11.361290216445923
1619375647.98691,-46.27374,11.376910209655762
1619375648.00254,-39.55026,11.392540216445923
1619375648.01816,-28.728,11.408160209655762
1619375648.03379,-14.8587,11.423790216445923
1619375648.04942,0.03881836,11.439420223236084
1619375648.06504,13.56873,11.455040216445923
1619375648.08067,23.70654,11.470670223236084
1619375648.09629,29.35223,11.486290216445923
1619375648.11192,30.54227,11.501920223236084
1619375648.12754,28.32788,11.517540216445923
1619375648.14317,24.18063,11.533170223236084
1619375648.1588,19.58328,11.548799991607666
1619375648.17442,15.55237,11.564420223236084
1619375648.19005,12.49344,11.580049991607666
1619375648.20567,10.22733,11.595670223236084
1619375648.2213,8.246979,11.611299991607666
1619375648.23692,6.054932,11.626920223236084
1619375648.25255,3.457214,11.642549991607666
1619375648.26818,0.7078552,11.658179998397827
1619375648.2838,-1.686951,11.673799991607666
1619375648.29943,-3.223328,11.689429998397827
1619375648.31505,-3.662689,11.705049991607666
1619375648.33068,-3.180786,11.720679998397827
1619375648.3463,-2.203796,11.736299991607666
1619375648.36193,-1.103973,11.751929998397827
1619375648.37756,-0.08123779,11.767560005187988
1619375648.39318,0.8867188,11.783179998397827
1619375648.40881,1.80838,11.798810005187988
1619375648.42443,2.473602,11.814429998397827
1619375648.44006,2.549591,11.830060005187988
1619375648.45568,1.773132,11.845679998397827
1619375648.47131,0.196228,11.861310005187988
1619375648.48694,-1.773163,11.87694001197815
1619375648.50256,-3.628876,11.892560005187988
1619375648.51819,-5.217163,11.90819001197815
1619375648.53381,-6.90918,11.923810005187988
1619375648.54944,-9.553131,11.93944001197815
1619375648.56506,-14.02988,11.955060005187988
1619375648.58069,-20.67117,11.97069001197815
1619375648.59632,-28.93423,11.98632001876831
1619375648.61194,-37.37173,12.00194001197815
1619375648.62757,-43.98965,12.01757001876831
1619375648.64319,-46.83212,12.03319001197815
1619375648.65882,-44.65387,12.04882001876831
1619375648.67444,-37.24292,12.06444001197815
1619375648.69007,-25.6369,12.08007001876831
1619375648.7057,-11.81592,12.095700025558472
1619375648.72132,1.877838,12.11132001876831
1619375648.73695,13.36755,12.126950025558472
1619375648.75257,21.43521,12.14257001876831
1619375648.7682,25.95059,12.158200025558472
1619375648.78382,27.57556,12.17382001876831
1619375648.79945,27.16406,12.189450025558472
1619375648.81508,25.35336,12.205080032348633
1619375648.8307,22.19382,12.220700025558472
1619375648.84633,17.38483,12.236330032348633
1619375648.86195,10.70432,12.251950025558472
1619375648.87758,2.340179,12.267580032348633
1619375648.8932,-6.872528,12.283200025558472
1619375648.90883,-15.59329,12.298830032348633
1619375648.92446,-22.34952,12.314460039138794
1619375648.94008,-25.93506,12.330080032348633
1619375648.95571,-25.69482,12.345710039138794
1619375648.97133,-21.76709,12.361330032348633
1619375648.98696,-15.0022,12.376960039138794
1619375649.00258,-6.810974,12.392580032348633
1619375649.01821,1.164413,12.408210039138794
1619375649.03384,7.511368,12.423840045928955
1619375649.04946,11.35904,12.439460039138794
1619375649.06509,12.51274,12.455090045928955
1619375649.08071,11.39279,12.470710039138794
1619375649.09634,8.747406,12.486340045928955
1619375649.11196,5.268967,12.501960039138794
1619375649.12759,1.466034,12.517590045928955
1619375649.14322,-2.394119,12.533220052719116
1619375649.15884,-6.271255,12.548840045928955
1619375649.17447,-10.26718,12.564470052719116
1619375649.19009,-14.55502,12.580090045928955
1619375649.20572,-19.26753,12.595720052719116
1619375649.22135,-24.21976,12.611350059509277
1619375649.23697,-28.73755,12.626970052719116
1619375649.2526,-31.71222,12.642600059509277
1619375649.26822,-31.8336,12.658220052719116
1619375649.28385,-28.06802,12.673850059509277
1619375649.29947,-20.21156,12.689470052719116
1619375649.3151,-8.966812,12.705100059509277
1619375649.33073,4.185272,12.720730066299438
1619375649.34635,17.56667,12.736350059509277
1619375649.36198,29.81094,12.751980066299438
1619375649.3776,40.11903,12.767600059509277
1619375649.39323,48.11104,12.783230066299438
1619375649.40885,53.66986,12.798850059509277
1619375649.42448,56.69069,12.814480066299438
1619375649.44011,57.10139,12.8301100730896
1619375649.45573,55.10681,12.845730066299438
1619375649.47136,51.30101,12.8613600730896
1619375649.48698,46.56544,12.876980066299438
1619375649.50261,41.77661,12.8926100730896
1619375649.51823,37.45638,12.908230066299438
1619375649.53386,33.65382,12.9238600730896
1619375649.54949,30.12184,12.93949007987976
1619375649.56511,26.63597,12.9551100730896
1619375649.58074,23.2596,12.97074007987976
1619375649.59636,20.47473,12.9863600730896
1619375649.61199,18.89618,13.00199007987976
1619375649.62761,18.8662,13.0176100730896
1619375649.64324,20.19774,13.03324007987976
1619375649.65887,22.22714,13.048870086669922
1619375649.67449,24.03477,13.06449007987976
1619375649.69012,24.91106,13.080120086669922
1619375649.70574,24.52945,13.09574007987976
1619375649.72137,22.93912,13.111370086669922
1619375649.73699,20.48726,13.12699007987976
1619375649.75262,17.54378,13.142620086669922
1619375649.76825,14.33603,13.158250093460083
1619375649.78387,10.99187,13.173870086669922
1619375649.7995,7.558258,13.189500093460083
1619375649.81512,4.023026,13.205120086669922
1619375649.83075,0.2924347,13.220750093460083
1619375649.84637,-3.812347,13.236370086669922
1619375649.862,-8.632446,13.252000093460083
1619375649.87763,-14.40617,13.267630100250244
1619375649.89325,-21.1506,13.283250093460083
1619375649.90888,-28.35397,13.298880100250244
1619375649.9245,-34.94287,13.314500093460083
1619375649.94013,-39.446,13.330130100250244
1619375649.95575,-40.40555,13.345750093460083
1619375649.97138,-36.84798,13.361380100250244
1619375649.98701,-28.72455,13.377010107040405
1619375650.00263,-17.05513,13.392630100250244
1619375650.01826,-3.669495,13.408260107040405
1619375650.03388,9.335983,13.423880100250244
1619375650.04951,20.17706,13.439510107040405
1619375650.06513,27.83142,13.455130100250244
1619375650.08076,32.14505,13.470760107040405
1619375650.09639,33.58366,13.486390113830566
1619375650.11201,32.94687,13.502010107040405
1619375650.12764,30.9744,13.517640113830566
1619375650.14326,28.19897,13.533260107040405
1619375650.15889,24.90158,13.548890113830566
1619375650.17451,21.2103,13.564510107040405
1619375650.19014,17.15256,13.580140113830566
1619375650.20577,12.6871,13.595770120620728
1619375650.22139,7.76413,13.611390113830566
1619375650.23702,2.398956,13.627020120620728
1619375650.25264,-3.192535,13.642640113830566
1619375650.26827,-8.572662,13.658270120620728
1619375650.28389,-13.10049,13.673890113830566
1619375650.29952,-16.12445,13.689520120620728
1619375650.31515,-17.15042,13.705150127410889
1619375650.33077,-16.05304,13.720770120620728
1619375650.3464,-13.11563,13.736400127410889
1619375650.36202,-9.011322,13.752020120620728
1619375650.37765,-4.688812,13.767650127410889
1619375650.39327,-1.167511,13.783270120620728
1619375650.4089,0.6704712,13.798900127410889
1619375650.42453,0.3717041,13.81453013420105
1619375650.44015,-1.912109,13.830150127410889
1619375650.45578,-5.397766,13.84578013420105
1619375650.4714,-9.010956,13.861400127410889
1619375650.48703,-11.94775,13.87703013420105
1619375650.50265,-14.19067,13.892650127410889
1619375650.51828,-16.85178,13.90828013420105
1619375650.53391,-21.75189,13.923910140991211
1619375650.54953,-30.65561,13.93953013420105
1619375650.56516,-44.31128,13.955160140991211
1619375650.58078,-61.79352,13.97078013420105
1619375650.59641,-80.58542,13.986410140991211
1619375650.61203,-97.27142,14.00203013420105
1619375650.62766,-108.6699,14.017660140991211
1619375650.64329,-112.8734,14.033290147781372
1619375650.65891,-109.7949,14.048910140991211
1619375650.67454,-100.9412,14.064540147781372
1619375650.69016,-88.6969,14.080160140991211
1619375650.70579,-75.38434,14.095790147781372
1619375650.72141,-62.62311,14.111410140991211
1619375650.73704,-51.19501,14.127040147781372
1619375650.75267,-41.34512,14.142670154571533
1619375650.76829,-33.23477,14.158290147781372
1619375650.78392,-27.15573,14.173920154571533
1619375650.79954,-23.48975,14.189540147781372
1619375650.81517,-22.29572,14.205170154571533
1619375650.83079,-23.03482,14.220790147781372
1619375650.84642,-24.53958,14.236420154571533
1619375650.86205,-25.42142,14.252050161361694
1619375650.87767,-24.59004,14.267670154571533
1619375650.8933,-21.63365,14.283300161361694
1619375650.90892,-16.88228,14.298920154571533
1619375650.92455,-11.07111,14.314550161361694
1619375650.94017,-5.019028,14.330170154571533
1619375650.9558,0.7484436,14.345800161361694
1619375650.97143,6.020584,14.361430168151855
1619375650.98705,10.86349,14.377050161361694
1619375651.00268,15.42387,14.392680168151855
1619375651.0183,19.82137,14.408300161361694
1619375651.03393,24.0797,14.423930168151855
1619375651.04955,28.10045,14.439550161361694
1619375651.06518,31.68539,14.455180168151855
1619375651.08081,34.59805,14.470810174942017
1619375651.09643,36.69548,14.486430168151855
1619375651.11206,37.97862,14.502060174942017
1619375651.12768,38.76155,14.517680168151855
1619375651.14331,39.47197,14.533310174942017
1619375651.15893,40.44659,14.548930168151855
1619375651.17456,41.66891,14.564560174942017
1619375651.19019,42.55168,14.580190181732178
1619375651.20581,42.12358,14.595810174942017
1619375651.22144,39.50569,14.611440181732178
1619375651.23706,34.54659,14.627060174942017
1619375651.25269,28.19135,14.642690181732178
1619375651.26831,22.42548,14.658310174942017
1619375651.28394,19.75078,14.673940181732178
1619375651.29957,22.1759,14.689570188522339
1619375651.31519,30.4782,14.705190181732178
1619375651.33082,43.73262,14.720820188522339
1619375651.34644,59.68396,14.736440181732178
1619375651.36207,75.52486,14.752070188522339
1619375651.3777,88.75812,14.7677001953125
1619375651.39332,97.8427,14.783320188522339
1619375651.40895,102.2859,14.7989501953125
1619375651.42457,102.4101,14.814570188522339
1619375651.4402,98.97546,14.8302001953125
1619375651.45582,92.86473,14.845820188522339
1619375651.47145,84.88588,14.8614501953125
1619375651.48708,75.84489,14.877080202102661
1619375651.5027,66.47337,14.8927001953125
1619375651.51833,57.41605,14.908330202102661
1619375651.53395,49.10365,14.9239501953125
1619375651.54958,41.59541,14.939580202102661
1619375651.5652,34.59811,14.9552001953125
1619375651.58083,27.606,14.970830202102661
1619375651.59646,20.19344,14.986460208892822
1619375651.61208,12.23589,15.002080202102661
1619375651.62771,4.080597,15.017710208892822
1619375651.64333,-3.570541,15.033330202102661
1619375651.65896,-9.925049,15.048960208892822
1619375651.67458,-14.42258,15.064580202102661
1619375651.69021,-16.99258,15.080210208892822
1619375651.70584,-18.1011,15.095840215682983
1619375651.72146,-18.65657,15.111460208892822
1619375651.73709,-19.52377,15.127090215682983
1619375651.75271,-21.27852,15.142710208892822
1619375651.76834,-24.00441,15.158340215682983
1619375651.78396,-27.35658,15.173960208892822
1619375651.79959,-30.81265,15.189590215682983
1619375651.81522,-33.91901,15.205220222473145
1619375651.83084,-36.51048,15.220840215682983
1619375651.84647,-38.70842,15.236470222473145
1619375651.86209,-40.92633,15.252090215682983
1619375651.87772,-43.72054,15.267720222473145
1619375651.89334,-47.67508,15.283340215682983
1619375651.90897,-53.16376,15.298970222473145
1619375651.9246,-60.05655,15.314599990844727
1619375651.94022,-67.48888,15.330220222473145
1619375651.95585,-73.815,15.345849990844727
1619375651.97147,-76.93855,15.361470222473145
1619375651.9871,-74.94989,15.377099990844727
1619375652.00272,-66.85753,15.392720222473145
1619375652.01835,-53.03888,15.408349990844727
1619375652.03398,-35.29034,15.423979997634888
1619375652.0496,-16.2123,15.439599990844727
1619375652.06523,1.561874,15.455229997634888
1619375652.08085,16.08127,15.470849990844727
1619375652.09648,26.43588,15.486479997634888
1619375652.1121,32.66742,15.502099990844727
1619375652.12773,35.43536,15.517729997634888
1619375652.14336,35.60278,15.533360004425049
1619375652.15898,33.98103,15.548979997634888
1619375652.17461,31.16966,15.564610004425049
1619375652.19023,27.5349,15.580229997634888
1619375652.20586,23.34013,15.595860004425049
1619375652.22148,18.74625,15.611479997634888
1619375652.23711,13.95499,15.627110004425049
1619375652.25274,9.218323,15.64274001121521
1619375652.26836,4.864929,15.658360004425049
1619375652.28399,1.22493,15.67399001121521
1619375652.29961,-1.437698,15.689610004425049
1619375652.31524,-2.937607,15.70524001121521
1619375652.33086,-3.212524,15.720860004425049
1619375652.34649,-2.258255,15.73649001121521
1619375652.36212,-0.2541199,15.752120018005371
1619375652.37774,2.427917,15.76774001121521
1619375652.39337,5.161316,15.783370018005371
1619375652.40899,7.143402,15.79899001121521
1619375652.42462,7.602005,15.814620018005371
1619375652.44024,6.04541,15.83024001121521
1619375652.45587,2.520447,15.845870018005371
1619375652.4715,-2.417664,15.861500024795532
1619375652.48712,-7.872208,15.877120018005371
1619375652.50275,-13.01752,15.892750024795532
1619375652.51837,-17.27844,15.908370018005371
1619375652.534,-20.55759,15.924000024795532
1619375652.54962,-23.16936,15.939620018005371
1619375652.56525,-25.65302,15.955250024795532
1619375652.58088,-28.6272,15.970880031585693
1619375652.5965,-32.6326,15.986500024795532
1619375652.61213,-37.91727,16.002130031585693
1619375652.62775,-44.19055,16.017750024795532
1619375652.64338,-50.46756,16.033380031585693
1619375652.659,-54.99548,16.049000024795532
1619375652.67463,-55.60239,16.064630031585693
1619375652.69026,-50.40329,16.080260038375854
1619375652.70588,-38.5202,16.095880031585693
1619375652.72151,-20.62894,16.111510038375854
1619375652.73713,1.149384,16.127130031585693
1619375652.75276,23.93896,16.142760038375854
1619375652.76838,45.02106,16.158380031585693
1619375652.78401,62.61542,16.174010038375854
1619375652.79964,76.0563,16.189640045166016
1619375652.81526,85.55249,16.205260038375854
1619375652.83089,91.65274,16.220890045166016
1619375652.84651,94.90561,16.236510038375854
1619375652.86214,95.79175,16.252140045166016
1619375652.87776,94.89362,16.267760038375854
1619375652.89339,93.06296,16.283390045166016
1619375652.90902,91.28461,16.299020051956177
1619375652.92464,90.46796,16.314640045166016
1619375652.94027,91.10532,16.330270051956177
1619375652.95589,93.25037,16.345890045166016
1619375652.97152,96.61127,16.361520051956177
1619375652.98714,100.9332,16.377140045166016
1619375653.00277,106.1866,16.392770051956177
1619375653.0184,112.5952,16.408400058746338
1619375653.03402,120.4474,16.424020051956177
1619375653.04965,129.7823,16.439650058746338
1619375653.06527,140.311,16.455270051956177
1619375653.0809,151.3949,16.470900058746338
1619375653.09652,162.2939,16.486520051956177
1619375653.11215,172.3517,16.502150058746338
1619375653.12778,181.0819,16.5177800655365
1619375653.1434,188.0823,16.533400058746338
1619375653.15903,192.9112,16.5490300655365
1619375653.17465,195.0723,16.564650058746338
1619375653.19028,194.114,16.5802800655365
1619375653.2059,189.9711,16.595900058746338
1619375653.22153,183.0461,16.6115300655365
1619375653.23716,174.0332,16.62716007232666
1619375653.25278,163.4066,16.6427800655365
1619375653.26841,150.8873,16.65841007232666
1619375653.28403,135.3532,16.6740300655365
1619375653.29966,115.22,16.68966007232666
1619375653.31528,89.34277,16.7052800655365
1619375653.33091,57.93848,16.72091007232666
1619375653.34654,23.0246,16.73654007911682
1619375653.36216,-11.94214,16.75216007232666
1619375653.37779,-42.99323,16.76779007911682
1619375653.39341,-66.81335,16.78341007232666
1619375653.40904,-81.66394,16.79904007911682
1619375653.42466,-87.49707,16.81466007232666
1619375653.44029,-85.62531,16.83029007911682
1619375653.45592,-77.97198,16.845920085906982
1619375653.47154,-66.43127,16.86154007911682
1619375653.48717,-52.51483,16.877170085906982
1619375653.50279,-37.38013,16.89279007911682
1619375653.51842,-22.07983,16.908420085906982
1619375653.53404,-7.911865,16.92404007911682
1619375653.54967,3.415833,16.939670085906982
1619375653.5653,9.894775,16.955300092697144
1619375653.58092,9.615845,16.970920085906982
1619375653.59655,1.337952,16.986550092697144
1619375653.61217,-14.91541,17.002170085906982
1619375653.6278,-37.5791,17.017800092697144
1619375653.64342,-63.86438,17.033420085906982
1619375653.65905,-90.47821,17.049050092697144
1619375653.67468,-114.5126,17.064680099487305
1619375653.6903,-134.324,17.080300092697144
1619375653.70593,-149.8845,17.095930099487305
1619375653.72155,-162.6049,17.111550092697144
1619375653.73718,-175.0292,17.127180099487305
1619375653.7528,-190.4247,17.142800092697144
1619375653.76843,-212.3236,17.158430099487305
1619375653.78406,-243.7466,17.174060106277466
1619375653.79968,-285.8816,17.189680099487305
1619375653.81531,-336.7396,17.205310106277466
1619375653.83093,-390.7128,17.220930099487305
1619375653.84656,-439.6145,17.236560106277466
1619375653.86219,-475.3532,17.252190113067627
1619375653.87781,-492.9367,17.267810106277466
1619375653.89344,-492.2985,17.283440113067627
1619375653.90906,-477.976,17.299060106277466
1619375653.92469,-456.6517,17.314690113067627
1619375653.94031,-433.9995,17.330310106277466
1619375653.95594,-412.5826,17.345940113067627
1619375653.97157,-391.845,17.361570119857788
1619375653.98719,-369.7966,17.377190113067627
1619375654.00282,-345.1262,17.392820119857788
1619375654.01844,-318.1909,17.408440113067627
1619375654.03407,-290.5718,17.424070119857788
1619375654.04969,-263.6538,17.439690113067627
1619375654.06532,-237.4609,17.455320119857788
1619375654.08095,-210.4906,17.47095012664795
1619375654.09657,-180.724,17.486570119857788
1619375654.1122,-146.8115,17.50220012664795
1619375654.12782,-108.8063,17.517820119857788
1619375654.14345,-68.12549,17.53345012664795
1619375654.15907,-27.14441,17.549070119857788
1619375654.1747,11.52313,17.56470012664795
1619375654.19033,45.47351,17.58033013343811
1619375654.20595,72.94946,17.59595012664795
1619375654.22158,93.26501,17.61158013343811
1619375654.2372,107.0399,17.62720012664795
1619375654.25283,116.1624,17.64283013343811
1619375654.26845,123.2009,17.65845012664795
1619375654.28408,130.3619,17.67408013343811
1619375654.29971,138.4341,17.68971014022827
1619375654.31533,146.4767,17.70533013343811
1619375654.33096,152.2475,17.72096014022827
1619375654.34658,153.3129,17.73658013343811
1619375654.36221,148.2446,17.75221014022827
1619375654.37783,137.1496,17.76783013343811
1619375654.39346,121.6473,17.78346014022827
1619375654.40909,104.1257,17.799090147018433
1619375654.42471,87.05359,17.81471014022827
1619375654.44034,72.40802,17.830340147018433
1619375654.45596,61.49774,17.84596014022827
1619375654.47159,55.02609,17.861590147018433
1619375654.48721,52.95996,17.87721014022827
1619375654.50284,54.57315,17.892840147018433
1619375654.51847,58.50937,17.908470153808594
1619375654.53409,63.03854,17.924090147018433
1619375654.54972,66.39655,17.939720153808594
1619375654.56534,67.09525,17.955340147018433
1619375654.58097,64.09653,17.970970153808594
1619375654.59659,56.84091,17.986590147018433
1619375654.61222,45.27939,18.002220153808594
1619375654.62785,29.84961,18.017850160598755
1619375654.64347,11.58472,18.033470153808594
1619375654.6591,-7.832794,18.049100160598755
1619375654.67472,-26.09229,18.064720153808594
1619375654.69035,-40.48653,18.080350160598755
1619375654.70597,-48.23578,18.095970153808594
1619375654.7216,-46.80267,18.111600160598755
1619375654.73723,-34.49036,18.127230167388916
1619375654.75285,-10.83427,18.142850160598755
1619375654.76848,22.95656,18.158480167388916
1619375654.7841,63.81801,18.174100160598755
1619375654.79973,107.0645,18.189730167388916
1619375654.81535,147.2493,18.205350160598755
1619375654.83098,179.3026,18.220980167388916
1619375654.84661,199.8286,18.236610174179077
1619375654.86223,208.004,18.252230167388916
1619375654.87786,205.5604,18.267860174179077
1619375654.89348,196.0714,18.283480167388916
1619375654.90911,183.5753,18.299110174179077
1619375654.92473,171.282,18.314730167388916
1619375654.94036,160.7876,18.330360174179077
1619375654.95599,152.0723,18.34599018096924
1619375654.97161,144.1422,18.361610174179077
1619375654.98724,135.8904,18.37724018096924
1619375655.00286,126.6924,18.392860174179077
1619375655.01849,116.5714,18.40849018096924
1619375655.03411,105.9665,18.424110174179077
1619375655.04974,95.35748,18.43974018096924
1619375655.06537,85.0811,18.4553701877594
1619375655.08099,75.29578,18.47099018096924
1619375655.09662,66.23351,18.4866201877594
1619375655.11224,58.2678,18.50224018096924
1619375655.12787,51.82867,18.5178701877594
1619375655.14349,47.044,18.53349018096924
1619375655.15912,43.53447,18.5491201877594
1619375655.17475,40.3871,18.56475019454956
1619375655.19037,36.47163,18.5803701877594
1619375655.206,30.93575,18.59600019454956
1619375655.22162,23.53235,18.6116201877594
1619375655.23725,14.61882,18.62725019454956
1619375655.25287,4.758465,18.6428701877594
1619375655.2685,-5.742292,18.65850019454956
1619375655.28413,-17.17387,18.67413020133972
1619375655.29975,-30.31861,18.68975019454956
1619375655.31538,-45.93008,18.70538020133972
1619375655.331,-64.05161,18.72100019454956
1619375655.34663,-83.52063,18.73663020133972
1619375655.36225,-101.9426,18.75225019454956
1619375655.37788,-116.2156,18.76788020133972
1619375655.39351,-123.5093,18.783510208129883
1619375655.40913,-122.2742,18.79913020133972
1619375655.42476,-112.7755,18.814760208129883
1619375655.44038,-97.14625,18.83038020133972
1619375655.45601,-78.65186,18.846010208129883
1619375655.47163,-60.79276,18.86163020133972
1619375655.48726,-46.23122,18.877260208129883
1619375655.50289,-36.38309,18.892890214920044
1619375655.51851,-31.21843,18.908510208129883
1619375655.53414,-29.70428,18.924140214920044
1619375655.54976,-30.34975,18.939760208129883
1619375655.56539,-31.6354,18.955390214920044
1619375655.58101,-32.44081,18.971010208129883
1619375655.59664,-32.09044,18.986640214920044
1619375655.61227,-30.37064,19.002270221710205
1619375655.62789,-27.32603,19.017890214920044
1619375655.64352,-23.19653,19.033520221710205
1619375655.65914,-18.22258,19.049140214920044
1619375655.67477,-12.56081,19.064770221710205
1619375655.69039,-6.360596,19.080390214920044
1619375655.70602,0.2299042,19.096020221710205
1619375655.72165,6.895401,19.111649990081787
1619375655.73727,13.18237,19.127270221710205
1619375655.7529,18.56566,19.142899990081787
1619375655.76852,22.67563,19.158520221710205
1619375655.78415,25.36696,19.174149990081787
1619375655.79977,26.83591,19.189770221710205
1619375655.8154,27.40068,19.205399990081787
1619375655.83103,27.4115,19.22102999687195
1619375655.84665,26.99176,19.236649990081787
1619375655.86228,25.92114,19.25227999687195
1619375655.8779,23.70958,19.267899990081787
1619375655.89353,19.72067,19.28352999687195
1619375655.90915,13.48619,19.299149990081787
1619375655.92478,4.885757,19.31477999687195
1619375655.94041,-5.692383,19.33041000366211
1619375655.95603,-17.38066,19.34602999687195
1619375655.97166,-28.72821,19.36166000366211
1619375655.98728,-37.8239,19.37727999687195
1619375656.00291,-42.55885,19.39291000366211
1619375656.01853,-41.0603,19.40852999687195
1619375656.03416,-32.36166,19.42416000366211
1619375656.04979,-16.90164,19.43979001045227
1619375656.06541,3.341339,19.45541000366211
1619375656.08104,25.23041,19.47104001045227
1619375656.09666,45.36261,19.48666000366211
1619375656.11229,61.07739,19.50229001045227
1619375656.12791,71.13641,19.51791000366211
1619375656.14354,75.82275,19.53354001045227
1619375656.15917,76.36975,19.54917001724243
1619375656.17479,74.19208,19.56479001045227
1619375656.19042,70.22113,19.58042001724243
1619375656.20604,64.73532,19.59604001045227
1619375656.22167,57.56497,19.61167001724243
1619375656.2373,48.60205,19.627300024032593
1619375656.25292,38.15955,19.64292001724243
1619375656.26855,27.09821,19.658550024032593
1619375656.28417,16.6405,19.67417001724243
1619375656.2998,7.993225,19.689800024032593
1619375656.31542,1.954926,19.70542001724243
1619375656.33105,-1.268707,19.721050024032593
1619375656.34668,-2.130371,19.736680030822754
1619375656.3623,-1.533264,19.752300024032593
1619375656.37793,-0.4989929,19.767930030822754
1619375656.39355,0.01135254,19.783550024032593
1619375656.40918,-0.6248779,19.799180030822754
1619375656.4248,-2.751617,19.814800024032593
1619375656.44043,-6.362549,19.830430030822754
1619375656.45606,-11.22079,19.846060037612915
1619375656.47168,-16.82855,19.861680030822754
1619375656.48731,-22.55356,19.877310037612915
1619375656.50293,-27.82401,19.892930030822754
1619375656.51856,-32.34787,19.908560037612915
1619375656.53418,-36.40375,19.924180030822754
1619375656.54981,-40.80109,19.939810037612915
1619375656.56544,-46.52628,19.955440044403076
1619375656.58106,-54.08005,19.971060037612915
1619375656.59669,-62.8555,19.986690044403076
1619375656.61231,-70.89996,20.002310037612915
1619375656.62794,-75.39444,20.017940044403076
1619375656.64356,-73.63275,20.033560037612915
1619375656.65919,-64.08868,20.049190044403076
1619375656.67482,-47.15759,20.064820051193237
1619375656.69044,-25.10535,20.080440044403076
1619375656.70607,-1.289185,20.096070051193237
1619375656.72169,20.86072,20.111690044403076
1619375656.73732,38.82562,20.127320051193237
1619375656.75294,51.39716,20.142940044403076
1619375656.76857,58.58713,20.158570051193237
1619375656.7842,61.22369,20.1742000579834
1619375656.79982,60.46918,20.189820051193237
1619375656.81545,57.43073,20.2054500579834
1619375656.83107,53.03458,20.221070051193237
1619375656.8467,47.96698,20.2367000579834
1619375656.86232,42.69678,20.252320051193237
1619375656.87795,37.62537,20.2679500579834
1619375656.89358,33.18829,20.28358006477356
1619375656.9092,30.01514,20.2992000579834
1619375656.92483,28.83344,20.31483006477356
1619375656.94045,30.26227,20.3304500579834
1619375656.95608,34.49908,20.34608006477356
1619375656.9717,41.13898,20.3617000579834
1619375656.98733,49.19574,20.37733006477356
1619375657.00296,57.41022,20.39296007156372
1619375657.01858,64.64392,20.40858006477356
1619375657.03421,70.10168,20.42421007156372
1619375657.04983,73.3158,20.43983006477356
1619375657.06546,73.97864,20.45546007156372
1619375657.08108,71.79846,20.47108006477356
1619375657.09671,66.5694,20.48671007156372
1619375657.11234,58.41284,20.502340078353882
1619375657.12796,47.92706,20.51796007156372
1619375657.14359,36.14386,20.533590078353882
1619375657.15921,24.2356,20.54921007156372
1619375657.17484,13.11908,20.564840078353882
1619375657.19046,3.366455,20.58046007156372
1619375657.20609,-4.639954,20.596090078353882
1619375657.22172,-10.38531,20.611720085144043
1619375657.23734,-13.01312,20.627340078353882
1619375657.25297,-11.53748,20.642970085144043
1619375657.26859,-5.41217,20.658590078353882
1619375657.28422,4.990417,20.674220085144043
1619375657.29984,18.16156,20.689840078353882
1619375657.31547,31.88947,20.705470085144043
1619375657.3311,43.98547,20.721100091934204
1619375657.34672,53.0661,20.736720085144043
1619375657.36235,58.83734,20.752350091934204
1619375657.37797,61.81689,20.767970085144043
1619375657.3936,62.79834,20.783600091934204
1619375657.40922,62.33044,20.799220085144043
1619375657.42485,60.5639,20.814850091934204
1619375657.44048,57.41986,20.830480098724365
1619375657.4561,52.9411,20.846100091934204
1619375657.47173,47.52142,20.861730098724365
1619375657.48735,41.81665,20.877350091934204
1619375657.50298,36.54993,20.892980098724365
1619375657.5186,32.24957,20.908600091934204
1619375657.53423,29.16138,20.924230098724365
1619375657.54986,27.302,20.939860105514526
1619375657.56548,26.53943,20.955480098724365
1619375657.58111,26.6582,20.971110105514526
1619375657.59673,27.31464,20.986730098724365
1619375657.61236,28.08002,21.002360105514526
1619375657.62798,28.47656,21.017980098724365
1619375657.64361,28.19128,21.033610105514526
1619375657.65924,27.12817,21.049240112304688
1619375657.67486,25.4906,21.064860105514526
1619375657.69049,23.59085,21.080490112304688
1619375657.70611,21.59845,21.096110105514526
1619375657.72174,19.34442,21.111740112304688
1619375657.73736,16.30356,21.127360105514526
1619375657.75299,11.80569,21.142990112304688
1619375657.76862,5.294617,21.15862011909485
1619375657.78424,-3.253876,21.174240112304688
1619375657.79987,-13.1077,21.18987011909485
1619375657.81549,-22.66214,21.205490112304688
1619375657.83112,-29.79208,21.22112011909485
1619375657.84674,-32.44211,21.236740112304688
1619375657.86237,-29.24994,21.25237011909485
1619375657.878,-20.22385,21.26800012588501
1619375657.89362,-6.791595,21.28362011909485
1619375657.90925,8.55069,21.29925012588501
1619375657.92487,22.99005,21.31487011909485
1619375657.9405,34.22693,21.33050012588501
1619375657.95612,41.02609,21.34612011909485
1619375657.97175,43.25986,21.36175012588501
1619375657.98738,41.58389,21.37738013267517
1619375658.003,36.99615,21.39300012588501
1619375658.01863,30.38159,21.40863013267517
1619375658.03425,22.40436,21.42425012588501
1619375658.04988,13.60934,21.43988013267517
1619375658.0655,4.521332,21.45550012588501
1619375658.08113,-4.234436,21.47113013267517
1619375658.09676,-11.99933,21.486760139465332
1619375658.11238,-18.17664,21.50238013267517
1619375658.12801,-22.42877,21.518010139465332
1619375658.14363,-24.66721,21.53363013267517
1619375658.15926,-25.13766,21.549260139465332
1619375658.17488,-24.32767,21.56488013267517
1619375658.19051,-22.77209,21.580510139465332
1619375658.20614,-20.99005,21.596140146255493
1619375658.22176,-19.30701,21.611760139465332
1619375658.23739,-18.00638,21.627390146255493
1619375658.25301,-17.30682,21.643010139465332
1619375658.26864,-17.4671,21.658640146255493
1619375658.28426,-18.7103,21.674260139465332
1619375658.29989,-21.19067,21.689890146255493
1619375658.31552,-24.78357,21.705520153045654
1619375658.33114,-29.12024,21.721140146255493
1619375658.34677,-33.76385,21.736770153045654
1619375658.36239,-38.22131,21.752390146255493
1619375658.37802,-42.10419,21.768020153045654
1619375658.39364,-44.94458,21.783640146255493
1619375658.40927,-46.04236,21.799270153045654
1619375658.4249,-44.47113,21.814900159835815
1619375658.44052,-39.29694,21.830520153045654
1619375658.45615,-30.04459,21.846150159835815
1619375658.47177,-17.0932,21.861770153045654
1619375658.4874,-1.801956,21.877400159835815
1619375658.50303,13.91573,21.893030166625977
1619375658.51865,28.14792,21.908650159835815
1619375658.53428,39.60864,21.924280166625977
1619375658.5499,47.79694,21.939900159835815
1619375658.56553,52.85793,21.955530166625977
1619375658.58115,55.22801,21.971150159835815
1619375658.59678,55.32542,21.986780166625977
1619375658.61241,53.48021,22.002410173416138
1619375658.62803,49.9884,22.018030166625977
1619375658.64366,45.26474,22.033660173416138
1619375658.65928,39.87794,22.049280166625977
1619375658.67491,34.5399,22.064910173416138
1619375658.69053,29.95534,22.080530166625977
1619375658.70616,26.7112,22.096160173416138
1619375658.72179,25.16747,22.1117901802063
1619375658.73741,25.35986,22.127410173416138
1619375658.75304,27.0118,22.1430401802063
1619375658.76866,29.6492,22.158660173416138
1619375658.78429,32.85789,22.1742901802063
1619375658.79991,36.46523,22.189910173416138
1619375658.81554,40.68503,22.2055401802063
1619375658.83117,45.9016,22.22117018699646
1619375658.84679,52.31856,22.2367901802063
1619375658.86242,59.73064,22.25242018699646
1619375658.87804,67.44603,22.2680401802063
1619375658.89367,74.53214,22.28367018699646
1619375658.90929,80.26681,22.2992901802063
1619375658.92492,84.36232,22.31492018699646
1619375658.94055,87.05261,22.33055019378662
1619375658.95617,88.86581,22.34617018699646
1619375658.9718,90.44578,22.36180019378662
1619375658.98742,92.49468,22.37742018699646
1619375659.00305,95.87717,22.39305019378662
1619375659.01867,101.5791,22.40867018699646
1619375659.0343,110.5002,22.42430019378662
1619375659.04993,123.0221,22.439930200576782
1619375659.06555,138.498,22.45555019378662
1619375659.08118,155.2231,22.471180200576782
1619375659.0968,170.8398,22.48680019378662
1619375659.11243,183.1226,22.502430200576782
1619375659.12805,190.5804,22.51805019378662
1619375659.14368,192.656,22.533680200576782
1619375659.15931,189.2861,22.549310207366943
1619375659.17493,180.3955,22.564930200576782
1619375659.19056,165.6471,22.580560207366943
1619375659.20618,144.7221,22.596180200576782
1619375659.22181,117.9304,22.611810207366943
1619375659.23743,86.77852,22.627430200576782
1619375659.25306,53.89738,22.643060207366943
1619375659.26869,22.3717,22.658690214157104
1619375659.28431,-5.308075,22.674310207366943
1619375659.29994,-28.04913,22.689940214157104
1619375659.31556,-46.28162,22.705560207366943
1619375659.33119,-61.33252,22.721190214157104
1619375659.34681,-74.49982,22.736810207366943
1619375659.36244,-86.28027,22.752440214157104
1619375659.37807,-96.08932,22.768070220947266
1619375659.39369,-102.6827,22.783690214157104
1619375659.40932,-104.8772,22.799320220947266
1619375659.42494,-102.3606,22.814940214157104
1619375659.44057,-96.04092,22.830570220947266
1619375659.45619,-87.99561,22.846190214157104
1619375659.47182,-80.75146,22.861820220947266
1619375659.48745,-76.48712,22.877449989318848
1619375659.50307,-76.20776,22.893070220947266
1619375659.5187,-79.53174,22.908699989318848
1619375659.53432,-85.1579,22.924320220947266
1619375659.54995,-91.4386,22.939949989318848
1619375659.56557,-97.263,22.955570220947266
1619375659.5812,-102.5123,22.971199989318848
1619375659.59683,-108.0935,22.98682999610901
1619375659.61245,-115.6703,23.002449989318848
1619375659.62808,-127.5028,23.01807999610901
1619375659.6437,-146.2056,23.033699989318848
1619375659.65933,-174.2985,23.04932999610901
1619375659.67495,-213.1091,23.064949989318848
1619375659.69058,-261.3759,23.08057999610901
1619375659.70621,-314.3345,23.09621000289917
1619375659.72183,-364.1583,23.11182999610901
1619375659.73746,-402.1453,23.12746000289917
1619375659.75308,-421.8063,23.14307999610901
1619375659.76871,-421.3937,23.15871000289917
1619375659.78433,-404.3692,23.17432999610901
1619375659.79996,-377.6524,23.18996000289917
1619375659.81559,-348.4624,23.20559000968933
1619375659.83121,-321.5226,23.22121000289917
1619375659.84684,-298.0156,23.23684000968933
1619375659.86246,-276.4273,23.25246000289917
1619375659.87809,-254.4209,23.26809000968933
1619375659.89371,-230.3422,23.28371000289917
1619375659.90934,-203.662,23.29934000968933
1619375659.92497,-174.5269,23.314970016479492
1619375659.94059,-143.0963,23.33059000968933
1619375659.95622,-109.5278,23.346220016479492
1619375659.97184,-74.41449,23.36184000968933
1619375659.98747,-39.27875,23.377470016479492
1619375660.00309,-6.501282,23.39309000968933
1619375660.01872,21.30701,23.408720016479492
1619375660.03435,42.1123,23.424350023269653
1619375660.04997,55.23358,23.439970016479492
1619375660.0656,61.49432,23.455600023269653
1619375660.08122,62.92181,23.471220016479492
1619375660.09685,61.97211,23.486850023269653
1619375660.11247,60.80872,23.502470016479492
1619375660.1281,60.65057,23.518100023269653
1619375660.14373,61.49524,23.533730030059814
1619375660.15935,62.23499,23.549350023269653
1619375660.17498,61.17456,23.564980030059814
1619375660.1906,56.88135,23.580600023269653
1619375660.20623,48.95782,23.596230030059814
1619375660.22185,38.53857,23.611850023269653
1619375660.23748,28.099,23.627480030059814
1619375660.25311,20.70648,23.643110036849976
1619375660.26873,18.91931,23.658730030059814
1619375660.28436,23.84906,23.674360036849976
1619375660.29998,34.77081,23.689980030059814
1619375660.31561,49.39319,23.705610036849976
1619375660.33123,64.69482,23.721230030059814
1619375660.34686,77.84665,23.736860036849976
1619375660.36249,86.98264,23.752490043640137
1619375660.37811,91.44327,23.768110036849976
1619375660.39374,91.62524,23.783740043640137
1619375660.40936,88.53833,23.799360036849976
1619375660.42499,83.2749,23.814990043640137
1619375660.44061,76.70078,23.830610036849976
1619375660.45624,69.26575,23.846240043640137
1619375660.47187,61.20258,23.861870050430298
1619375660.48749,52.69797,23.877490043640137
1619375660.50312,44.19144,23.893120050430298
1619375660.51874,36.35858,23.908740043640137
1619375660.53437,29.98001,23.924370050430298
1619375660.54999,25.61465,23.939990043640137
1619375660.56562,23.28894,23.955620050430298
1619375660.58125,22.47845,23.97125005722046
1619375660.59687,22.1955,23.986870050430298
1619375660.6125,21.54019,24.00250005722046
1619375660.62812,20.0079,24.018120050430298
1619375660.64375,17.72717,24.03375005722046
1619375660.65937,15.26511,24.049370050430298
1619375660.675,13.25888,24.06500005722046
1619375660.69063,11.97479,24.08063006401062
1619375660.70625,11.14636,24.09625005722046
1619375660.72188,10.06339,24.11188006401062
1619375660.7375,7.865448,24.12750005722046
1619375660.75313,3.914368,24.14313006401062
1619375660.76875,-2.008575,24.15875005722046
1619375660.78438,-9.53299,24.17438006401062
1619375660.80001,-17.83121,24.19001007080078
1619375660.81563,-25.57535,24.20563006401062
1619375660.83126,-31.19965,24.22126007080078
1619375660.84688,-33.18832,24.23688006401062
1619375660.86251,-30.49167,24.25251007080078
1619375660.87813,-22.94135,24.26813006401062
1619375660.89376,-11.38197,24.28376007080078
1619375660.90939,2.40036,24.299390077590942
1619375660.92501,16.25986,24.31501007080078
1619375660.94064,28.28134,24.330640077590942
1619375660.95626,37.32014,24.34626007080078
1619375660.97189,43.16843,24.361890077590942
1619375660.98751,46.28343,24.37751007080078
1619375661.00314,47.30753,24.393140077590942
1619375661.01877,46.66933,24.408770084381104
1619375661.03439,44.49228,24.424390077590942
1619375661.05002,40.72408,24.440020084381104
1619375661.06564,35.48233,24.455640077590942
1619375661.08127,29.244,24.471270084381104
1619375661.0969,22.85895,24.486900091171265
1619375661.11252,17.30086,24.502520084381104
1619375661.12815,13.36853,24.518150091171265
1619375661.14377,11.41319,24.533770084381104
1619375661.1594,11.20726,24.549400091171265
1619375661.17502,12.10425,24.565020084381104
1619375661.19065,13.20561,24.580650091171265
1619375661.20628,13.75432,24.596280097961426
1619375661.2219,13.32039,24.611900091171265
1619375661.23753,11.89835,24.627530097961426
1619375661.25315,9.806839,24.643150091171265
1619375661.26878,7.438568,24.658780097961426
1619375661.2844,5.108704,24.674400091171265
1619375661.30003,2.84816,24.690030097961426
1619375661.31566,0.4507141,24.705660104751587
1619375661.33128,-2.422836,24.721280097961426
1619375661.34691,-6.112968,24.736910104751587
1619375661.36253,-10.83973,24.752530097961426
1619375661.37816,-16.70445,24.768160104751587
1619375661.39378,-23.62418,24.783780097961426
1619375661.40941,-31.30004,24.799410104751587
1619375661.42504,-38.95179,24.815040111541748
1619375661.44066,-45.35162,24.830660104751587
1619375661.45629,-48.86503,24.846290111541748
1619375661.47191,-47.92464,24.861910104751587
1619375661.48754,-41.58858,24.877540111541748
1619375661.50316,-30.03876,24.893160104751587
1619375661.51879,-14.68499,24.908790111541748
1619375661.53442,2.154129,24.92442011833191
1619375661.55004,17.93336,24.940040111541748
1619375661.56567,30.62036,24.95567011833191
1619375661.58129,39.14646,24.971290111541748
1619375661.59692,43.50859,24.98692011833191
1619375661.61254,44.36266,25.002540111541748
1619375661.62817,42.65916,25.01817011833191
1619375661.6438,39.30792,25.03380012512207
1619375661.65942,35.0266,25.04942011833191
1619375661.67505,30.38454,25.06505012512207
1619375661.69067,25.84567,25.08067011833191
1619375661.7063,21.75272,25.09630012512207
1619375661.72192,18.26084,25.11192011833191
1619375661.73755,15.38427,25.12755012512207
1619375661.75318,13.05021,25.14318013191223
1619375661.7688,11.19011,25.15880012512207
1619375661.78443,9.86503,25.17443013191223
1619375661.80005,9.247301,25.19005012512207
1619375661.81568,9.505432,25.20568013191223
1619375661.8313,10.64087,25.22130012512207
1619375661.84693,12.45279,25.23693013191223
1619375661.86256,14.47661,25.252560138702393
1619375661.87818,16.0713,25.26818013191223
1619375661.89381,16.54344,25.283810138702393
1619375661.90943,15.30166,25.29943013191223
1619375661.92506,12.02756,25.315060138702393
1619375661.94068,6.876041,25.33068013191223
1619375661.95631,0.4467955,25.346310138702393
1619375661.97194,-6.271439,25.361940145492554
1619375661.98756,-12.2904,25.377560138702393
1619375662.00319,-17.00625,25.393190145492554
1619375662.01881,-20.52347,25.408810138702393
1619375662.03444,-23.66149,25.424440145492554
1619375662.05006,-27.57789,25.440060138702393
1619375662.06569,-33.16673,25.455690145492554
1619375662.08132,-40.39762,25.471320152282715
1619375662.09694,-48.08765,25.486940145492554
1619375662.11257,-54.06826,25.502570152282715
1619375662.12819,-55.90581,25.518190145492554
1619375662.14382,-51.8026,25.533820152282715
1619375662.15944,-41.27795,25.549440145492554
1619375662.17507,-25.49363,25.565070152282715
1619375662.1907,-6.793381,25.580700159072876
1619375662.20632,11.94105,25.596320152282715
1619375662.22195,28.23199,25.611950159072876
1619375662.23757,40.5323,25.627570152282715
1619375662.2532,48.41468,25.643200159072876
1619375662.26882,52.3215,25.658820152282715
1619375662.28445,53.05824,25.674450159072876
1619375662.30008,51.44078,25.690080165863037
1619375662.3157,48.06544,25.705700159072876
1619375662.33133,43.4347,25.721330165863037
1619375662.34695,38.0412,25.736950159072876
1619375662.36258,32.54421,25.752580165863037
1619375662.3782,27.59477,25.768200159072876
1619375662.39383,23.69012,25.783830165863037
1619375662.40946,21.01595,25.7994601726532
1619375662.42508,19.37812,25.815080165863037
1619375662.44071,18.42757,25.8307101726532
1619375662.45633,17.87253,25.846330165863037
1619375662.47196,17.64896,25.8619601726532
1619375662.48758,17.85761,25.877580165863037
1619375662.50321,18.57378,25.8932101726532
1619375662.51884,19.65769,25.90884017944336
1619375662.53446,20.72896,25.9244601726532
1619375662.55009,21.24837,25.94009017944336
1619375662.56571,20.69937,25.9557101726532
1619375662.58134,18.89137,25.97134017944336
1619375662.59696,15.86077,25.9869601726532
1619375662.61259,11.85098,26.00259017944336
1619375662.62822,7.161087,26.01822018623352
1619375662.64384,2.029022,26.03384017944336
1619375662.65947,-3.287857,26.04947018623352
1619375662.67509,-8.517624,26.06509017944336
1619375662.69072,-13.3974,26.08072018623352
1619375662.70634,-17.7155,26.09634017944336
1619375662.72197,-21.36903,26.11197018623352
1619375662.7376,-24.46806,26.12760019302368
1619375662.75322,-27.34474,26.14322018623352
1619375662.76885,-30.4471,26.15885019302368
1619375662.78447,-34.2966,26.17447018623352
1619375662.8001,-39.35388,26.19010019302368
1619375662.81572,-45.79123,26.20572018623352
1619375662.83135,-53.35432,26.22135019302368
1619375662.84698,-61.10599,26.236980199813843
1619375662.8626,-67.42331,26.25260019302368
1619375662.87823,-70.39186,26.268230199813843
1619375662.89385,-68.30119,26.28385019302368
1619375662.90948,-60.33099,26.299480199813843
1619375662.9251,-47.03085,26.31510019302368
1619375662.94073,-30.25565,26.330730199813843
1619375662.95636,-12.63542,26.346360206604004
1619375662.97198,3.216934,26.361980199813843
1619375662.98761,15.51021,26.377610206604004
1619375663.00323,23.55215,26.393230199813843
1619375663.01886,27.55637,26.408860206604004
1619375663.03448,28.20456,26.424480199813843
1619375663.05011,26.24661,26.440110206604004
1619375663.06574,22.19911,26.455740213394165
1619375663.08136,16.61476,26.471360206604004
1619375663.09699,10.22333,26.486990213394165
1619375663.11261,4.078583,26.502610206604004
1619375663.12824,-0.6166992,26.518240213394165
1619375663.14386,-2.908936,26.533860206604004
1619375663.15949,-2.465164,26.549490213394165
1619375663.17512,0.3140717,26.565120220184326
1619375663.19074,4.490723,26.580740213394165
1619375663.20637,8.921555,26.596370220184326
1619375663.22199,12.67986,26.611990213394165
1619375663.23762,15.27312,26.627620220184326
1619375663.25324,16.59048,26.643240213394165
1619375663.26887,16.78587,26.658870220184326
1619375663.2845,16.23976,26.674499988555908
1619375663.30012,15.34978,26.690120220184326
1619375663.31575,14.57178,26.705749988555908
1619375663.33137,14.08258,26.721370220184326
1619375663.347,13.5914,26.736999988555908
1619375663.36263,12.30725,26.75262999534607
1619375663.37825,9.249451,26.768249988555908
1619375663.39388,3.957245,26.78387999534607
1619375663.4095,-2.948944,26.799499988555908
1619375663.42513,-9.701324,26.81512999534607
1619375663.44075,-14.21594,26.830749988555908
1619375663.45638,-15.12875,26.84637999534607
1619375663.47201,-12.72845,26.86201000213623
1619375663.48763,-8.878296,26.87762999534607
1619375663.50326,-6.140106,26.89326000213623
1619375663.51888,-6.631958,26.90887999534607
1619375663.53451,-11.30072,26.92451000213623
1619375663.55013,-19.84079,26.94012999534607
1619375663.56576,-31.37897,26.95576000213623
1619375663.58139,-44.89868,26.97139000892639
1619375663.59701,-59.32657,26.98701000213623
1619375663.61264,-73.1463,27.00264000892639
1619375663.62826,-84.07138,27.01826000213623
1619375663.64389,-89.30444,27.03389000892639
1619375663.65951,-86.55017,27.04951000213623
1619375663.67514,-75.11044,27.06514000892639
1619375663.69077,-56.38852,27.080770015716553
1619375663.70639,-33.50253,27.09639000892639
1619375663.72202,-10.04968,27.112020015716553
1619375663.73764,11.13016,27.12764000892639
1619375663.75327,28.59702,27.143270015716553
1619375663.76889,42.0394,27.15889000892639
1619375663.78452,51.61716,27.174520015716553
1619375663.80015,57.28284,27.190150022506714
1619375663.81577,58.7309,27.205770015716553
1619375663.8314,55.83823,27.221400022506714
1619375663.84702,49.19174,27.237020015716553
1619375663.86265,40.37454,27.252650022506714
1619375663.87827,31.59311,27.268270015716553
1619375663.8939,25.02402,27.283900022506714
1619375663.90953,21.92014,27.299530029296875
1619375663.92515,22.35162,27.315150022506714
1619375663.94078,25.30228,27.330780029296875
1619375663.9564,29.28775,27.346400022506714
1619375663.97203,33.05087,27.362030029296875
1619375663.98765,35.92233,27.377650022506714
1619375664.00328,37.90219,27.393280029296875
1619375664.01891,39.29169,27.408910036087036
1619375664.03453,40.39334,27.424530029296875
1619375664.05016,41.22369,27.440160036087036
1619375664.06578,41.48517,27.455780029296875
1619375664.08141,40.79703,27.471410036087036
1619375664.09703,38.85852,27.487030029296875
1619375664.11266,35.63513,27.502660036087036
1619375664.12829,31.32037,27.518290042877197
1619375664.14391,26.19342,27.533910036087036
1619375664.15954,20.52927,27.549540042877197
1619375664.17516,14.5444,27.565160036087036
1619375664.19079,8.536896,27.580790042877197
1619375664.20641,2.916962,27.596410036087036
1619375664.22204,-1.880554,27.612040042877197
1619375664.23767,-5.582458,27.62767004966736
1619375664.25329,-8.296967,27.643290042877197
1619375664.26892,-10.58521,27.65892004966736
1619375664.28454,-13.28308,27.674540042877197
1619375664.30017,-17.22473,27.69017004966736
1619375664.31579,-22.92828,27.705790042877197
1619375664.33142,-30.24292,27.72142004966736
1619375664.34705,-38.23676,27.73705005645752
1619375664.36267,-45.32745,27.75267004966736
1619375664.3783,-49.62512,27.76830005645752
1619375664.39392,-49.48383,27.78392004966736
1619375664.40955,-44.07721,27.79955005645752
1619375664.42517,-33.73328,27.81517004966736
1619375664.4408,-19.80688,27.83080005645752
1619375664.45643,-4.31366,27.84643006324768
1619375664.47205,10.784,27.86205005645752
1619375664.48768,24.08453,27.87768006324768
1619375664.5033,34.95361,27.89330005645752
1619375664.51893,43.30878,27.90893006324768
1619375664.53455,49.30304,27.92455005645752
1619375664.55018,53.04053,27.94018006324768
1619375664.56581,54.50562,27.955810070037842
1619375664.58143,53.70129,27.97143006324768
1619375664.59706,50.79559,27.987060070037842
1619375664.61268,46.22021,28.00268006324768
1619375664.62831,40.66345,28.018310070037842
1619375664.64393,34.96948,28.03393006324768
1619375664.65956,29.97882,28.049560070037842
1619375664.67519,26.36646,28.065190076828003
1619375664.69081,24.45435,28.080810070037842
1619375664.70644,24.22406,28.096440076828003
1619375664.72206,25.27179,28.112060070037842
1619375664.73769,27.0506,28.127690076828003
1619375664.75331,29.0329,28.143310070037842
1619375664.76894,30.81091,28.158940076828003
1619375664.78457,32.15112,28.174570083618164
1619375664.80019,32.87195,28.190190076828003
1619375664.81582,32.77393,28.205820083618164
1619375664.83144,31.61957,28.221440076828003
1619375664.84707,29.28534,28.237070083618164
1619375664.86269,25.80402,28.252690076828003
1619375664.87832,21.45605,28.268320083618164
1619375664.89395,16.62982,28.283950090408325
1619375664.90957,11.63672,28.299570083618164
1619375664.9252,6.598999,28.315200090408325
1619375664.94082,1.412292,28.330820083618164
1619375664.95645,-4.083374,28.346450090408325
1619375664.97207,-9.954773,28.362070083618164
1619375664.9877,-16.04218,28.377700090408325
1619375665.00333,-22.07465,28.393330097198486
1619375665.01895,-27.85315,28.408950090408325
1619375665.03458,-33.34387,28.424580097198486
1619375665.0502,-38.68494,28.440200090408325
1619375665.06583,-43.88953,28.455830097198486
1619375665.08145,-48.51788,28.471450090408325
1619375665.09708,-51.56891,28.487080097198486
1619375665.11271,-51.65881,28.502710103988647
1619375665.12833,-47.54352,28.518330097198486
1619375665.14396,-38.66248,28.533960103988647
1619375665.15958,-25.46106,28.549580097198486
1619375665.17521,-9.315857,28.565210103988647
1619375665.19083,7.850159,28.580830097198486
1619375665.20646,24.12299,28.596460103988647
1619375665.22209,37.99054,28.61209011077881
1619375665.23771,48.59192,28.627710103988647
1619375665.25334,55.6709,28.64334011077881
1619375665.26896,59.4259,28.658960103988647
1619375665.28459,60.30212,28.67459011077881
1619375665.30021,58.78668,28.690210103988647
1619375665.31584,55.3443,28.70584011077881
1619375665.33147,50.35486,28.72147011756897
1619375665.34709,44.27533,28.73709011077881
1619375665.36272,37.71405,28.75272011756897
1619375665.37834,31.4928,28.76834011077881
1619375665.39397,26.44562,28.78397011756897
1619375665.40959,23.16125,28.79959011077881
1619375665.42522,21.65118,28.81522011756897
1619375665.44085,21.35242,28.83085012435913
1619375665.45647,21.40796,28.84647011756897
1619375665.4721,21.13092,28.86210012435913
1619375665.48772,20.35504,28.87772011756897
1619375665.50335,19.50995,28.89335012435913
1619375665.51898,19.30481,28.908980131149292
1619375665.5346,20.19086,28.92460012435913
1619375665.55023,21.98279,28.940230131149292
1619375665.56585,23.76172,28.95585012435913
1619375665.58148,24.27911,28.971480131149292
1619375665.5971,22.53119,28.98710012435913
1619375665.61273,18.25531,29.002730131149292
1619375665.62836,12.09875,29.018360137939453
1619375665.64398,5.360352,29.033980131149292
1619375665.65961,-0.475708,29.049610137939453
1619375665.67523,-4.365112,29.065230131149292
1619375665.69086,-5.983826,29.080860137939453
1619375665.70648,-5.818787,29.096480131149292
1619375665.72211,-4.952332,29.112110137939453
1619375665.73774,-4.684204,29.127740144729614
1619375665.75336,-6.293884,29.143360137939453
1619375665.76899,-10.63788,29.158990144729614
1619375665.78461,-17.79608,29.174610137939453
1619375665.80024,-26.76538,29.190240144729614
1619375665.81586,-35.35583,29.205860137939453
1619375665.83149,-40.52637,29.221490144729614
1619375665.84712,-39.35565,29.237120151519775
1619375665.86274,-30.19958,29.252740144729614
1619375665.87837,-13.49268,29.268370151519775
1619375665.89399,8.009644,29.283990144729614
1619375665.90962,30.19159,29.299620151519775
1619375665.92524,48.93677,29.315240144729614
1619375665.94087,61.59216,29.330870151519775
1619375665.9565,67.76978,29.346500158309937
1619375665.97212,69.23102,29.362120151519775
1619375665.98775,68.86127,29.377750158309937
1619375666.00337,69.33911,29.393370151519775
1619375666.019,71.94226,29.409000158309937
1619375666.03462,76.04691,29.424620151519775
1619375666.05025,79.57132,29.440250158309937
1619375666.06588,79.91748,29.455880165100098
1619375666.0815,75.20297,29.471500158309937
1619375666.09713,65.09094,29.487130165100098
1619375666.11275,50.99011,29.502750158309937
1619375666.12838,35.4632,29.518380165100098
1619375666.144,21.23984,29.534000158309937
1619375666.15963,10.23306,29.549630165100098
1619375666.17526,3.045044,29.56526017189026
1619375666.19088,-0.9150696,29.580880165100098
1619375666.20651,-2.841522,29.59651017189026
1619375666.22213,-3.909912,29.612130165100098
1619375666.23776,-4.727386,29.62776017189026
1619375666.25338,-5.15506,29.643380165100098
1619375666.26901,-4.554138,29.65901017189026
1619375666.28464,-2.12915,29.67464017868042
1619375666.30026,2.497589,29.69026017189026
1619375666.31589,8.840363,29.70589017868042
1619375666.33151,15.58719,29.72151017189026
1619375666.34714,21.04852,29.73714017868042
1619375666.36276,23.92514,29.75276017189026
1619375666.37839,24.1109,29.76839017868042
1619375666.39402,22.82336,29.78402018547058
1619375666.40964,22.05215,29.79964017868042
1619375666.42527,23.45148,29.81527018547058
1619375666.44089,27.21454,29.83089017868042
1619375666.45652,31.73795,29.84652018547058
1619375666.47214,34.21802,29.86214017868042
1619375666.48777,31.82199,29.87777018547058
1619375666.5034,23.0007,29.893400192260742
1619375666.51902,8.285095,29.90902018547058
1619375666.53465,-9.830475,29.924650192260742
1619375666.55027,-27.63849,29.94027018547058
1619375666.5659,-41.39539,29.955900192260742
1619375666.58152,-48.4726,29.97152018547058
1619375666.59715,-47.99683,29.987150192260742
1619375666.61278,-40.99374,30.002780199050903
1619375666.6284,-29.98901,30.018400192260742
1619375666.64403,-18.10104,30.034030199050903
1619375666.65965,-8.166595,30.049650192260742
1619375666.67528,-2.070587,30.065280199050903
1619375666.6909,-0.4094238,30.080900192260742
1619375666.70653,-2.795792,30.096530199050903
1619375666.72216,-8.371552,30.112160205841064
1619375666.73778,-16.29178,30.127780199050903
1619375666.75341,-25.97903,30.143410205841064
1619375666.76903,-37.08237,30.159030199050903
1619375666.78466,-49.08191,30.174660205841064
1619375666.80028,-61.07974,30.190280199050903
1619375666.81591,-71.77507,30.205910205841064
1619375666.83154,-79.77838,30.221540212631226
1619375666.84716,-84.13933,30.237160205841064
1619375666.86279,-84.80702,30.252790212631226
1619375666.87841,-82.84532,30.268410205841064
1619375666.89404,-80.12846,30.284040212631226
1619375666.90966,-78.67642,30.299660205841064
1619375666.92529,-79.78143,30.315290212631226
1619375666.94092,-83.40848,30.330920219421387
1619375666.95654,-88.20255,30.346540212631226
1619375666.97217,-92.03175,30.362170219421387
1619375666.98779,-92.86494,30.377790212631226
1619375667.00342,-89.55132,30.393420219421387
1619375667.01904,-82.17763,30.409040212631226
1619375667.03467,-71.86537,30.424670219421387
1619375667.0503,-60.18018,30.44029998779297
1619375667.06592,-48.46915,30.455920219421387
1619375667.08155,-37.51283,30.47154998779297
1619375667.09717,-27.5329,30.487170219421387
1619375667.1128,-18.51128,30.50279998779297
1619375667.12842,-10.49982,30.518420219421387
1619375667.14405,-3.815659,30.53404998779297
1619375667.15968,1.069107,30.54967999458313
1619375667.1753,3.731262,30.56529998779297
1619375667.19093,4.045898,30.58092999458313
1619375667.20655,2.238434,30.59654998779297
1619375667.22218,-1.203613,30.61217999458313
1619375667.2378,-5.563766,30.62779998779297
1619375667.25343,-10.02382,30.64342999458313
1619375667.26906,-13.57825,30.65906000137329
1619375667.28468,-15.03393,30.67467999458313
1619375667.30031,-13.24993,30.69031000137329
1619375667.31593,-7.400047,30.70592999458313
1619375667.33156,2.615036,30.72156000137329
1619375667.34718,15.99866,30.73717999458313
1619375667.36281,31.23301,30.75281000137329
1619375667.37844,46.45887,30.768440008163452
1619375667.39406,59.93636,30.78406000137329
1619375667.40969,70.46024,30.799690008163452
1619375667.42531,77.43011,30.81531000137329
1619375667.44094,80.80624,30.830940008163452
1619375667.45656,80.96156,30.84656000137329
1619375667.47219,78.49844,30.862190008163452
1619375667.48782,74.20348,30.877820014953613
1619375667.50344,68.92937,30.893440008163452
1619375667.51907,63.57694,30.909070014953613
1619375667.53469,58.93286,30.924690008163452
1619375667.55032,55.534,30.940320014953613
1619375667.56594,53.5371,30.955940008163452
1619375667.58157,52.62429,30.971570014953613
1619375667.5972,52.20111,30.987200021743774
1619375667.61282,51.48932,31.002820014953613
1619375667.62845,49.94302,31.018450021743774
1619375667.64407,47.44472,31.034070014953613
1619375667.6597,44.33993,31.049700021743774
1619375667.67532,41.34383,31.065320014953613
1619375667.69095,39.19228,31.080950021743774
1619375667.70658,38.31651,31.096580028533936
1619375667.7222,38.63016,31.112200021743774
1619375667.73783,39.70098,31.127830028533936
1619375667.75345,40.86718,31.143450021743774
1619375667.76908,41.57431,31.159080028533936
1619375667.7847,41.44496,31.174700021743774
1619375667.80033,40.2715,31.190330028533936
1619375667.81596,37.89573,31.205960035324097
1619375667.83158,34.10635,31.221580028533936
1619375667.84721,28.61388,31.237210035324097
1619375667.86283,21.05581,31.252830028533936
1619375667.87846,11.11978,31.268460035324097
1619375667.89408,-1.381465,31.284080028533936
1619375667.90971,-16.36963,31.299710035324097
1619375667.92534,-33.32122,31.315340042114258
1619375667.94096,-51.12353,31.330960035324097
1619375667.95659,-68.14172,31.346590042114258
1619375667.97221,-82.3543,31.362210035324097
1619375667.98784,-91.80671,31.377840042114258
1619375668.00346,-95.26376,31.393460035324097
1619375668.01909,-92.59414,31.409090042114258
1619375668.03472,-84.95399,31.42472004890442
1619375668.05034,-74.49878,31.440340042114258
1619375668.06597,-63.70013,31.45597004890442
1619375668.08159,-54.65087,31.471590042114258
1619375668.09722,-48.49844,31.48722004890442
1619375668.11284,-45.40953,31.502840042114258
1619375668.12847,-44.80502,31.51847004890442
1619375668.1441,-45.83674,31.53410005569458
1619375668.15972,-47.75088,31.54972004890442
1619375668.17535,-50.08058,31.56535005569458
1619375668.19097,-52.56741,31.58097004890442
1619375668.2066,-55.0575,31.59660005569458
1619375668.22223,-57.45287,31.61223006248474
1619375668.23785,-59.73543,31.62785005569458
1619375668.25348,-61.98141,31.64348006248474
1619375668.2691,-64.18516,31.65910005569458
1619375668.28473,-66.05144,31.67473006248474
1619375668.30035,-66.77694,31.69035005569458
1619375668.31598,-65.19545,31.70598006248474
1619375668.33161,-60.21605,31.721610069274902
1619375668.34723,-51.46281,31.73723006248474
1619375668.36286,-39.62634,31.752860069274902
1619375668.37848,-26.37892,31.76848006248474
1619375668.39411,-13.72117,31.784110069274902
1619375668.40973,-3.253044,31.79973006248474
1619375668.42536,4.364517,31.815360069274902
1619375668.44099,9.337219,31.830990076065063
1619375668.45661,12.24088,31.846610069274902
1619375668.47224,13.46391,31.862240076065063
1619375668.48786,13.04151,31.877860069274902
1619375668.50349,10.70664,31.893490076065063
1619375668.51911,6.360626,31.909110069274902
1619375668.53474,0.4029694,31.924740076065063
1619375668.55037,-6.3228,31.940370082855225
1619375668.56599,-12.76507,31.955990076065063
1619375668.58162,-18.07316,31.971620082855225
1619375668.59724,-21.86063,31.987240076065063
1619375668.61287,-24.1776,32.002870082855225
1619375668.62849,-25.26672,32.01849007606506
1619375668.64412,-25.28606,32.034120082855225
1619375668.65975,-23.97137,32.049750089645386
1619375668.67537,-20.62389,32.065370082855225
1619375668.691,-14.327,32.081000089645386
1619375668.70662,-4.336334,32.096620082855225
1619375668.72225,9.454491,32.112250089645386
1619375668.73787,26.29554,32.127870082855225
1619375668.7535,44.66682,32.143500089645386
1619375668.76913,62.6261,32.15913009643555
1619375668.78475,78.15212,32.174750089645386
1619375668.80038,89.517,32.19038009643555
1619375668.816,95.41882,32.206000089645386
1619375668.83163,95.05804,32.22163009643555
1619375668.84725,88.37739,32.237250089645386
1619375668.86288,76.14158,32.25288009643555
1619375668.87851,59.91915,32.26851010322571
1619375668.89413,41.84337,32.28413009643555
1619375668.90976,24.08105,32.29976010322571
1619375668.92538,8.396187,32.31538009643555
1619375668.94101,-4.036385,32.33101010322571
1619375668.95663,-12.43665,32.34663009643555
1619375668.97226,-16.23708,32.36226010322571
1619375668.98789,-14.83981,32.37789011001587
1619375669.00351,-8.032028,32.39351010322571
1619375669.01914,3.650528,32.40914011001587
1619375669.03476,18.58294,32.42476010322571
1619375669.05039,34.33549,32.44039011001587
1619375669.06601,48.24681,32.45601010322571
1619375669.08164,58.14631,32.47164011001587
1619375669.09727,62.77183,32.48727011680603
1619375669.11289,61.71927,32.50289011001587
1619375669.12852,55.28506,32.51852011680603
1619375669.14414,44.14794,32.53414011001587
1619375669.15977,29.37295,32.54977011680603
1619375669.17539,12.38463,32.56539011001587
1619375669.19102,-5.104233,32.58102011680603
1619375669.20665,-21.42304,32.59665012359619
1619375669.22227,-35.3465,32.61227011680603
1619375669.2379,-46.43182,32.62790012359619
1619375669.25352,-55.11398,32.64352011680603
1619375669.26915,-62.37367,32.65915012359619
1619375669.28477,-69.38573,32.67477011680603
1619375669.3004,-76.91875,32.69040012359619
1619375669.31603,-85.06472,32.70603013038635
1619375669.33165,-93.01308,32.72165012359619
1619375669.34728,-99.22958,32.73728013038635
1619375669.3629,-101.7308,32.75290012359619
1619375669.37853,-98.8206,32.76853013038635
1619375669.39415,-89.71351,32.78415012359619
1619375669.40978,-74.92312,32.79978013038635
1619375669.42541,-56.33256,32.815410137176514
1619375669.44103,-36.58659,32.83103013038635
1619375669.45666,-18.29969,32.846660137176514
1619375669.47228,-3.366898,32.86228013038635
1619375669.48791,7.378914,32.877910137176514
1619375669.50353,14.13126,32.89353013038635
1619375669.51916,17.65562,32.909160137176514
1619375669.53479,18.87464,32.924790143966675
1619375669.55041,18.58791,32.940410137176514
1619375669.56604,17.34581,32.956040143966675
1619375669.58166,15.4791,32.971660137176514
1619375669.59729,13.18143,32.987290143966675
1619375669.61291,10.60416,33.002910137176514
1619375669.62854,7.99086,33.018540143966675
1619375669.64417,5.711212,33.034170150756836
1619375669.65979,4.224632,33.049790143966675
1619375669.67542,3.990677,33.065420150756836
1619375669.69104,5.412102,33.081040143966675
1619375669.70667,8.638237,33.096670150756836
1619375669.72229,13.48727,33.112290143966675
1619375669.73792,19.3988,33.127920150756836
1619375669.75355,25.43433,33.143550157547
1619375669.76917,30.52287,33.159170150756836
1619375669.7848,33.74809,33.174800157547
1619375669.80042,34.62873,33.190420150756836
1619375669.81605,33.31805,33.206050157547
1619375669.83167,30.59738,33.221670150756836
1619375669.8473,27.51906,33.237300157547
1619375669.86293,25.05629,33.25293016433716
1619375669.87855,23.7644,33.268550157547
1619375669.89418,23.58908,33.28418016433716
1619375669.9098,24.10342,33.299800157547
1619375669.92543,24.71902,33.31543016433716
1619375669.94105,24.90814,33.331050157547
1619375669.95668,24.31604,33.34668016433716
1619375669.97231,22.85854,33.36231017112732
1619375669.98793,20.72766,33.37793016433716
1619375670.00356,18.58699,33.39356017112732
1619375670.01918,17.62665,33.40918016433716
1619375670.03481,19.37906,33.42481017112732
1619375670.05043,25.39169,33.44043016433716
1619375670.06606,36.68431,33.45606017112732
1619375670.08169,53.36394,33.47169017791748
1619375670.09731,74.41685,33.48731017112732
1619375670.11294,98.02644,33.50294017791748
1619375670.12856,121.9318,33.51856017112732
1619375670.14419,144.0741,33.53419017791748
1619375670.15981,162.9969,33.54981017112732
1619375670.17544,178.0374,33.56544017791748
1619375670.19107,189.2751,33.58107018470764
1619375670.20669,197.2931,33.59669017791748
1619375670.22232,202.8786,33.61232018470764
1619375670.23794,206.7817,33.62794017791748
1619375670.25357,209.6602,33.64357018470764
1619375670.26919,212.0928,33.65919017791748
1619375670.28482,214.6951,33.67482018470764
1619375670.30045,218.0518,33.6904501914978
1619375670.31607,222.4133,33.70607018470764
1619375670.3317,227.3594,33.7217001914978
1619375670.34732,231.6356,33.73732018470764
1619375670.36295,233.4702,33.7529501914978
1619375670.37858,231.3247,33.768580198287964
1619375670.3942,224.6941,33.7842001914978
1619375670.40983,214.367,33.799830198287964
1619375670.42545,202.0253,33.8154501914978
1619375670.44108,189.1891,33.831080198287964
1619375670.4567,176.1575,33.8467001914978
1619375670.47233,161.7372,33.862330198287964
1619375670.48796,143.7486,33.877960205078125
1619375670.50358,120.2838,33.893580198287964
1619375670.51921,90.8197,33.909210205078125
1619375670.53483,56.65063,33.924830198287964
1619375670.55046,20.36475,33.940460205078125
1619375670.56608,-15.21899,33.956080198287964
1619375670.58171,-48.133,33.971710205078125
1619375670.59734,-77.75323,33.987340211868286
1619375670.61296,-104.4818,34.002960205078125
1619375670.62859,-129.0745,34.018590211868286
1619375670.64421,-151.8694,34.034210205078125
1619375670.65984,-172.4849,34.049840211868286
1619375670.67546,-189.9241,34.065460205078125
1619375670.69109,-203.0922,34.081090211868286
1619375670.70672,-211.3099,34.09672021865845
1619375670.72234,-214.7478,34.112340211868286
1619375670.73797,-214.4072,34.12797021865845
1619375670.75359,-211.8435,34.143590211868286
1619375670.76922,-208.7545,34.15922021865845
1619375670.78484,-206.4256,34.174840211868286
1619375670.80047,-205.4504,34.19047021865845
1619375670.8161,-205.732,34.20609998703003
1619375670.83172,-206.7354,34.22172021865845
1619375670.84735,-207.8808,34.23734998703003
1619375670.86297,-208.934,34.25297021865845
1619375670.8786,-210.1108,34.26859998703003
1619375670.89422,-212.0323,34.28422021865845
1619375670.90985,-215.7141,34.29984998703003
1619375670.92548,-222.4326,34.31547999382019
1619375670.9411,-233.554,34.33109998703003
1619375670.95673,-250.1296,34.34672999382019
1619375670.97235,-271.9859,34.36234998703003
1619375670.98798,-296.8782,34.37797999382019
1619375671.0036,-320.1972,34.39359998703003
1619375671.01923,-335.7538,34.40922999382019
1619375671.03486,-337.6776,34.42486000061035
1619375671.05048,-322.7255,34.44047999382019
1619375671.06611,-291.7893,34.45611000061035
1619375671.08173,-249.8911,34.47172999382019
1619375671.09736,-204.6036,34.48736000061035
1619375671.11298,-163.4966,34.50297999382019
1619375671.12861,-131.9401,34.51861000061035
1619375671.14424,-111.881,34.53424000740051
1619375671.15986,-102.0596,34.54986000061035
1619375671.17549,-99.09448,34.56549000740051
1619375671.19111,-98.93646,34.58111000061035
1619375671.20674,-98.01123,34.59674000740051
1619375671.22236,-94.03943,34.61236000061035
1619375671.23799,-86.30835,34.62799000740051
1619375671.25362,-75.50983,34.643620014190674
1619375671.26924,-63.21234,34.65924000740051
1619375671.28487,-50.99792,34.674870014190674
1619375671.30049,-39.69775,34.69049000740051
1619375671.31612,-29.04584,34.706120014190674
1619375671.33174,-17.84363,34.72174000740051
1619375671.34737,-4.327942,34.737370014190674
1619375671.363,13.15387,34.753000020980835
1619375671.37862,35.69092,34.768620014190674
1619375671.39425,63.44373,34.784250020980835
1619375671.40987,95.28326,34.799870014190674
1619375671.4255,128.5044,34.815500020980835
1619375671.44112,159.1363,34.831120014190674
1619375671.45675,182.6323,34.846750020980835
1619375671.47238,195.1529,34.862380027770996
1619375671.488,194.9046,34.878000020980835
1619375671.50363,182.7537,34.893630027770996
1619375671.51925,162.0219,34.909250020980835
1619375671.53488,137.3507,34.924880027770996
1619375671.5505,113.207,34.940500020980835
1619375671.56613,92.65656,34.956130027770996
1619375671.58176,76.94672,34.97176003456116
1619375671.59738,65.82507,34.987380027770996
1619375671.61301,58.22302,35.00301003456116
1619375671.62863,52.94391,35.018630027770996
1619375671.64426,48.95117,35.03426003456116
1619375671.65988,45.39703,35.049880027770996
1619375671.67551,41.521,35.06551003456116
1619375671.69114,36.57733,35.08114004135132
1619375671.70676,29.94263,35.09676003456116
1619375671.72239,21.30353,35.11239004135132
1619375671.73801,10.79053,35.12801003456116
1619375671.75364,-0.9680786,35.14364004135132
1619375671.76926,-13.03876,35.15926003456116
1619375671.78489,-24.552,35.17489004135132
1619375671.80052,-35.08252,35.19052004814148
1619375671.81614,-44.85004,35.20614004135132
1619375671.83177,-54.69263,35.22177004814148
1619375671.84739,-65.70154,35.23739004135132
1619375671.86302,-78.73193,35.25302004814148
1619375671.87864,-93.87524,35.26864004135132
1619375671.89427,-110.2306,35.28427004814148
1619375671.9099,-125.9214,35.29990005493164
1619375671.92552,-138.6212,35.31552004814148
1619375671.94115,-146.1575,35.33115005493164
1619375671.95677,-147.2797,35.34677004814148
1619375671.9724,-142.0122,35.36240005493164
1619375671.98802,-131.7021,35.37802004814148
1619375672.00365,-118.6267,35.39365005493164
1619375672.01928,-105.28,35.4092800617218
1619375672.0349,-93.78522,35.42490005493164
1619375672.05053,-85.45782,35.4405300617218
1619375672.06615,-80.69122,35.45615005493164
1619375672.08178,-79.1297,35.4717800617218
1619375672.0974,-79.97125,35.48740005493164
1619375672.11303,-82.27698,35.5030300617218
1619375672.12866,-85.13458,35.51866006851196
1619375672.14428,-87.79803,35.5342800617218
1619375672.15991,-89.58783,35.54991006851196
1619375672.17553,-89.79926,35.5655300617218
1619375672.19116,-87.67966,35.58116006851196
1619375672.20678,-82.37305,35.5967800617218
1619375672.22241,-73.04193,35.61241006851196
1619375672.23804,-59.21249,35.628040075302124
1619375672.25366,-41.14511,35.64366006851196
1619375672.26929,-20.00446,35.659290075302124
1619375672.28491,2.153564,35.67491006851196
1619375672.30054,22.92984,35.690540075302124
1619375672.31616,40.2403,35.70616006851196
1619375672.33179,52.87347,35.721790075302124
1619375672.34742,60.64444,35.737420082092285
1619375672.36304,64.15582,35.753040075302124
1619375672.37867,64.2724,35.768670082092285
1619375672.39429,61.64117,35.784290075302124
1619375672.40992,56.63135,35.799920082092285
1619375672.42554,49.43839,35.815540075302124
1619375672.44117,40.41904,35.831170082092285
1619375672.4568,30.18573,35.846800088882446
1619375672.47242,19.56097,35.862420082092285
1619375672.48805,9.393448,35.878050088882446
1619375672.50367,0.4469147,35.893670082092285
1619375672.5193,-6.387955,35.909300088882446
1619375672.53492,-9.979568,35.924920082092285
1619375672.55055,-8.936401,35.940550088882446
1619375672.56618,-2.016632,35.95618009567261
1619375672.5818,11.27689,35.971800088882446
1619375672.59743,30.15186,35.98743009567261
1619375672.61305,52.43903,36.003050088882446
1619375672.62868,75.04827,36.01868009567261
1619375672.6443,94.80518,36.034300088882446
1619375672.65993,109.3965,36.04993009567261
1619375672.67556,117.9093,36.06556010246277
1619375672.69118,120.8501,36.08118009567261
1619375672.70681,119.6098,36.09681010246277
1619375672.72243,115.8168,36.11243009567261
1619375672.73806,110.7452,36.12806010246277
1619375672.75369,104.9929,36.14369010925293
1619375672.76931,98.69473,36.15931010246277
1619375672.78494,91.72914,36.17494010925293
1619375672.80056,84.12005,36.19056010246277
1619375672.81619,76.14173,36.20619010925293
1619375672.83181,68.33716,36.22181010246277
1619375672.84744,61.24413,36.23744010925293
1619375672.86307,55.21445,36.25307011604309
1619375672.87869,50.34327,36.26869010925293
1619375672.89432,46.37306,36.28432011604309
1619375672.90994,42.96717,36.29994010925293
1619375672.92557,39.75689,36.31557011604309
1619375672.94119,36.52956,36.33119010925293
1619375672.95682,33.19756,36.34682011604309
1619375672.97245,29.78936,36.36245012283325
1619375672.98807,26.28276,36.37807011604309
1619375673.0037,22.45428,36.39370012283325
1619375673.01932,17.95271,36.40932011604309
1619375673.03495,12.34711,36.42495012283325
1619375673.05057,5.436142,36.44057011604309
1619375673.0662,-2.739059,36.45620012283325
1619375673.08183,-11.82166,36.47183012962341
1619375673.09745,-21.36662,36.48745012283325
1619375673.11308,-30.86913,36.50308012962341
1619375673.1287,-39.74356,36.51870012283325
1619375673.14433,-47.16222,36.53433012962341
1619375673.15995,-51.85379,36.54995012283325
1619375673.17558,-52.32086,36.56558012962341
1619375673.19121,-47.21877,36.581210136413574
1619375673.20683,-36.0798,36.59683012962341
1619375673.22246,-19.69409,36.612460136413574
1619375673.23808,-0.09768677,36.62808012962341
1619375673.25371,19.96385,36.643710136413574
1619375673.26933,37.85883,36.65933012962341
1619375673.28496,51.69926,36.674960136413574
1619375673.30059,60.76749,36.690590143203735
1619375673.31621,65.25726,36.706210136413574
1619375673.33184,65.94849,36.721840143203735
1619375673.34746,63.72504,36.737460136413574
1619375673.36309,59.34283,36.753090143203735
1619375673.37871,53.45886,36.768710136413574
1619375673.39434,46.65536,36.784340143203735
1619375673.40997,39.539,36.7999701499939
1619375673.42559,32.71021,36.815590143203735
1619375673.44122,26.7027,36.8312201499939
1619375673.45684,21.93533,36.846840143203735
1619375673.47247,18.64661,36.8624701499939
1619375673.48809,16.89761,36.878090143203735
1619375673.50372,16.61069,36.8937201499939
1619375673.51935,17.55688,36.90935015678406
1619375673.53497,19.32901,36.9249701499939
1619375673.5506,21.39243,36.94060015678406
1619375673.56622,23.08844,36.9562201499939
1619375673.58185,23.79001,36.97185015678406
1619375673.59747,22.97638,36.9874701499939
1619375673.6131,20.40491,37.00310015678406
1619375673.62873,16.17081,37.01873016357422
1619375673.64435,10.6474,37.03435015678406
1619375673.65998,4.37677,37.04998016357422
1619375673.6756,-2.084412,37.06560015678406
1619375673.69123,-8.355194,37.08123016357422
1619375673.70685,-14.29596,37.09685015678406
1619375673.72248,-20.13181,37.11248016357422
1619375673.73811,-26.3782,37.12811017036438
1619375673.75373,-33.5336,37.14373016357422
1619375673.76936,-41.74066,37.15936017036438
1619375673.78498,-50.37109,37.17498016357422
1619375673.80061,-57.84753,37.19061017036438
1619375673.81623,-61.95248,37.20623016357422
1619375673.83186,-60.50833,37.22186017036438
1619375673.84749,-52.2312,37.23749017715454
1619375673.86311,-37.39853,37.25311017036438
1619375673.87874,-17.88876,37.26874017715454
1619375673.89436,3.317017,37.28436017036438
1619375673.90999,23.08792,37.29999017715454
1619375673.92561,39.03391,37.31561017036438
1619375673.94124,49.94772,37.33124017715454
1619375673.95687,55.82715,37.3468701839447
1619375673.97249,57.46548,37.36249017715454
1619375673.98812,55.88269,37.3781201839447
1619375674.00374,52.03323,37.39374017715454
1619375674.01937,46.75433,37.4093701839447
1619375674.03499,40.81378,37.42499017715454
1619375674.05062,34.9895,37.4406201839447
1619375674.06625,30.01529,37.45625019073486
1619375674.08187,26.34665,37.4718701839447
1619375674.0975,24.04675,37.48750019073486
1619375674.11312,22.86441,37.5031201839447
1619375674.12875,22.37082,37.51875019073486
1619375674.14437,22.29218,37.5343701839447
1619375674.16,22.61978,37.55000019073486
1619375674.17563,23.55225,37.565630197525024
1619375674.19125,25.23016,37.58125019073486
1619375674.20688,27.52298,37.596880197525024
1619375674.2225,29.9006,37.61250019073486
1619375674.23813,31.5914,37.628130197525024
1619375674.25375,31.99738,37.64375019073486
1619375674.26938,30.82092,37.659380197525024
1619375674.28501,28.29086,37.675010204315186
1619375674.30063,25.04413,37.690630197525024
1619375674.31626,21.84259,37.706260204315186
1619375674.33188,19.33081,37.721880197525024
1619375674.34751,17.78937,37.737510204315186
1619375674.36313,16.92627,37.753130197525024
1619375674.37876,15.90045,37.768760204315186
1619375674.39439,13.54639,37.78439021110535
1619375674.41001,8.672852,37.800010204315186
1619375674.42564,0.6345215,37.81564021110535
1619375674.44126,-10.21265,37.831260204315186
1619375674.45689,-22.3139,37.84689021110535
1619375674.47251,-33.09955,37.862510204315186
1619375674.48814,-39.64484,37.87814021110535
1619375674.50377,-39.64862,37.89377021789551
1619375674.51939,-32.26404,37.90939021110535
1619375674.53502,-18.36316,37.92502021789551
1619375674.55064,-0.3851318,37.94064021110535
1619375674.56627,18.47339,37.95627021789551
1619375674.58189,35.21808,37.97189021110535
1619375674.59752,47.67078,37.98752021789551
1619375674.61315,54.8985,38.00314998626709
1619375674.62877,57.09851,38.01877021789551
1619375674.6444,55.18671,38.03439998626709
1619375674.66002,50.42566,38.05002021789551
1619375674.67565,44.11359,38.06564998626709
1619375674.69127,37.41663,38.08127021789551
1619375674.7069,31.34216,38.09689998626709
1619375674.72253,26.66614,38.11252999305725
1619375674.73815,23.76801,38.12814998626709
1619375674.75378,22.61365,38.14377999305725
1619375674.7694,22.82568,38.15939998626709
1619375674.78503,23.72864,38.17502999305725
1619375674.80065,24.64508,38.19064998626709
1619375674.81628,25.07068,38.20627999305725
1619375674.83191,24.7973,38.22190999984741
1619375674.84753,24.03003,38.23752999305725
1619375674.86316,23.20685,38.25315999984741
1619375674.87878,22.67157,38.26877999305725
1619375674.89441,22.44574,38.28440999984741
1619375674.91003,22.10602,38.30002999305725
1619375674.92566,20.87811,38.31565999984741
1619375674.94129,18.01154,38.33129000663757
1619375674.95691,13.19995,38.34690999984741
1619375674.97254,6.733643,38.36254000663757
1619375674.98816,-0.5490112,38.37815999984741
1619375675.00379,-7.536011,38.39379000663757
1619375675.01941,-13.37415,38.40940999984741
1619375675.03504,-17.69727,38.42504000663757
1619375675.05067,-20.76068,38.440670013427734
1619375675.06629,-23.28815,38.45629000663757
1619375675.08192,-26.21942,38.471920013427734
1619375675.09754,-30.44617,38.48754000663757
1619375675.11317,-36.55902,38.503170013427734
1619375675.12879,-44.60846,38.51879000663757
1619375675.14442,-53.83148,38.534420013427734
1619375675.16005,-62.62653,38.550050020217896
1619375675.17567,-68.63177,38.565670013427734
1619375675.1913,-69.32825,38.581300020217896
1619375675.20692,-62.87933,38.596920013427734
1619375675.22255,-48.93024,38.612550020217896
1619375675.23818,-29.0033,38.62818002700806
1619375675.2538,-6.207031,38.643800020217896
1619375675.26943,15.76196,38.65943002700806
1619375675.28505,33.71503,38.675050020217896
1619375675.30068,45.9386,38.69068002700806
1619375675.3163,52.37469,38.706300020217896
1619375675.33193,54.19061,38.72193002700806
1619375675.34756,52.99042,38.73756003379822
1619375675.36318,50.06732,38.75318002700806
1619375675.37881,46.14008,38.76881003379822
1619375675.39443,41.46545,38.78443002700806
1619375675.41006,36.16858,38.80006003379822
1619375675.42568,30.63214,38.81568002700806
1619375675.44131,25.49298,38.83131003379822
1619375675.45694,21.52771,38.84694004058838
1619375675.47256,19.37543,38.86256003379822
1619375675.48819,19.26007,38.87819004058838
1619375675.50381,20.98865,38.89381003379822
1619375675.51944,24.03766,38.90944004058838
1619375675.53506,27.79205,38.92506003379822
1619375675.55069,31.7215,38.94069004058838
1619375675.56632,35.5542,38.95632004737854
1619375675.58194,39.21802,38.97194004058838
1619375675.59757,42.6763,38.98757004737854
1619375675.61319,45.78113,39.00319004058838
1619375675.62882,48.11499,39.01882004737854
1619375675.64444,49.08722,39.03444004058838
1619375675.66007,48.04099,39.05007004737854
1619375675.6757,44.56857,39.0657000541687
1619375675.69132,38.61584,39.08132004737854
1619375675.70695,30.6467,39.0969500541687
1619375675.72257,21.47925,39.11257004737854
1619375675.7382,12.0509,39.1282000541687
1619375675.75382,3.219727,39.14382004737854
1619375675.76945,-4.547272,39.1594500541687
1619375675.78508,-11.14783,39.17508006095886
1619375675.8007,-16.80786,39.1907000541687
1619375675.81633,-21.94281,39.20633006095886
1619375675.83195,-26.98129,39.2219500541687
1619375675.84758,-32.22083,39.23758006095886
1619375675.8632,-37.7883,39.2532000541687
1619375675.87883,-43.45804,39.26883006095886
1619375675.89446,-48.46008,39.28446006774902
1619375675.91008,-51.61584,39.30008006095886
1619375675.92571,-51.45251,39.31571006774902
1619375675.94133,-46.68393,39.33133006095886
1619375675.95696,-36.7475,39.34696006774902
1619375675.97258,-22.13583,39.36258006095886
1619375675.98821,-4.403381,39.37821006774902
1619375676.00384,14.28937,39.393840074539185
1619375676.01946,31.81967,39.40946006774902
1619375676.03509,46.80878,39.425090074539185
1619375676.05071,58.69299,39.44071006774902
1619375676.06634,67.68478,39.456340074539185
1619375676.08196,74.28436,39.47196006774902
1619375676.09759,78.98184,39.487590074539185
1619375676.11322,82.02518,39.503220081329346
1619375676.12884,83.59302,39.518840074539185
1619375676.14447,83.96359,39.534470081329346
1619375676.16009,83.63818,39.550090074539185
1619375676.17572,83.34241,39.565720081329346
1619375676.19134,83.72058,39.581340074539185
1619375676.20697,85.26248,39.596970081329346
1619375676.2226,88.0986,39.61260008811951
1619375676.23822,92.14438,39.628220081329346
1619375676.25385,97.11963,39.64385008811951
1619375676.26947,102.748,39.659470081329346
1619375676.2851,108.8762,39.67510008811951
1619375676.30072,115.5124,39.690720081329346
1619375676.31635,122.7834,39.70635008811951
1619375676.33198,130.7705,39.72198009490967
1619375676.3476,139.4528,39.73760008811951
1619375676.36323,148.5939,39.75323009490967
1619375676.37885,157.7835,39.76885008811951
1619375676.39448,166.514,39.78448009490967
1619375676.4101,174.2839,39.80010008811951
1619375676.42573,180.686,39.81573009490967
1619375676.44136,185.4635,39.83136010169983
1619375676.45698,188.4814,39.84698009490967
1619375676.47261,189.7042,39.86261010169983
1619375676.48823,189.1793,39.87823009490967
1619375676.50386,186.981,39.89386010169983
1619375676.51948,183.096,39.90948009490967
1619375676.53511,177.3031,39.92511010169983
1619375676.55074,168.9866,39.94074010848999
1619375676.56636,157.1885,39.95636010169983
1619375676.58199,140.8476,39.97199010848999
1619375676.59761,119.3307,39.98761010169983
1619375676.61324,92.95471,40.00324010848999
1619375676.62886,63.23404,40.01886010169983
1619375676.64449,32.74308,40.03449010848999
1619375676.66012,4.467651,40.05012011528015
1619375676.67574,-19.00437,40.06574010848999
1619375676.69137,-36.13576,40.08137011528015
1619375676.70699,-46.68924,40.09699010848999
1619375676.72262,-51.58653,40.11262011528015
1619375676.73824,-52.31133,40.12824010848999
1619375676.75387,-50.38898,40.14387011528015
1619375676.7695,-46.95233,40.15950012207031
1619375676.78512,-42.65256,40.17512011528015
1619375676.80075,-37.89737,40.19075012207031
1619375676.81637,-33.13297,40.20637011528015
1619375676.832,-29.12994,40.22200012207031
1619375676.84762,-27.02505,40.23762011528015
1619375676.86325,-28.151,40.25325012207031
1619375676.87888,-33.50797,40.268880128860474
1619375676.8945,-43.25281,40.28450012207031
1619375676.91013,-56.39346,40.300130128860474
1619375676.92575,-70.90778,40.31575012207031
1619375676.94138,-84.50198,40.331380128860474
1619375676.957,-95.35336,40.34700012207031
1619375676.97263,-102.8871,40.362630128860474
1619375676.98826,-108.0896,40.378260135650635
1619375677.00388,-113.2081,40.393880128860474
1619375677.01951,-121.2327,40.409510135650635
1619375677.03513,-135.3986,40.425130128860474
1619375677.05076,-158.8641,40.440760135650635
1619375677.06638,-194.0532,40.456380128860474
1619375677.08201,-241.631,40.472010135650635
1619375677.09764,-299.3118,40.487640142440796
1619375677.11326,-361.2654,40.503260135650635
1619375677.12889,-418.9131,40.518890142440796
1619375677.14451,-463.2295,40.534510135650635
1619375677.16014,-487.8047,40.550140142440796
1619375677.17576,-490.9579,40.565760135650635
1619375677.19139,-476.0496,40.581390142440796
1619375677.20702,-449.3839,40.59702014923096
1619375677.22264,-417.198,40.612640142440796
1619375677.23827,-383.2246,40.62827014923096
1619375677.25389,-348.1898,40.643890142440796
1619375677.26952,-311.1546,40.65952014923096
1619375677.28514,-271.6235,40.675140142440796
1619375677.30077,-230.937,40.69077014923096
1619375677.3164,-192.1041,40.70640015602112
1619375677.33202,-158.4637,40.72202014923096
1619375677.34765,-132.0829,40.73765015602112
1619375677.36327,-112.9529,40.75327014923096
1619375677.3789,-99.44586,40.76890015602112
1619375677.39452,-89.40851,40.78452014923096
1619375677.41015,-81.21283,40.80015015602112
1619375677.42578,-74.25549,40.81578016281128
1619375677.4414,-68.93799,40.83140015602112
1619375677.45703,-65.96375,40.84703016281128
1619375677.47265,-65.56067,40.86265015602112
1619375677.48828,-66.97443,40.87828016281128
1619375677.50391,-68.38739,40.89391016960144
1619375677.51953,-67.33392,40.90953016281128
1619375677.53516,-61.43555,40.92516016960144
1619375677.55078,-49.32251,40.94078016281128
1619375677.56641,-31.11298,40.95641016960144
1619375677.58203,-8.439209,40.97203016281128
1619375677.59766,16.18152,40.98766016960144
1619375677.61329,40.29272,41.0032901763916
1619375677.62891,62.35834,41.01891016960144
1619375677.64454,82.0611,41.0345401763916
1619375677.66016,99.8092,41.05016016960144
1619375677.67579,115.9628,41.0657901763916
1619375677.69141,130.1485,41.08141016960144
1619375677.70704,141.2002,41.0970401763916
1619375677.72267,147.7547,41.11267018318176
1619375677.73829,149.2546,41.1282901763916
1619375677.75392,146.34,41.14392018318176
1619375677.76954,140.7412,41.1595401763916
1619375677.78517,134.4858,41.17517018318176
1619375677.80079,128.893,41.1907901763916
1619375677.81642,124.1454,41.20642018318176
1619375677.83205,119.51,41.222050189971924
1619375677.84767,114.054,41.23767018318176
1619375677.8633,107.4168,41.253300189971924
1619375677.87892,100.1482,41.26892018318176
1619375677.89455,93.32108,41.284550189971924
1619375677.91017,87.88153,41.30017018318176
1619375677.9258,84.00946,41.315800189971924
1619375677.94143,81.0213,41.331430196762085
1619375677.95705,77.72815,41.347050189971924
1619375677.97268,73.03357,41.362680196762085
1619375677.9883,66.39828,41.378300189971924
1619375678.00393,57.88556,41.393930196762085
1619375678.01955,47.99747,41.409550189971924
1619375678.03518,37.31705,41.425180196762085
1619375678.05081,26.2796,41.440810203552246
1619375678.06643,15.30908,41.456430196762085
1619375678.08206,4.953094,41.472060203552246
1619375678.09768,-4.085022,41.487680196762085
1619375678.11331,-11.09723,41.503310203552246
1619375678.12893,-15.814,41.518930196762085
1619375678.14456,-18.71884,41.534560203552246
1619375678.16019,-21.02219,41.55019021034241
1619375678.17581,-24.39038,41.565810203552246
1619375678.19144,-30.28641,41.58144021034241
1619375678.20706,-39.23267,41.597060203552246
1619375678.22269,-50.47571,41.61269021034241
1619375678.23831,-62.02838,41.628310203552246
1619375678.25394,-71.22305,41.64394021034241
1619375678.26957,-75.62366,41.65957021713257
1619375678.28519,-73.77289,41.67519021034241
1619375678.30082,-65.60196,41.69082021713257
1619375678.31644,-52.40662,41.70644021034241
1619375678.33207,-36.25171,41.72207021713257
1619375678.34769,-19.34253,41.73769021034241
1619375678.36332,-3.375931,41.75332021713257
1619375678.37895,10.70718,41.76895022392273
1619375678.39457,22.64938,41.78457021713257
1619375678.4102,32.59734,41.80020022392273
1619375678.42582,40.75992,41.81582021713257
1619375678.44145,47.22906,41.83145022392273
1619375678.45707,51.91457,41.84707021713257
1619375678.4727,54.59818,41.86270022392273
1619375678.48833,55.1223,41.87832999229431
1619375678.50395,53.53979,41.89395022392273
1619375678.51958,50.30994,41.90957999229431
1619375678.5352,46.33418,41.92520022392273
1619375678.55083,42.76663,41.94082999229431
1619375678.56645,40.63107,41.95645022392273
