timestamp,value,norm_ts
1617967150.67395,13.1759,0.6849498748779297
1617967150.68957,-21.42236,0.7005698680877686
1617967150.7052,-49.69604,0.7161998748779297
1617967150.72083,-73.52173,0.7318298816680908
1617967150.73645,-94.68457,0.7474498748779297
1617967150.75208,-114.3801,0.7630798816680908
1617967150.7677,-133.0359,0.7786998748779297
1617967150.78333,-150.4811,0.7943298816680908
1617967150.79895,-166.158,0.8099498748779297
1617967150.81458,-179.2781,0.8255798816680908
1617967150.83021,-188.8287,0.841209888458252
1617967150.84583,-193.6251,0.8568298816680908
1617967150.86146,-192.4507,0.872459888458252
1617967150.87708,-184.4839,0.8880798816680908
1617967150.89271,-169.8077,0.903709888458252
1617967150.90833,-149.6653,0.9193298816680908
1617967150.92396,-126.3578,0.934959888458252
1617967150.93959,-102.6307,0.9505898952484131
1617967150.95521,-81.02722,0.966209888458252
1617967150.97084,-63.31787,0.9818398952484131
1617967150.98646,-50.39795,0.997459888458252
1617967151.00209,-42.35437,1.013089895248413
1617967151.01771,-38.72864,1.028709888458252
1617967151.03334,-38.66431,1.044339895248413
1617967151.04897,-40.92883,1.0599699020385742
1617967151.06459,-44.06824,1.075589895248413
1617967151.08022,-46.67651,1.0912199020385742
1617967151.09584,-47.8175,1.106839895248413
1617967151.11147,-47.32996,1.1224699020385742
1617967151.12709,-45.83423,1.138089895248413
1617967151.14272,-44.39111,1.1537199020385742
1617967151.15835,-43.94238,1.1693499088287354
1617967151.17397,-44.88391,1.1849699020385742
1617967151.1896,-46.88782,1.2005999088287354
1617967151.20522,-49.18384,1.2162199020385742
1617967151.22085,-50.9729,1.2318499088287354
1617967151.23647,-51.88342,1.2474699020385742
1617967151.2521,-52.06519,1.2630999088287354
1617967151.26773,-52.0434,1.2787299156188965
1617967151.28335,-52.35687,1.2943499088287354
1617967151.29898,-53.30103,1.3099799156188965
1617967151.3146,-54.79266,1.3255999088287354
1617967151.33023,-56.51447,1.3412299156188965
1617967151.34585,-58.12311,1.3568499088287354
1617967151.36148,-59.41882,1.3724799156188965
1617967151.37711,-60.37964,1.3881099224090576
1617967151.39273,-61.13989,1.4037299156188965
1617967151.40836,-61.9328,1.4193599224090576
1617967151.42398,-63.1275,1.4349799156188965
1617967151.43961,-65.21985,1.4506099224090576
1617967151.45523,-68.63464,1.4662299156188965
1617967151.47086,-73.36798,1.4818599224090576
1617967151.48649,-78.5564,1.4974899291992188
1617967151.50211,-82.40491,1.5131099224090576
1617967151.51774,-82.60028,1.5287399291992188
1617967151.53336,-77.20709,1.5443599224090576
1617967151.54899,-65.62646,1.5599899291992188
1617967151.56461,-49.02893,1.5756099224090576
1617967151.58024,-30.0495,1.5912399291992188
1617967151.59587,-11.80609,1.6068699359893799
1617967151.61149,3.27533,1.6224899291992188
1617967151.62712,14.15271,1.6381199359893799
1617967151.64274,21.1059,1.6537399291992188
1617967151.65837,25.1189,1.6693699359893799
1617967151.67399,27.17255,1.6849899291992188
1617967151.68962,27.79755,1.7006199359893799
1617967151.70525,27.23236,1.716249942779541
1617967151.72087,25.74231,1.7318699359893799
1617967151.7365,23.86261,1.747499942779541
1617967151.75212,22.28192,1.7631199359893799
1617967151.76775,21.48743,1.778749942779541
1617967151.78337,21.45325,1.7943699359893799
1617967151.799,21.59747,1.809999942779541
1617967151.81463,21.14581,1.8256299495697021
1617967151.83025,19.54492,1.841249942779541
1617967151.84588,16.82043,1.8568799495697021
1617967151.8615,13.53156,1.872499942779541
1617967151.87713,10.48364,1.8881299495697021
1617967151.89275,8.238403,1.903749942779541
1617967151.90838,6.815002,1.9193799495697021
1617967151.92401,5.64386,1.9350099563598633
1617967151.93963,3.837646,1.9506299495697021
1617967151.95526,0.6210327,1.9662599563598633
1617967151.97088,-4.350891,1.9818799495697021
1617967151.98651,-10.78851,1.9975099563598633
1617967152.00213,-17.95007,2.013129949569702
1617967152.01776,-24.8916,2.0287599563598633
1617967152.03339,-30.85352,2.0443899631500244
1617967152.04901,-35.56946,2.0600099563598633
1617967152.06464,-39.27661,2.0756399631500244
1617967152.08026,-42.65973,2.0912599563598633
1617967152.09589,-46.59784,2.1068899631500244
1617967152.11151,-51.90436,2.1225099563598633
1617967152.12714,-58.98212,2.1381399631500244
1617967152.14277,-67.52448,2.1537699699401855
1617967152.15839,-76.33063,2.1693899631500244
1617967152.17402,-83.34949,2.1850199699401855
1617967152.18964,-86.2066,2.2006399631500244
1617967152.20527,-82.93286,2.2162699699401855
1617967152.2209,-72.77606,2.2318999767303467
1617967152.23652,-56.63153,2.2475199699401855
1617967152.25215,-36.88501,2.2631499767303467
1617967152.26777,-16.58173,2.2787699699401855
1617967152.2834,1.561279,2.2943999767303467
1617967152.29902,15.95343,2.3100199699401855
1617967152.31465,26.31787,2.3256499767303467
1617967152.33028,33.27515,2.341279983520508
1617967152.3459,37.69421,2.3568999767303467
1617967152.36153,40.15747,2.372529983520508
1617967152.37715,40.88757,2.3881499767303467
1617967152.39278,39.95654,2.403779983520508
1617967152.4084,37.70496,2.4193999767303467
1617967152.42403,34.789,2.435029983520508
1617967152.43966,32.01862,2.450659990310669
1617967152.45528,29.97687,2.466279983520508
1617967152.47091,28.72375,2.481909990310669
1617967152.48653,27.82275,2.497529983520508
1617967152.50216,26.58844,2.513159990310669
1617967152.51778,24.51575,2.528779983520508
1617967152.53341,21.56268,2.544409990310669
1617967152.54904,18.21393,2.56003999710083
1617967152.56466,15.19684,2.575659990310669
1617967152.58029,13.09821,2.59128999710083
1617967152.59591,12.04639,2.606909990310669
1617967152.61154,11.59967,2.62253999710083
1617967152.62716,10.9245,2.638159990310669
1617967152.64279,9.158997,2.65378999710083
1617967152.65842,5.791016,2.669420003890991
1617967152.67404,0.9033813,2.68503999710083
1617967152.68967,-4.841064,2.700670003890991
1617967152.70529,-10.49927,2.71628999710083
1617967152.72092,-15.21149,2.731920003890991
1617967152.73654,-18.53662,2.74753999710083
1617967152.75217,-20.64948,2.763170003890991
1617967152.7678,-22.18823,2.7788000106811523
1617967152.78342,-24.07867,2.794420003890991
1617967152.79905,-27.14325,2.8100500106811523
1617967152.81467,-31.927,2.825670003890991
1617967152.8303,-38.42889,2.8413000106811523
1617967152.84592,-45.9845,2.856920003890991
1617967152.86155,-53.20233,2.8725500106811523
1617967152.87718,-58.11194,2.8881800174713135
1617967152.8928,-58.63324,2.9038000106811523
1617967152.90843,-53.26825,2.9194300174713135
1617967152.92405,-41.76581,2.9350500106811523
1617967152.93968,-25.4071,2.9506800174713135
1617967152.9553,-6.727844,2.9663000106811523
1617967152.97093,11.31573,2.9819300174713135
1617967152.98656,26.30646,2.9975600242614746
1617967153.00218,37.05145,3.0131800174713135
1617967153.01781,43.67902,3.0288100242614746
1617967153.03343,47.16577,3.0444300174713135
1617967153.04906,48.65295,3.0600600242614746
1617967153.06468,48.92297,3.0756800174713135
1617967153.08031,48.31781,3.0913100242614746
1617967153.09594,46.94269,3.1069400310516357
1617967153.11156,44.96497,3.1225600242614746
1617967153.12719,42.7345,3.1381900310516357
1617967153.14281,40.6452,3.1538100242614746
1617967153.15844,38.91022,3.1694400310516357
1617967153.17406,37.39795,3.1850600242614746
1617967153.18969,35.69971,3.2006900310516357
1617967153.20532,33.33258,3.2163197994232178
1617967153.22094,30.02386,3.2319400310516357
1617967153.23657,25.87939,3.2475697994232178
1617967153.25219,21.29803,3.2631900310516357
1617967153.26782,16.83826,3.2788197994232178
1617967153.28344,12.95557,3.2944400310516357
1617967153.29907,9.856873,3.3100697994232178
1617967153.3147,7.477844,3.325699806213379
1617967153.33032,5.584717,3.3413197994232178
1617967153.34595,3.902893,3.356949806213379
1617967153.36157,2.228821,3.3725697994232178
1617967153.3772,0.4659424,3.388199806213379
1617967153.39282,-1.434021,3.4038197994232178
1617967153.40845,-3.47287,3.419449806213379
1617967153.42408,-5.693146,3.43507981300354
1617967153.4397,-8.195831,3.450699806213379
1617967153.45533,-11.06967,3.46632981300354
1617967153.47095,-14.31277,3.481949806213379
1617967153.48658,-17.80899,3.49757981300354
1617967153.5022,-21.27124,3.513199806213379
1617967153.51783,-24.37714,3.52882981300354
1617967153.53346,-26.89709,3.544459819793701
1617967153.54908,-28.80365,3.56007981300354
1617967153.56471,-30.36035,3.575709819793701
1617967153.58033,-32.05493,3.59132981300354
1617967153.59596,-34.46893,3.606959819793701
1617967153.61158,-38.05481,3.62257981300354
1617967153.62721,-42.87918,3.638209819793701
1617967153.64284,-48.42722,3.6538398265838623
1617967153.65846,-53.56659,3.669459819793701
1617967153.67409,-56.77548,3.6850898265838623
1617967153.68971,-56.55502,3.700709819793701
1617967153.70534,-52.00687,3.7163398265838623
1617967153.72096,-43.21042,3.731959819793701
1617967153.73659,-31.28635,3.7475898265838623
1617967153.75222,-18.06067,3.7632198333740234
1617967153.76784,-5.440887,3.7788398265838623
1617967153.78347,5.18338,3.7944698333740234
1617967153.79909,13.25754,3.8100898265838623
1617967153.81472,18.95544,3.8257198333740234
1617967153.83034,22.84436,3.8413398265838623
1617967153.84597,25.4292,3.8569698333740234
1617967153.8616,26.98486,3.8725998401641846
1617967153.87722,27.59561,3.8882198333740234
1617967153.89285,27.36511,3.9038498401641846
1617967153.90847,26.5672,3.9194698333740234
1617967153.9241,25.63248,3.9350998401641846
1617967153.93972,24.96939,3.9507198333740234
1617967153.95535,24.74637,3.9663498401641846
1617967153.97098,24.84195,3.9819798469543457
1617967153.9866,24.86014,3.9975998401641846
1617967154.00223,24.40793,4.013229846954346
1617967154.01785,23.28922,4.028849840164185
1617967154.03348,21.62286,4.044479846954346
1617967154.0491,19.7731,4.060099840164185
1617967154.06473,18.2084,4.075729846954346
1617967154.08036,17.25168,4.091359853744507
1617967154.09598,16.91708,4.106979846954346
1617967154.11161,16.95712,4.122609853744507
1617967154.12723,16.93097,4.138229846954346
1617967154.14286,16.42145,4.153859853744507
1617967154.15848,15.21423,4.169479846954346
1617967154.17411,13.38547,4.185109853744507
1617967154.18974,11.26181,4.200739860534668
1617967154.20536,9.239166,4.216359853744507
1617967154.22099,7.623718,4.231989860534668
1617967154.23661,6.448914,4.247609853744507
1617967154.25224,5.502045,4.263239860534668
1617967154.26786,4.418884,4.278859853744507
1617967154.28349,2.87558,4.294489860534668
1617967154.29912,0.7260132,4.310119867324829
1617967154.31474,-1.919495,4.325739860534668
1617967154.33037,-4.764984,4.341369867324829
1617967154.34599,-7.475189,4.356989860534668
1617967154.36162,-9.821259,4.372619867324829
1617967154.37724,-11.73889,4.388239860534668
1617967154.39287,-13.34521,4.403869867324829
1617967154.4085,-14.90762,4.41949987411499
1617967154.42412,-16.79028,4.435119867324829
1617967154.43975,-19.4415,4.45074987411499
1617967154.45537,-23.32495,4.466369867324829
1617967154.471,-28.64713,4.48199987411499
1617967154.48662,-35.00159,4.497619867324829
1617967154.50225,-41.04715,4.51324987411499
1617967154.51788,-44.59451,4.528879880905151
1617967154.5335,-43.09319,4.54449987411499
1617967154.54913,-34.63019,4.560129880905151
1617967154.56475,-18.78995,4.57574987411499
1617967154.58038,2.931046,4.591379880905151
1617967154.596,27.41991,4.60699987411499
1617967154.61163,50.98782,4.622629880905151
1617967154.62726,70.47762,4.6382598876953125
1617967154.64288,84.04431,4.653879880905151
1617967154.65851,91.27271,4.6695098876953125
1617967154.67413,92.8271,4.685129880905151
1617967154.68976,89.802,4.7007598876953125
1617967154.70538,83.34344,4.716379880905151
1617967154.72101,74.50278,4.7320098876953125
1617967154.73664,64.29861,4.747639894485474
1617967154.75226,53.80646,4.7632598876953125
1617967154.76789,44.06102,4.778889894485474
1617967154.78351,35.85342,4.7945098876953125
1617967154.79914,29.54349,4.810139894485474
1617967154.81477,24.99397,4.825769901275635
1617967154.83039,21.67,4.841389894485474
1617967154.84602,18.85172,4.857019901275635
1617967154.86164,15.93648,4.872639894485474
1617967154.87727,12.55301,4.888269901275635
1617967154.89289,8.70475,4.903889894485474
1617967154.90852,4.638771,4.919519901275635
1617967154.92415,0.7001572,4.935149908065796
1617967154.93977,-2.806648,4.950769901275635
1617967154.9554,-5.783882,4.966399908065796
1617967154.97102,-8.331497,4.982019901275635
1617967154.98665,-10.66367,4.997649908065796
1617967155.00227,-12.95809,5.013269901275635
1617967155.0179,-15.26704,5.028899908065796
1617967155.03353,-17.46732,5.044529914855957
1617967155.04915,-19.37032,5.060149908065796
1617967155.06478,-20.81565,5.075779914855957
1617967155.0804,-21.77864,5.091399908065796
1617967155.09603,-22.43144,5.107029914855957
1617967155.11165,-23.01266,5.122649908065796
1617967155.12728,-23.71258,5.138279914855957
1617967155.14291,-24.5123,5.153909921646118
1617967155.15853,-25.1939,5.169529914855957
1617967155.17416,-25.38724,5.185159921646118
1617967155.18978,-24.76601,5.200779914855957
1617967155.20541,-23.1861,5.216409921646118
1617967155.22103,-20.68464,5.232029914855957
1617967155.23666,-17.48469,5.247659921646118
1617967155.25229,-13.82777,5.263289928436279
1617967155.26791,-9.904297,5.278909921646118
1617967155.28354,-5.823929,5.294539928436279
1617967155.29916,-1.672386,5.310159921646118
1617967155.31479,2.4226,5.325789928436279
1617967155.33041,6.252571,5.341409921646118
1617967155.34604,9.534409,5.357039928436279
1617967155.36167,12.02879,5.37266993522644
1617967155.37729,13.58365,5.388289928436279
1617967155.39292,14.24608,5.40391993522644
1617967155.40854,14.21808,5.419539928436279
1617967155.42417,13.80761,5.43516993522644
1617967155.43979,13.30414,5.450789928436279
1617967155.45542,12.93053,5.46641993522644
1617967155.47105,12.8038,5.482049942016602
1617967155.48667,12.96501,5.49766993522644
1617967155.5023,13.41808,5.513299942016602
1617967155.51792,14.08479,5.52891993522644
1617967155.53355,14.81569,5.544549942016602
1617967155.54917,15.26903,5.56016993522644
1617967155.5648,14.98643,5.575799942016602
1617967155.58043,13.5282,5.591429948806763
1617967155.59605,10.68973,5.607049942016602
1617967155.61168,6.643616,5.622679948806763
1617967155.6273,1.932968,5.638299942016602
1617967155.64293,-2.768051,5.653929948806763
1617967155.65855,-6.959564,5.669549942016602
1617967155.67418,-10.51639,5.685179948806763
1617967155.68981,-13.65773,5.700809955596924
1617967155.70543,-16.74142,5.716429948806763
1617967155.72106,-19.94235,5.732059955596924
1617967155.73668,-23.14641,5.747679948806763
1617967155.75231,-26.00089,5.763309955596924
1617967155.76793,-28.18814,5.778929948806763
1617967155.78356,-29.6008,5.794559955596924
1617967155.79919,-30.3793,5.810189962387085
1617967155.81481,-30.79794,5.825809955596924
1617967155.83044,-31.06104,5.841439962387085
1617967155.84606,-31.23999,5.857059955596924
1617967155.86169,-31.26776,5.872689962387085
1617967155.87731,-31.06354,5.888309955596924
1617967155.89294,-30.63116,5.903939962387085
1617967155.90857,-30.08301,5.919569969177246
1617967155.92419,-29.61752,5.935189962387085
1617967155.93982,-29.43436,5.950819969177246
1617967155.95544,-29.66534,5.966439962387085
1617967155.97107,-30.36325,5.982069969177246
1617967155.98669,-31.43787,5.997689962387085
1617967156.00232,-32.63367,6.013319969177246
1617967156.01795,-33.57892,6.028949975967407
1617967156.03357,-33.88095,6.044569969177246
1617967156.0492,-33.30664,6.060199975967407
1617967156.06482,-31.88815,6.075819969177246
1617967156.08045,-29.96075,6.091449975967407
1617967156.09607,-28.09915,6.107069969177246
1617967156.1117,-26.8165,6.122699975967407
1617967156.12733,-26.43033,6.138329982757568
1617967156.14295,-26.93307,6.153949975967407
1617967156.15858,-28.06808,6.169579982757568
1617967156.1742,-29.48831,6.185199975967407
1617967156.18983,-30.90457,6.200829982757568
1617967156.20545,-32.18298,6.216449975967407
1617967156.22108,-33.32397,6.232079982757568
1617967156.23671,-34.43442,6.2477099895477295
1617967156.25233,-35.62152,6.263329982757568
1617967156.26796,-37.01184,6.2789599895477295
1617967156.28358,-38.7789,6.294579982757568
1617967156.29921,-41.0824,6.3102099895477295
1617967156.31483,-43.89566,6.325829982757568
1617967156.33046,-46.7569,6.3414599895477295
1617967156.34609,-48.6507,6.357089996337891
1617967156.36171,-48.24014,6.3727099895477295
1617967156.37734,-44.36649,6.388339996337891
1617967156.39296,-36.67056,6.4039599895477295
1617967156.40859,-25.90741,6.419589996337891
1617967156.42421,-13.76801,6.4352099895477295
1617967156.43984,-2.251282,6.450839996337891
1617967156.45547,7.072876,6.466470003128052
1617967156.47109,13.5553,6.482089996337891
1617967156.48672,17.43558,6.497720003128052
1617967156.50234,19.41522,6.513339996337891
1617967156.51797,20.15659,6.528970003128052
1617967156.53359,19.96234,6.544589996337891
1617967156.54922,18.86823,6.560220003128052
1617967156.56485,16.90506,6.575850009918213
1617967156.58047,14.30905,6.591470003128052
1617967156.5961,11.54379,6.607100009918213
1617967156.61172,9.096313,6.622720003128052
1617967156.62735,7.221069,6.638350009918213
1617967156.64297,5.884003,6.653970003128052
1617967156.6586,4.867065,6.669600009918213
1617967156.67423,3.922668,6.685230016708374
1617967156.68985,2.948212,6.700850009918213
1617967156.70548,2.011749,6.716480016708374
1617967156.7211,1.24234,6.732100009918213
1617967156.73673,0.7207947,6.747730016708374
1617967156.75235,0.388916,6.763350009918213
1617967156.76798,0.04379272,6.778980016708374
1617967156.78361,-0.5403137,6.794610023498535
1617967156.79923,-1.447968,6.810230016708374
1617967156.81486,-2.613007,6.825860023498535
1617967156.83048,-3.832855,6.841480016708374
1617967156.84611,-4.886688,6.857110023498535
1617967156.86173,-5.67981,6.872730016708374
1617967156.87736,-6.251862,6.888360023498535
1617967156.89299,-6.750885,6.903990030288696
1617967156.90861,-7.345856,6.919610023498535
1617967156.92424,-8.115509,6.935240030288696
1617967156.93986,-9.047852,6.950860023498535
1617967156.95549,-10.10175,6.966490030288696
1617967156.97111,-11.23486,6.982110023498535
1617967156.98674,-12.45154,6.997740030288696
1617967157.00237,-13.74976,7.013370037078857
1617967157.01799,-15.10504,7.028990030288696
1617967157.03362,-16.45062,7.044620037078857
1617967157.04924,-17.77026,7.060240030288696
1617967157.06487,-19.14661,7.075870037078857
1617967157.0805,-20.8248,7.0914998054504395
1617967157.09612,-23.08701,7.107120037078857
1617967157.11175,-26.09274,7.1227498054504395
1617967157.12737,-29.67337,7.138370037078857
1617967157.143,-33.27478,7.1539998054504395
1617967157.15862,-36.07858,7.169620037078857
1617967157.17425,-37.31088,7.1852498054504395
1617967157.18988,-36.57645,7.200879812240601
1617967157.2055,-34.0322,7.2164998054504395
1617967157.22113,-30.32895,7.232129812240601
1617967157.23675,-26.30875,7.2477498054504395
1617967157.25238,-22.68359,7.263379812240601
1617967157.268,-19.74335,7.2789998054504395
1617967157.28363,-17.41537,7.294629812240601
1617967157.29926,-15.41138,7.310259819030762
1617967157.31488,-13.45889,7.325879812240601
1617967157.33051,-11.47336,7.341509819030762
1617967157.34613,-9.515869,7.357129812240601
1617967157.36176,-7.681671,7.372759819030762
1617967157.37738,-5.973419,7.388379812240601
1617967157.39301,-4.301727,7.404009819030762
1617967157.40864,-2.596954,7.419639825820923
1617967157.42426,-0.8904724,7.435259819030762
1617967157.43989,0.592804,7.450889825820923
1617967157.45551,1.56842,7.466509819030762
1617967157.47114,1.802002,7.482139825820923
1617967157.48676,1.25943,7.497759819030762
1617967157.50239,0.07833862,7.513389825820923
1617967157.51802,-1.508026,7.529019832611084
1617967157.53364,-3.286804,7.544639825820923
1617967157.54927,-5.194519,7.560269832611084
1617967157.56489,-7.287109,7.575889825820923
1617967157.58052,-9.715302,7.591519832611084
1617967157.59614,-12.66934,7.607139825820923
1617967157.61177,-16.23669,7.622769832611084
1617967157.6274,-20.40125,7.638399839401245
1617967157.64302,-24.98508,7.654019832611084
1617967157.65865,-29.66342,7.669649839401245
1617967157.67427,-34.01904,7.685269832611084
1617967157.6899,-37.63666,7.700899839401245
1617967157.70552,-40.19025,7.716519832611084
1617967157.72115,-41.50824,7.732149839401245
1617967157.73678,-41.5914,7.747779846191406
1617967157.7524,-40.61652,7.763399839401245
1617967157.76803,-38.85275,7.779029846191406
1617967157.78365,-36.6142,7.794649839401245
1617967157.79928,-34.189,7.810279846191406
1617967157.8149,-31.73267,7.825899839401245
1617967157.83053,-29.20728,7.841529846191406
1617967157.84616,-26.33682,7.857159852981567
1617967157.86178,-22.68085,7.872779846191406
1617967157.87741,-17.82245,7.888409852981567
1617967157.89303,-11.56305,7.904029846191406
1617967157.90866,-4.063873,7.919659852981567
1617967157.92428,4.234711,7.935279846191406
1617967157.93991,12.81027,7.950909852981567
1617967157.95554,21.32404,7.9665398597717285
1617967157.97116,29.69409,7.982159852981567
1617967157.98679,38.065,7.9977898597717285
1617967158.00241,46.53278,8.013409852981567
1617967158.01804,54.97607,8.029039859771729
1617967158.03366,62.98376,8.044659852981567
1617967158.04929,69.96881,8.060289859771729
1617967158.06492,75.41006,8.07591986656189
1617967158.08054,79.07455,8.091539859771729
1617967158.09617,81.02658,8.10716986656189
1617967158.11179,81.55991,8.122789859771729
1617967158.12742,81.00546,8.13841986656189
1617967158.14304,79.60406,8.154039859771729
1617967158.15867,77.49396,8.16966986656189
1617967158.1743,74.82159,8.18529987335205
1617967158.18992,71.80338,8.20091986656189
1617967158.20555,68.7753,8.21654987335205
1617967158.22117,66.1001,8.23216986656189
1617967158.2368,64.03885,8.24779987335205
1617967158.25242,62.58365,8.26341986656189
1617967158.26805,61.48276,8.27904987335205
1617967158.28368,60.2851,8.294679880142212
1617967158.2993,58.53928,8.31029987335205
1617967158.31493,55.91907,8.325929880142212
1617967158.33055,52.26065,8.34154987335205
1617967158.34618,47.55884,8.357179880142212
1617967158.3618,41.89218,8.37279987335205
1617967158.37743,35.34796,8.388429880142212
1617967158.39306,28.00894,8.404059886932373
1617967158.40868,20.01328,8.419679880142212
1617967158.42431,11.52597,8.435309886932373
1617967158.43993,2.748566,8.450929880142212
1617967158.45556,-6.080872,8.466559886932373
1617967158.47118,-14.77658,8.482179880142212
1617967158.48681,-23.16571,8.497809886932373
1617967158.50244,-31.06851,8.513439893722534
1617967158.51806,-38.27878,8.529059886932373
1617967158.53369,-44.48279,8.544689893722534
1617967158.54931,-49.26346,8.560309886932373
1617967158.56494,-52.18402,8.575939893722534
1617967158.58056,-52.91364,8.591559886932373
1617967158.59619,-51.34442,8.607189893722534
1617967158.61182,-47.70911,8.622819900512695
1617967158.62744,-42.53815,8.638439893722534
1617967158.64307,-36.51434,8.654069900512695
1617967158.65869,-30.29132,8.669689893722534
1617967158.67432,-24.32034,8.685319900512695
1617967158.68994,-18.78201,8.700939893722534
1617967158.70557,-13.66302,8.716569900512695
1617967158.7212,-8.849854,8.732199907302856
1617967158.73682,-4.197968,8.747819900512695
1617967158.75245,0.4121094,8.763449907302856
1617967158.76807,5.108765,8.779069900512695
1617967158.7837,10.0166,8.794699907302856
1617967158.79932,15.25305,8.810319900512695
1617967158.81495,20.8638,8.825949907302856
1617967158.83058,26.81937,8.841579914093018
1617967158.8462,33.04816,8.857199907302856
1617967158.86183,39.50998,8.872829914093018
1617967158.87745,46.2507,8.888449907302856
1617967158.89308,53.33075,8.904079914093018
1617967158.9087,60.76862,8.919699907302856
1617967158.92433,68.38226,8.935329914093018
1617967158.93996,75.84979,8.950959920883179
1617967158.95558,82.82556,8.966579914093018
1617967158.97121,89.13519,8.982209920883179
1617967158.98683,94.86792,8.997829914093018
1617967159.00246,100.3766,9.013459920883179
1617967159.01808,106.0682,9.029079914093018
1617967159.03371,112.1375,9.044709920883179
1617967159.04934,118.3776,9.06033992767334
1617967159.06496,124.1685,9.075959920883179
1617967159.08059,128.5754,9.09158992767334
1617967159.09621,130.6558,9.107209920883179
1617967159.11184,129.676,9.12283992767334
1617967159.12746,125.2852,9.138459920883179
1617967159.14309,117.4951,9.15408992767334
1617967159.15872,106.5989,9.169719934463501
1617967159.17434,93.04156,9.18533992767334
1617967159.18997,77.30615,9.200969934463501
1617967159.20559,59.94604,9.21658992767334
1617967159.22122,41.54419,9.232219934463501
1617967159.23685,22.7677,9.247849941253662
1617967159.25247,4.348572,9.263469934463501
1617967159.2681,-13.02039,9.279099941253662
1617967159.28372,-28.83508,9.294719934463501
1617967159.29935,-42.91296,9.310349941253662
1617967159.31497,-55.42877,9.325969934463501
1617967159.3306,-66.88422,9.341599941253662
1617967159.34623,-77.8266,9.357229948043823
1617967159.36185,-88.63171,9.372849941253662
1617967159.37748,-99.34894,9.388479948043823
1617967159.3931,-109.6968,9.404099941253662
1617967159.40873,-119.2064,9.419729948043823
1617967159.42435,-127.4838,9.435349941253662
1617967159.43998,-134.4019,9.450979948043823
1617967159.45561,-140.1337,9.466609954833984
1617967159.47123,-145.1059,9.482229948043823
1617967159.48686,-149.83,9.497859954833984
1617967159.50248,-154.7375,9.513479948043823
1617967159.51811,-160.0914,9.529109954833984
1617967159.53373,-165.8148,9.544729948043823
1617967159.54936,-171.3136,9.560359954833984
1617967159.56499,-175.274,9.575989961624146
1617967159.58061,-175.677,9.591609954833984
1617967159.59624,-170.1367,9.607239961624146
1617967159.61186,-156.5755,9.622859954833984
1617967159.62749,-134.0007,9.638489961624146
1617967159.64311,-103.0748,9.654109954833984
1617967159.65874,-66.18488,9.669739961624146
1617967159.67437,-26.93567,9.685369968414307
1617967159.68999,10.71484,9.700989961624146
1617967159.70562,43.34918,9.716619968414307
1617967159.72124,68.6438,9.732239961624146
1617967159.73687,85.54999,9.747869968414307
1617967159.75249,94.04858,9.763489961624146
1617967159.76812,94.79193,9.779119968414307
1617967159.78375,88.85651,9.794749975204468
1617967159.79937,77.5625,9.810369968414307
1617967159.815,62.48639,9.825999975204468
1617967159.83062,45.39941,9.841619968414307
1617967159.84625,28.11517,9.857249975204468
1617967159.86187,12.28546,9.872869968414307
1617967159.8775,-0.8853149,9.888499975204468
1617967159.89313,-10.84711,9.904129981994629
1617967159.90875,-17.66443,9.919749975204468
1617967159.92438,-21.8692,9.935379981994629
1617967159.94,-24.19,9.950999975204468
1617967159.95563,-25.276,9.966629981994629
1617967159.97125,-25.5636,9.982249975204468
1617967159.98688,-25.28046,9.997879981994629
1617967160.00251,-24.48993,10.01350998878479
1617967160.01813,-23.20593,10.029129981994629
1617967160.03376,-21.48627,10.04475998878479
1617967160.04938,-19.50732,10.060379981994629
1617967160.06501,-17.56458,10.07600998878479
1617967160.08063,-16.02094,10.091629981994629
1617967160.09626,-15.1806,10.10725998878479
1617967160.11189,-15.18951,10.122889995574951
1617967160.12751,-15.93665,10.13850998878479
1617967160.14314,-17.12054,10.154139995574951
1617967160.15876,-18.38214,10.16975998878479
1617967160.17439,-19.47589,10.185389995574951
1617967160.19001,-20.31842,10.20100998878479
1617967160.20564,-20.97345,10.216639995574951
1617967160.22127,-21.56995,10.232270002365112
1617967160.23689,-22.19568,10.247889995574951
1617967160.25252,-22.87054,10.263520002365112
1617967160.26814,-23.6239,10.279139995574951
1617967160.28377,-24.51373,10.294770002365112
1617967160.29939,-25.67487,10.310389995574951
1617967160.31502,-27.22919,10.326020002365112
1617967160.33065,-29.17297,10.341650009155273
1617967160.34627,-31.26721,10.357270002365112
1617967160.3619,-33.02899,10.372900009155273
1617967160.37752,-33.83124,10.388520002365112
1617967160.39315,-33.11359,10.404150009155273
1617967160.40877,-30.60547,10.419770002365112
1617967160.4244,-26.48535,10.435400009155273
1617967160.44003,-21.33868,10.451030015945435
1617967160.45565,-15.97241,10.466650009155273
1617967160.47128,-11.13574,10.482280015945435
1617967160.4869,-7.31781,10.497900009155273
1617967160.50253,-4.67218,10.513530015945435
1617967160.51815,-3.055542,10.529150009155273
1617967160.53378,-2.215759,10.544780015945435
1617967160.54941,-1.91571,10.560410022735596
1617967160.56503,-1.995422,10.576030015945435
1617967160.58066,-2.354492,10.591660022735596
1617967160.59628,-2.889038,10.607280015945435
1617967160.61191,-3.483398,10.622910022735596
1617967160.62753,-4.05835,10.638530015945435
1617967160.64316,-4.606812,10.654160022735596
1617967160.65879,-5.178833,10.669790029525757
1617967160.67441,-5.842102,10.685410022735596
1617967160.69004,-6.591187,10.701040029525757
1617967160.70566,-7.339844,10.716660022735596
1617967160.72129,-7.944153,10.732290029525757
1617967160.73691,-8.307129,10.747910022735596
1617967160.75254,-8.392151,10.763540029525757
1617967160.76817,-8.284058,10.779170036315918
1617967160.78379,-8.108582,10.794790029525757
1617967160.79942,-7.994019,10.810420036315918
1617967160.81504,-7.994141,10.826040029525757
1617967160.83067,-8.108032,10.841670036315918
1617967160.84629,-8.244934,10.857290029525757
1617967160.86192,-8.355042,10.872920036315918
1617967160.87755,-8.462708,10.8885498046875
1617967160.89317,-8.694092,10.904170036315918
1617967160.9088,-9.208984,10.9197998046875
1617967160.92442,-10.14172,10.935420036315918
1617967160.94005,-11.55829,10.9510498046875
1617967160.95567,-13.4292,10.966670036315918
1617967160.9713,-15.67426,10.9822998046875
1617967160.98693,-18.20703,10.997929811477661
1617967161.00255,-20.97681,11.0135498046875
1617967161.01818,-23.94952,11.029179811477661
1617967161.0338,-27.07098,11.0447998046875
1617967161.04943,-30.21106,11.060429811477661
1617967161.06505,-33.20886,11.0760498046875
1617967161.08068,-35.95654,11.091679811477661
1617967161.09631,-38.47266,11.107309818267822
1617967161.11193,-40.89972,11.122929811477661
1617967161.12756,-43.36517,11.138559818267822
1617967161.14318,-45.849,11.154179811477661
1617967161.15881,-48.06763,11.169809818267822
1617967161.17443,-49.50513,11.185429811477661
1617967161.19006,-49.59729,11.201059818267822
1617967161.20569,-47.89893,11.216689825057983
1617967161.22131,-44.2478,11.232309818267822
1617967161.23694,-38.78918,11.247939825057983
1617967161.25256,-31.9209,11.263559818267822
1617967161.26819,-24.13525,11.279189825057983
1617967161.28381,-15.96814,11.294809818267822
1617967161.29944,-7.86438,11.310439825057983
1617967161.31507,-0.2096558,11.326069831848145
1617967161.33069,6.698792,11.341689825057983
1617967161.34632,12.6283,11.357319831848145
1617967161.36194,17.46082,11.372939825057983
1617967161.37757,21.17639,11.388569831848145
1617967161.39319,23.86499,11.404189825057983
1617967161.40882,25.73511,11.419819831848145
1617967161.42445,27.04224,11.435449838638306
1617967161.44007,28.07532,11.451069831848145
1617967161.4557,29.03937,11.466699838638306
1617967161.47132,30.00696,11.482319831848145
1617967161.48695,30.91663,11.497949838638306
1617967161.50257,31.61542,11.513569831848145
1617967161.5182,31.99121,11.529199838638306
1617967161.53383,32.00604,11.544829845428467
1617967161.54945,31.72449,11.560449838638306
1617967161.56508,31.24969,11.576079845428467
1617967161.5807,30.64746,11.591699838638306
1617967161.59633,29.89954,11.607329845428467
1617967161.61195,28.91913,11.622949838638306
1617967161.62758,27.62402,11.638579845428467
1617967161.64321,25.98456,11.654209852218628
1617967161.65883,24.07013,11.669829845428467
1617967161.67446,21.99139,11.685459852218628
1617967161.69008,19.81494,11.701079845428467
1617967161.70571,17.51227,11.716709852218628
1617967161.72133,14.90887,11.732329845428467
1617967161.73696,11.80316,11.747959852218628
1617967161.75259,8.035553,11.763589859008789
1617967161.76821,3.633148,11.779209852218628
1617967161.78384,-1.210754,11.794839859008789
1617967161.79946,-6.162323,11.810459852218628
1617967161.81509,-10.87866,11.826089859008789
1617967161.83071,-15.15079,11.841709852218628
1617967161.84634,-18.95755,11.857339859008789
1617967161.86197,-22.48581,11.87296986579895
1617967161.87759,-26.00333,11.888589859008789
1617967161.89322,-29.7695,11.90421986579895
1617967161.90884,-33.88638,11.919839859008789
1617967161.92447,-38.2692,11.93546986579895
1617967161.9401,-42.58435,11.951099872589111
1617967161.95572,-46.24973,11.96671986579895
1617967161.97135,-48.44156,11.982349872589111
1617967161.98697,-48.22974,11.99796986579895
1617967162.0026,-44.85504,12.013599872589111
1617967162.01822,-38.0094,12.02921986579895
1617967162.03385,-28.10236,12.044849872589111
1617967162.04948,-16.18893,12.060479879379272
1617967162.0651,-3.695099,12.076099872589111
1617967162.08073,8.032837,12.091729879379272
1617967162.09635,18.07321,12.107349872589111
1617967162.11198,26.11243,12.122979879379272
1617967162.1276,32.3172,12.138599872589111
1617967162.14323,37.02429,12.154229879379272
1617967162.15886,40.53235,12.169859886169434
1617967162.17448,42.98859,12.185479879379272
1617967162.19011,44.48032,12.201109886169434
1617967162.20573,45.14099,12.216729879379272
1617967162.22136,45.22791,12.232359886169434
1617967162.23698,45.04526,12.247979879379272
1617967162.25261,44.84174,12.263609886169434
1617967162.26824,44.72806,12.279239892959595
1617967162.28386,44.64542,12.294859886169434
1617967162.29949,44.43881,12.310489892959595
1617967162.31511,43.95908,12.326109886169434
1617967162.33074,43.10556,12.341739892959595
1617967162.34636,41.8848,12.357359886169434
1617967162.36199,40.37686,12.372989892959595
1617967162.37762,38.66028,12.388619899749756
1617967162.39324,36.83636,12.404239892959595
1617967162.40887,34.96771,12.419869899749756
1617967162.42449,33.10156,12.435489892959595
1617967162.44012,31.26093,12.451119899749756
1617967162.45574,29.44067,12.466739892959595
1617967162.47137,27.56323,12.482369899749756
1617967162.487,25.49738,12.497999906539917
1617967162.50262,23.07318,12.513619899749756
1617967162.51825,20.14584,12.529249906539917
1617967162.53387,16.67825,12.544869899749756
1617967162.5495,12.77301,12.560499906539917
1617967162.56512,8.611267,12.576119899749756
1617967162.58075,4.394623,12.591749906539917
1617967162.59638,0.2380981,12.607379913330078
1617967162.612,-3.863586,12.622999906539917
1617967162.62763,-7.969879,12.638629913330078
1617967162.64325,-12.18297,12.654249906539917
1617967162.65888,-16.61717,12.669879913330078
1617967162.6745,-21.36119,12.685499906539917
1617967162.69013,-26.52779,12.701129913330078
1617967162.70576,-32.1449,12.71675992012024
1617967162.72138,-38.07547,12.732379913330078
1617967162.73701,-43.79974,12.74800992012024
1617967162.75263,-48.44795,12.763629913330078
1617967162.76826,-50.90123,12.77925992012024
1617967162.78388,-50.12469,12.794879913330078
1617967162.79951,-45.57921,12.81050992012024
1617967162.81514,-37.47343,12.8261399269104
1617967162.83076,-26.76465,12.84175992012024
1617967162.84639,-14.85028,12.8573899269104
1617967162.86201,-3.13356,12.87300992012024
1617967162.87764,7.378662,12.8886399269104
1617967162.89326,16.23494,12.90425992012024
1617967162.90889,23.45868,12.9198899269104
1617967162.92452,29.29982,12.935519933700562
1617967162.94014,33.97948,12.9511399269104
1617967162.95577,37.58336,12.966769933700562
1617967162.97139,40.07413,12.9823899269104
1617967162.98702,41.46274,12.998019933700562
1617967163.00264,41.89764,13.0136399269104
1617967163.01827,41.74261,13.029269933700562
1617967163.0339,41.45088,13.044899940490723
1617967163.04952,41.43785,13.060519933700562
1617967163.06515,41.90047,13.076149940490723
1617967163.08077,42.75615,13.091769933700562
1617967163.0964,43.69872,13.107399940490723
1617967163.11202,44.33813,13.123019933700562
1617967163.12765,44.43851,13.138649940490723
1617967163.14328,44.00833,13.154279947280884
1617967163.1589,43.33284,13.169899940490723
1617967163.17453,42.76842,13.185529947280884
1617967163.19015,42.54729,13.201149940490723
1617967163.20578,42.61357,13.216779947280884
1617967163.2214,42.63504,13.232399940490723
1617967163.23703,42.16684,13.248029947280884
1617967163.25266,40.8768,13.263659954071045
1617967163.26828,38.67429,13.279279947280884
1617967163.28391,35.73647,13.294909954071045
1617967163.29953,32.38689,13.310529947280884
1617967163.31516,28.92606,13.326159954071045
1617967163.33078,25.53479,13.341779947280884
1617967163.34641,22.21538,13.357409954071045
1617967163.36204,18.80989,13.373039960861206
1617967163.37766,15.09702,13.388659954071045
1617967163.39329,10.90947,13.404289960861206
1617967163.40891,6.206436,13.419909954071045
1617967163.42454,1.151703,13.435539960861206
1617967163.44016,-3.93924,13.451159954071045
1617967163.45579,-8.682114,13.466789960861206
1617967163.47142,-12.79236,13.482419967651367
1617967163.48704,-16.18857,13.498039960861206
1617967163.50267,-19.034,13.513669967651367
1617967163.51829,-21.69371,13.529289960861206
1617967163.53392,-24.60292,13.544919967651367
1617967163.54954,-28.19614,13.560539960861206
1617967163.56517,-32.71017,13.576169967651367
1617967163.5808,-38.09587,13.591799974441528
1617967163.59642,-43.89616,13.607419967651367
1617967163.61205,-49.22112,13.623049974441528
1617967163.62767,-52.90808,13.638669967651367
1617967163.6433,-53.81354,13.654299974441528
1617967163.65892,-51.1846,13.669919967651367
1617967163.67455,-44.97443,13.685549974441528
1617967163.69018,-35.89265,13.70117998123169
1617967163.7058,-25.14854,13.716799974441528
1617967163.72143,-14.0246,13.73242998123169
1617967163.73705,-3.505219,13.748049974441528
1617967163.75268,5.92041,13.76367998123169
1617967163.7683,14.16393,13.779299974441528
1617967163.78393,21.28542,13.79492998123169
1617967163.79956,27.28717,13.81055998802185
1617967163.81518,32.04323,13.82617998123169
1617967163.83081,35.39844,13.84180998802185
1617967163.84643,37.35152,13.85742998123169
1617967163.86206,38.12802,13.87305998802185
1617967163.87768,38.13405,13.88867998123169
1617967163.89331,37.82045,13.90430998802185
1617967163.90894,37.44679,13.919939994812012
1617967163.92456,37.06627,13.93555998802185
1617967163.94019,36.51971,13.951189994812012
1617967163.95581,35.6068,13.96680998802185
1617967163.97144,34.24725,13.982439994812012
1617967163.98706,32.55377,13.99805998802185
1617967164.00269,30.83073,14.013689994812012
1617967164.01832,29.42905,14.029320001602173
1617967164.03394,28.63777,14.044939994812012
1617967164.04957,28.48152,14.060570001602173
1617967164.06519,28.77429,14.076189994812012
1617967164.08082,29.15346,14.091820001602173
1617967164.09645,29.22633,14.107450008392334
1617967164.11207,28.73618,14.123070001602173
1617967164.1277,27.60141,14.138700008392334
1617967164.14332,25.89772,14.154320001602173
1617967164.15895,23.78873,14.169950008392334
1617967164.17457,21.41856,14.185570001602173
1617967164.1902,18.85419,14.201200008392334
1617967164.20583,16.09602,14.216830015182495
1617967164.22145,13.10228,14.232450008392334
1617967164.23708,9.866302,14.248080015182495
1617967164.2527,6.470642,14.263700008392334
1617967164.26833,3.092087,14.279330015182495
1617967164.28395,-0.03269958,14.294950008392334
1617967164.29958,-2.703445,14.310580015182495
1617967164.31521,-4.816299,14.326210021972656
1617967164.33083,-6.45816,14.341830015182495
1617967164.34646,-7.849411,14.357460021972656
1617967164.36208,-9.310089,14.373080015182495
1617967164.37771,-11.09283,14.388710021972656
1617967164.39333,-13.313,14.404330015182495
1617967164.40896,-15.93803,14.419960021972656
1617967164.42459,-18.80676,14.435590028762817
1617967164.44021,-21.72842,14.451210021972656
1617967164.45584,-24.55359,14.466840028762817
1617967164.47146,-27.22125,14.482460021972656
1617967164.48709,-29.73045,14.498090028762817
1617967164.50271,-32.19557,14.513710021972656
1617967164.51834,-34.83475,14.529340028762817
1617967164.53397,-37.98987,14.544970035552979
1617967164.54959,-42.01932,14.560590028762817
1617967164.56522,-47.08362,14.576220035552979
1617967164.58084,-52.92432,14.591840028762817
1617967164.59647,-58.75528,14.607470035552979
1617967164.61209,-63.34436,14.623090028762817
1617967164.62772,-65.34158,14.638720035552979
1617967164.64335,-63.80734,14.65434980392456
1617967164.65897,-58.56409,14.669970035552979
1617967164.6746,-50.33617,14.68559980392456
1617967164.69022,-40.51703,14.701220035552979
1617967164.70585,-30.65523,14.71684980392456
1617967164.72147,-21.96162,14.732470035552979
1617967164.7371,-15.03062,14.74809980392456
1617967164.75273,-9.830765,14.763729810714722
1617967164.76835,-5.957962,14.77934980392456
1617967164.78398,-2.949326,14.794979810714722
1617967164.7996,-0.5108337,14.81059980392456
1617967164.81523,1.479248,14.826229810714722
1617967164.83085,2.942612,14.84184980392456
1617967164.84648,3.740143,14.857479810714722
1617967164.86211,3.722427,14.873109817504883
1617967164.87773,2.734024,14.888729810714722
1617967164.89336,0.6904297,14.904359817504883
1617967164.90898,-2.400116,14.919979810714722
1617967164.92461,-6.391617,14.935609817504883
1617967164.94023,-10.95461,14.951229810714722
1617967164.95586,-15.66592,14.966859817504883
1617967164.97149,-20.07224,14.982489824295044
1617967164.98711,-23.8239,14.998109817504883
1617967165.00274,-26.71196,15.013739824295044
1617967165.01836,-28.69002,15.029359817504883
1617967165.03399,-29.79596,15.044989824295044
1617967165.04961,-30.07285,15.060609817504883
1617967165.06524,-29.56772,15.076239824295044
1617967165.08087,-28.22491,15.091869831085205
1617967165.09649,-25.93362,15.107489824295044
1617967165.11212,-22.58884,15.123119831085205
1617967165.12774,-18.18199,15.138739824295044
1617967165.14337,-12.90062,15.154369831085205
1617967165.15899,-7.190186,15.169989824295044
1617967165.17462,-1.690567,15.185619831085205
1617967165.19025,2.907089,15.201249837875366
1617967165.20587,6.00174,15.216869831085205
1617967165.2215,7.307388,15.232499837875366
1617967165.23712,6.926575,15.248119831085205
1617967165.25275,5.332687,15.263749837875366
1617967165.26837,3.260971,15.279369831085205
1617967165.284,1.473999,15.294999837875366
1617967165.29963,0.4882507,15.310629844665527
1617967165.31525,0.4463196,15.326249837875366
1617967165.33088,1.166794,15.341879844665527
1617967165.3465,2.33522,15.357499837875366
1617967165.36213,3.848038,15.373129844665527
1617967165.37775,5.897354,15.388749837875366
1617967165.39338,8.898148,15.404379844665527
1617967165.40901,13.17146,15.420009851455688
1617967165.42463,18.63638,15.435629844665527
1617967165.44026,24.77165,15.451259851455688
1617967165.45588,30.88188,15.466879844665527
1617967165.47151,36.58719,15.482509851455688
1617967165.48713,41.99417,15.498129844665527
1617967165.50276,47.46907,15.513759851455688
1617967165.51839,53.05196,15.52938985824585
1617967165.53401,58.06303,15.545009851455688
1617967165.54964,61.23962,15.56063985824585
1617967165.56526,61.38809,15.576259851455688
1617967165.58089,58.1732,15.59188985824585
1617967165.59651,52.57567,15.607509851455688
1617967165.61214,46.55676,15.62313985824585
1617967165.62777,42.28445,15.63876986503601
1617967165.64339,41.26457,15.65438985824585
1617967165.65902,43.92751,15.67001986503601
1617967165.67464,49.74928,15.68563985824585
1617967165.69027,57.76518,15.70126986503601
1617967165.70589,67.00014,15.71688985824585
1617967165.72152,76.64787,15.73251986503601
1617967165.73715,86.01236,15.748149871826172
1617967165.75277,94.37367,15.76376986503601
1617967165.7684,101.0308,15.779399871826172
1617967165.78402,105.5269,15.79501986503601
1617967165.79965,107.8654,15.810649871826172
1617967165.81527,108.5608,15.82626986503601
1617967165.8309,108.4895,15.841899871826172
1617967165.84653,108.5154,15.857529878616333
1617967165.86215,109.1486,15.873149871826172
1617967165.87778,110.3037,15.888779878616333
1617967165.8934,111.2119,15.904399871826172
1617967165.90903,110.6443,15.920029878616333
1617967165.92465,107.2641,15.935649871826172
1617967165.94028,100.034,15.951279878616333
1617967165.95591,88.51729,15.966909885406494
1617967165.97153,72.96747,15.982529878616333
1617967165.98716,54.17993,15.998159885406494
1617967166.00278,33.32196,16.013779878616333
1617967166.01841,11.69861,16.029409885406494
1617967166.03403,-9.417572,16.045029878616333
1617967166.04966,-28.91791,16.060659885406494
1617967166.06529,-45.93106,16.076289892196655
1617967166.08091,-59.96564,16.091909885406494
1617967166.09654,-70.92694,16.107539892196655
1617967166.11216,-79.04654,16.123159885406494
1617967166.12779,-84.71255,16.138789892196655
1617967166.14341,-88.30658,16.154409885406494
1617967166.15904,-90.06143,16.170039892196655
1617967166.17467,-90.10873,16.185669898986816
1617967166.19029,-88.5918,16.201289892196655
1617967166.20592,-85.70728,16.216919898986816
1617967166.22154,-81.77954,16.232539892196655
1617967166.23717,-77.16547,16.248169898986816
1617967166.25279,-72.11713,16.263789892196655
1617967166.26842,-66.7804,16.279419898986816
1617967166.28405,-61.20944,16.295049905776978
1617967166.29967,-55.45966,16.310669898986816
1617967166.3153,-49.6543,16.326299905776978
1617967166.33092,-43.97537,16.341919898986816
1617967166.34655,-38.60956,16.357549905776978
1617967166.36217,-33.76816,16.373169898986816
1617967166.3778,-29.67816,16.388799905776978
1617967166.39343,-26.57498,16.40442991256714
1617967166.40905,-24.68845,16.420049905776978
1617967166.42468,-24.10486,16.43567991256714
1617967166.4403,-24.69614,16.451299905776978
1617967166.45593,-26.10223,16.46692991256714
1617967166.47155,-27.78525,16.482549905776978
1617967166.48718,-29.25555,16.49817991256714
1617967166.50281,-30.18259,16.5138099193573
1617967166.51843,-30.46005,16.52942991256714
1617967166.53406,-30.09769,16.5450599193573
1617967166.54968,-29.14859,16.56067991256714
1617967166.56531,-27.61304,16.5763099193573
1617967166.58094,-25.48792,16.59193992614746
1617967166.59656,-22.89642,16.6075599193573
1617967166.61219,-20.09882,16.62318992614746
1617967166.62781,-17.4592,16.6388099193573
1617967166.64344,-15.30969,16.65443992614746
1617967166.65906,-13.80209,16.6700599193573
1617967166.67469,-12.86386,16.68568992614746
1617967166.69032,-12.27274,16.701319932937622
1617967166.70594,-11.78543,16.71693992614746
1617967166.72157,-11.20401,16.732569932937622
1617967166.73719,-10.50781,16.74818992614746
1617967166.75282,-9.772919,16.763819932937622
1617967166.76844,-9.112183,16.77943992614746
1617967166.78407,-8.63205,16.795069932937622
1617967166.7997,-8.358765,16.810699939727783
1617967166.81532,-8.256134,16.826319932937622
1617967166.83095,-8.241608,16.841949939727783
1617967166.84657,-8.235443,16.857569932937622
1617967166.8622,-8.141388,16.873199939727783
1617967166.87782,-7.928986,16.888819932937622
1617967166.89345,-7.580658,16.904449939727783
1617967166.90908,-7.102173,16.920079946517944
1617967166.9247,-6.530762,16.935699939727783
1617967166.94033,-5.937347,16.951329946517944
1617967166.95595,-5.40213,16.966949939727783
1617967166.97158,-5.000977,16.982579946517944
1617967166.9872,-4.791962,16.998199939727783
1617967167.00283,-4.738953,17.013829946517944
1617967167.01846,-4.781555,17.029459953308105
1617967167.03408,-4.827454,17.045079946517944
1617967167.04971,-4.819122,17.060709953308105
1617967167.06533,-4.73996,17.076329946517944
1617967167.08096,-4.595673,17.091959953308105
1617967167.09658,-4.402039,17.107579946517944
1617967167.11221,-4.182709,17.123209953308105
1617967167.12784,-3.998505,17.138839960098267
1617967167.14346,-3.902649,17.154459953308105
1617967167.15909,-3.955872,17.170089960098267
1617967167.17471,-4.158081,17.185709953308105
1617967167.19034,-4.375244,17.201339960098267
1617967167.20596,-4.433289,17.216959953308105
1617967167.22159,-4.164124,17.232589960098267
1617967167.23722,-3.54541,17.248219966888428
1617967167.25284,-2.756042,17.263839960098267
1617967167.26847,-2.051758,17.279469966888428
1617967167.28409,-1.628052,17.295089960098267
1617967167.29972,-1.525696,17.310719966888428
1617967167.31534,-1.609497,17.326339960098267
1617967167.33097,-1.696838,17.341969966888428
1617967167.3466,-1.695068,17.35759997367859
1617967167.36222,-1.616821,17.373219966888428
1617967167.37785,-1.553772,17.38884997367859
1617967167.39347,-1.554138,17.404469966888428
1617967167.4091,-1.55426,17.42009997367859
1617967167.42472,-1.421631,17.435719966888428
1617967167.44035,-1.038452,17.45134997367859
1617967167.45598,-0.4042969,17.46697998046875
1617967167.4716,0.3787231,17.48259997367859
1617967167.48723,1.110962,17.49822998046875
1617967167.50285,1.63678,17.51384997367859
1617967167.51848,1.882935,17.52947998046875
1617967167.5341,1.897766,17.54509997367859
1617967167.54973,1.773315,17.56072998046875
1617967167.56536,1.584412,17.57635998725891
1617967167.58098,1.330505,17.59197998046875
1617967167.59661,0.9455566,17.60760998725891
1617967167.61223,0.3439941,17.62322998046875
1617967167.62786,-0.4918823,17.63885998725891
1617967167.64348,-1.436035,17.65447998046875
1617967167.65911,-2.273438,17.67010998725891
1617967167.67474,-2.771057,17.685739994049072
1617967167.69036,-2.831665,17.70135998725891
1617967167.70599,-2.551208,17.716989994049072
1617967167.72161,-2.191956,17.73260998725891
1617967167.73724,-2.017273,17.748239994049072
1617967167.75286,-2.122925,17.76385998725891
1617967167.76849,-2.435242,17.779489994049072
1617967167.78412,-2.745544,17.795120000839233
1617967167.79974,-2.888977,17.810739994049072
1617967167.81537,-2.841187,17.826370000839233
1617967167.83099,-2.697571,17.841989994049072
1617967167.84662,-2.593262,17.857620000839233
1617967167.86224,-2.597229,17.873239994049072
1617967167.87787,-2.666138,17.888870000839233
1617967167.8935,-2.718018,17.904500007629395
1617967167.90912,-2.703979,17.920120000839233
1617967167.92475,-2.665466,17.935750007629395
1617967167.94037,-2.709717,17.951370000839233
1617967167.956,-2.941345,17.967000007629395
1617967167.97162,-3.378906,17.982620000839233
1617967167.98725,-3.956177,17.998250007629395
1617967168.00288,-4.532349,18.013880014419556
1617967168.0185,-4.948425,18.029500007629395
1617967168.03413,-5.075867,18.045130014419556
1617967168.04975,-4.878479,18.060750007629395
1617967168.06538,-4.443359,18.076380014419556
1617967168.081,-3.95166,18.092000007629395
1617967168.09663,-3.629333,18.107630014419556
1617967168.11226,-3.602722,18.123260021209717
1617967168.12788,-3.843201,18.138880014419556
1617967168.14351,-4.179016,18.154510021209717
1617967168.15913,-4.366638,18.170130014419556
1617967168.17476,-4.240417,18.185760021209717
1617967168.19038,-3.782837,18.201380014419556
1617967168.20601,-3.149353,18.217010021209717
1617967168.22164,-2.510925,18.232640027999878
1617967168.23726,-2.017639,18.248260021209717
1617967168.25289,-1.672485,18.263890027999878
1617967168.26851,-1.38385,18.279510021209717
1617967168.28414,-1.051697,18.295140027999878
1617967168.29976,-0.6415405,18.310760021209717
1617967168.31539,-0.2313843,18.326390027999878
1617967168.33102,0.05529785,18.34202003479004
1617967168.34664,0.08465576,18.357640027999878
1617967168.36227,-0.168335,18.37327003479004
1617967168.37789,-0.6286621,18.388890027999878
1617967168.39352,-1.13269,18.40452003479004
1617967168.40914,-1.519348,18.420140027999878
1617967168.42477,-1.657349,18.43577003479004
1617967168.4404,-1.507935,18.45139980316162
1617967168.45602,-1.132263,18.46702003479004
1617967168.47165,-0.6387329,18.48264980316162
1617967168.48727,-0.1591187,18.49827003479004
1617967168.5029,0.2299194,18.51389980316162
1617967168.51852,0.487915,18.52952003479004
1617967168.53415,0.6154175,18.54514980316162
1617967168.54978,0.6278687,18.560779809951782
1617967168.5654,0.5276489,18.57639980316162
1617967168.58103,0.3165894,18.592029809951782
1617967168.59665,-0.01361084,18.60764980316162
1617967168.61228,-0.4269409,18.623279809951782
1617967168.6279,-0.8798828,18.63889980316162
1617967168.64353,-1.305969,18.654529809951782
1617967168.65916,-1.671753,18.670159816741943
1617967168.67478,-1.96814,18.685779809951782
1617967168.69041,-2.232178,18.701409816741943
1617967168.70603,-2.515869,18.717029809951782
1617967168.72166,-2.842285,18.732659816741943
1617967168.73728,-3.170532,18.748279809951782
1617967168.75291,-3.416748,18.763909816741943
1617967168.76854,-3.501526,18.779539823532104
1617967168.78416,-3.408569,18.795159816741943
1617967168.79979,-3.258728,18.810789823532104
1617967168.81541,-3.21875,18.826409816741943
1617967168.83104,-3.429138,18.842039823532104
1617967168.84666,-3.940063,18.857659816741943
1617967168.86229,-4.672791,18.873289823532104
1617967168.87792,-5.468628,18.888919830322266
1617967168.89354,-6.163452,18.904539823532104
1617967168.90917,-6.662842,18.920169830322266
1617967168.92479,-6.882751,18.935789823532104
1617967168.94042,-6.774963,18.951419830322266
1617967168.95605,-6.29303,18.967049837112427
1617967168.97167,-5.436768,18.982669830322266
1617967168.9873,-4.309509,18.998299837112427
1617967169.00292,-3.148315,19.013919830322266
1617967169.01855,-2.242798,19.029549837112427
1617967169.03417,-1.822449,19.045169830322266
1617967169.0498,-1.916138,19.060799837112427
1617967169.06543,-2.3172,19.076429843902588
1617967169.08105,-2.682617,19.092049837112427
1617967169.09668,-2.704468,19.107679843902588
1617967169.1123,-2.222656,19.123299837112427
1617967169.12793,-1.318176,19.138929843902588
1617967169.14355,-0.2277832,19.154549837112427
1617967169.15918,0.7484131,19.170179843902588
1617967169.17481,1.375366,19.18580985069275
1617967169.19043,1.570068,19.201429843902588
1617967169.20606,1.405212,19.21705985069275
1617967169.22168,1.105164,19.232679843902588
1617967169.23731,0.9031982,19.24830985069275
1617967169.25293,1.00824,19.263929843902588
1617967169.26856,1.45929,19.27955985069275
1617967169.28419,2.142578,19.29518985748291
1617967169.29981,2.819641,19.31080985069275
1617967169.31544,3.239014,19.32643985748291
1617967169.33106,3.247742,19.34205985069275
1617967169.34669,2.873047,19.35768985748291
1617967169.36231,2.28479,19.37330985069275
1617967169.37794,1.725403,19.38893985748291
1617967169.39357,1.391296,19.40456986427307
1617967169.40919,1.338135,19.42018985748291
1617967169.42482,1.488525,19.43581986427307
1617967169.44044,1.706543,19.45143985748291
1617967169.45607,1.879944,19.46706986427307
1617967169.47169,1.924744,19.48268985748291
1617967169.48732,1.815491,19.49831986427307
1617967169.50295,1.510376,19.513949871063232
1617967169.51857,0.9432983,19.52956986427307
1617967169.5342,0.06787109,19.545199871063232
1617967169.54982,-1.085205,19.56081986427307
1617967169.56545,-2.377686,19.576449871063232
1617967169.58107,-3.551392,19.59206986427307
1617967169.5967,-4.375488,19.607699871063232
1617967169.61233,-4.700745,19.623329877853394
1617967169.62795,-4.566956,19.638949871063232
1617967169.64358,-4.18042,19.654579877853394
1617967169.6592,-3.822571,19.670199871063232
1617967169.67483,-3.766846,19.685829877853394
1617967169.69045,-4.156433,19.701449871063232
1617967169.70608,-4.995911,19.717079877853394
1617967169.72171,-6.106201,19.732709884643555
1617967169.73733,-7.258789,19.748329877853394
1617967169.75296,-8.159546,19.763959884643555
1617967169.76858,-8.563843,19.779579877853394
1617967169.78421,-8.297424,19.795209884643555
1617967169.79983,-7.296265,19.810829877853394
1617967169.81546,-5.635071,19.826459884643555
1617967169.83109,-3.54071,19.842089891433716
1617967169.84671,-1.349854,19.857709884643555
1617967169.86234,0.5648193,19.873339891433716
1617967169.87796,1.911499,19.888959884643555
1617967169.89359,2.601929,19.904589891433716
1617967169.90921,2.76593,19.920209884643555
1617967169.92484,2.661072,19.935839891433716
1617967169.94047,2.56543,19.951469898223877
1617967169.95609,2.600525,19.967089891433716
1617967169.97172,2.712524,19.982719898223877
1617967169.98734,2.71637,19.998339891433716
1617967170.00297,2.476532,20.013969898223877
1617967170.01859,1.966125,20.029589891433716
1617967170.03422,1.413391,20.045219898223877
1617967170.04985,1.109558,20.060849905014038
1617967170.06547,1.311188,20.076469898223877
1617967170.0811,2.095581,20.092099905014038
1617967170.09672,3.291718,20.107719898223877
1617967170.11235,4.58075,20.123349905014038
1617967170.12797,5.661102,20.138969898223877
1617967170.1436,6.315948,20.154599905014038
1617967170.15923,6.490967,20.1702299118042
1617967170.17485,6.28125,20.185849905014038
1617967170.19048,5.83136,20.2014799118042
1617967170.2061,5.287872,20.217099905014038
1617967170.22173,4.781128,20.2327299118042
1617967170.23735,4.382355,20.248349905014038
1617967170.25298,4.136841,20.2639799118042
1617967170.26861,4.036255,20.27960991859436
1617967170.28423,3.978271,20.2952299118042
1617967170.29986,3.807037,20.31085991859436
1617967170.31548,3.382111,20.3264799118042
1617967170.33111,2.611664,20.34210991859436
1617967170.34673,1.587006,20.3577299118042
1617967170.36236,0.5246887,20.37335991859436
1617967170.37799,-0.3243103,20.38898992538452
1617967170.39361,-0.8221436,20.40460991859436
1617967170.40924,-1.016022,20.42023992538452
1617967170.42486,-1.119446,20.43585991859436
1617967170.44049,-1.371094,20.45148992538452
1617967170.45611,-1.857178,20.46710991859436
1617967170.47174,-2.48703,20.48273992538452
1617967170.48737,-3.026794,20.498369932174683
1617967170.50299,-3.277496,20.51398992538452
1617967170.51862,-3.233551,20.529619932174683
1617967170.53424,-3.136719,20.54523992538452
1617967170.54987,-3.338654,20.560869932174683
1617967170.56549,-4.122467,20.57648992538452
1617967170.58112,-5.482208,20.592119932174683
1617967170.59675,-7.067993,20.607749938964844
1617967170.61237,-8.316681,20.623369932174683
1617967170.628,-8.723572,20.638999938964844
1617967170.64362,-8.095093,20.654619932174683
1617967170.65925,-6.650543,20.670249938964844
1617967170.67487,-4.968567,20.685869932174683
1617967170.6905,-3.718597,20.701499938964844
1617967170.70613,-3.418854,20.717129945755005
1617967170.72175,-4.223602,20.732749938964844
1617967170.73738,-5.943665,20.748379945755005
1617967170.753,-8.141724,20.763999938964844
1617967170.76863,-10.33279,20.779629945755005
1617967170.78425,-12.18433,20.795249938964844
1617967170.79988,-13.64703,20.810879945755005
1617967170.81551,-14.96603,20.826509952545166
1617967170.83113,-16.56906,20.842129945755005
1617967170.84676,-18.88422,20.857759952545166
1617967170.86238,-22.06049,20.873379945755005
1617967170.87801,-25.86285,20.889009952545166
1617967170.89363,-29.55243,20.904629945755005
1617967170.90926,-32.04709,20.920259952545166
1617967170.92489,-32.11353,20.935889959335327
1617967170.94051,-28.67239,20.951509952545166
1617967170.95614,-21.14093,20.967139959335327
1617967170.97176,-9.716827,20.982759952545166
1617967170.98739,4.433441,20.998389959335327
1617967171.00301,19.2305,21.014009952545166
1617967171.01864,32.11435,21.029639959335327
1617967171.03427,40.78931,21.04526996612549
1617967171.04989,44.10425,21.060889959335327
1617967171.06552,42.59625,21.07651996612549
1617967171.08114,38.4566,21.092139959335327
1617967171.09677,34.73029,21.10776996612549
1617967171.11239,34.21896,21.123389959335327
1617967171.12802,38.39484,21.13901996612549
1617967171.14365,47.03751,21.15464997291565
1617967171.15927,58.56528,21.17026996612549
1617967171.1749,70.84738,21.18589997291565
1617967171.19052,82.06573,21.20151996612549
1617967171.20615,91.15216,21.21714997291565
1617967171.22178,97.70731,21.23277997970581
1617967171.2374,101.5995,21.24839997291565
1617967171.25303,102.6404,21.26402997970581
1617967171.26865,100.6055,21.27964997291565
1617967171.28428,95.56927,21.29527997970581
1617967171.2999,88.17349,21.31089997291565
1617967171.31553,79.62076,21.32652997970581
1617967171.33116,71.33908,21.34215998649597
1617967171.34678,64.36279,21.35777997970581
1617967171.36241,59.00787,21.37340998649597
1617967171.37803,54.81238,21.38902997970581
1617967171.39366,50.948,21.40465998649597
1617967171.40928,46.64679,21.42027997970581
1617967171.42491,41.53912,21.43590998649597
1617967171.44054,35.60767,21.451539993286133
1617967171.45616,28.94769,21.46715998649597
1617967171.47179,21.60956,21.482789993286133
1617967171.48741,13.55585,21.49840998649597
1617967171.50304,4.852356,21.514039993286133
1617967171.51866,-4.166626,21.52965998649597
1617967171.53429,-12.94867,21.545289993286133
1617967171.54992,-20.99164,21.560920000076294
1617967171.56554,-28.10498,21.576539993286133
1617967171.58117,-34.51306,21.592170000076294
1617967171.59679,-40.70074,21.607789993286133
1617967171.61242,-47.07605,21.623420000076294
1617967171.62804,-53.71722,21.639039993286133
1617967171.64367,-60.27393,21.654670000076294
1617967171.6593,-66.10126,21.670300006866455
1617967171.67492,-70.54791,21.685920000076294
1617967171.69055,-73.15668,21.701550006866455
1617967171.70617,-73.7807,21.717170000076294
1617967171.7218,-72.58154,21.732800006866455
1617967171.73742,-69.95789,21.748420000076294
1617967171.75305,-66.42847,21.764050006866455
1617967171.76868,-62.49249,21.779680013656616
1617967171.7843,-58.54828,21.795300006866455
1617967171.79993,-54.82098,21.810930013656616
1617967171.81555,-51.40631,21.826550006866455
1617967171.83118,-48.34882,21.842180013656616
1617967171.8468,-45.72302,21.857800006866455
1617967171.86243,-43.61621,21.873430013656616
1617967171.87806,-42.09509,21.889060020446777
1617967171.89368,-41.09113,21.904680013656616
1617967171.90931,-40.34882,21.920310020446777
1617967171.92493,-39.52197,21.935930013656616
1617967171.94056,-38.30707,21.951560020446777
1617967171.95618,-36.57745,21.967180013656616
1617967171.97181,-34.47137,21.982810020446777
1617967171.98744,-32.25037,21.99844002723694
1617967172.00306,-30.15082,22.014060020446777
1617967172.01869,-28.21265,22.02969002723694
1617967172.03431,-26.27808,22.045310020446777
1617967172.04994,-24.10834,22.06094002723694
1617967172.06556,-21.55078,22.076560020446777
1617967172.08119,-18.68451,22.09219002723694
1617967172.09682,-15.79138,22.1078200340271
1617967172.11244,-13.25958,22.12344002723694
1617967172.12807,-11.39801,22.1390700340271
1617967172.14369,-10.30188,22.15469002723694
1617967172.15932,-9.823547,22.1703200340271
1617967172.17494,-9.631714,22.18594002723694
1617967172.19057,-9.379578,22.2015700340271
1617967172.2062,-8.805054,22.21719980239868
1617967172.22182,-7.815979,22.2328200340271
1617967172.23745,-6.456665,22.24844980239868
1617967172.25307,-4.862793,22.2640700340271
1617967172.2687,-3.186768,22.27969980239868
1617967172.28432,-1.568787,22.2953200340271
1617967172.29995,-0.1437988,22.31094980239868
1617967172.31558,0.9455566,22.326579809188843
1617967172.3312,1.574585,22.34219980239868
1617967172.34683,1.662903,22.357829809188843
1617967172.36245,1.275513,22.37344980239868
1617967172.37808,0.6470337,22.389079809188843
1617967172.3937,0.1140747,22.40469980239868
1617967172.40933,0.0345459,22.420329809188843
1617967172.42496,0.5595093,22.435959815979004
1617967172.44058,1.578491,22.451579809188843
1617967172.45621,2.751465,22.467209815979004
1617967172.47183,3.66449,22.482829809188843
1617967172.48746,4.013794,22.498459815979004
1617967172.50308,3.737671,22.514079809188843
1617967172.51871,3.030334,22.529709815979004
1617967172.53434,2.21405,22.545339822769165
1617967172.54996,1.565247,22.560959815979004
1617967172.56559,1.20697,22.576589822769165
1617967172.58121,1.085815,22.592209815979004
1617967172.59684,1.062744,22.607839822769165
1617967172.61246,1.005676,22.623459815979004
1617967172.62809,0.8928223,22.639089822769165
1617967172.64372,0.77771,22.654719829559326
1617967172.65934,0.7211304,22.670339822769165
1617967172.67497,0.7471924,22.685969829559326
1617967172.69059,0.8401489,22.701589822769165
1617967172.70622,0.9580688,22.717219829559326
1617967172.72184,1.104675,22.732839822769165
1617967172.73747,1.338745,22.748469829559326
1617967172.7531,1.70874,22.764099836349487
1617967172.76872,2.252625,22.779719829559326
1617967172.78435,2.90625,22.795349836349487
1617967172.79997,3.575378,22.810969829559326
1617967172.8156,4.140137,22.826599836349487
1617967172.83122,4.552979,22.842219829559326
1617967172.84685,4.837402,22.857849836349487
1617967172.86248,5.074829,22.87347984313965
1617967172.8781,5.308533,22.889099836349487
1617967172.89373,5.498108,22.90472984313965
1617967172.90935,5.586975,22.920349836349487
1617967172.92498,5.486511,22.93597984313965
1617967172.9406,5.165039,22.951599836349487
1617967172.95623,4.651733,22.96722984313965
1617967172.97186,4.027588,22.98285984992981
1617967172.98748,3.364014,22.99847984313965
1617967173.00311,2.724548,23.01410984992981
1617967173.01873,2.117493,23.02972984313965
1617967173.03436,1.565308,23.04535984992981
1617967173.04998,1.08551,23.06097984313965
1617967173.06561,0.7131958,23.07660984992981
1617967173.08124,0.4516602,23.09223985671997
1617967173.09686,0.2866821,23.10785984992981
1617967173.11249,0.15271,23.12348985671997
1617967173.12811,-0.02294922,23.13910984992981
1617967173.14374,-0.272583,23.15473985671997
1617967173.15936,-0.5741577,23.17035984992981
1617967173.17499,-0.8152466,23.18598985671997
1617967173.19062,-0.8752441,23.201619863510132
1617967173.20624,-0.6566162,23.21723985671997
1617967173.22187,-0.1815186,23.232869863510132
1617967173.23749,0.4301758,23.24848985671997
1617967173.25312,0.9260864,23.264119863510132
1617967173.26874,1.062378,23.27973985671997
1617967173.28437,0.6628418,23.295369863510132
1617967173.3,-0.2689209,23.310999870300293
1617967173.31562,-1.530579,23.326619863510132
1617967173.33125,-2.763916,23.342249870300293
1617967173.34687,-3.565613,23.357869863510132
1617967173.3625,-3.656067,23.373499870300293
1617967173.37812,-2.960327,23.389119863510132
1617967173.39375,-1.621094,23.404749870300293
1617967173.40938,0.06237793,23.420379877090454
1617967173.425,1.773193,23.435999870300293
1617967173.44063,3.311768,23.451629877090454
1617967173.45625,4.573181,23.467249870300293
1617967173.47188,5.53241,23.482879877090454
1617967173.4875,6.179199,23.498499870300293
1617967173.50313,6.46051,23.514129877090454
1617967173.51876,6.296631,23.529759883880615
1617967173.53438,5.673096,23.545379877090454
1617967173.55001,4.660278,23.561009883880615
1617967173.56563,3.449951,23.576629877090454
1617967173.58126,2.306458,23.592259883880615
1617967173.59688,1.420441,23.607879877090454
1617967173.61251,0.8925781,23.623509883880615
1617967173.62814,0.6920776,23.639139890670776
1617967173.64376,0.7351685,23.654759883880615
1617967173.65939,0.9152222,23.670389890670776
1617967173.67501,1.225159,23.686009883880615
1617967173.69064,1.680603,23.701639890670776
1617967173.70626,2.31842,23.717259883880615
1617967173.72189,3.107361,23.732889890670776
1617967173.73752,3.913452,23.748519897460938
1617967173.75314,4.537079,23.764139890670776
1617967173.76877,4.776642,23.779769897460938
1617967173.78439,4.582703,23.795389890670776
1617967173.80002,4.045074,23.811019897460938
1617967173.81565,3.407227,23.8266499042511
1617967173.83127,2.876404,23.842269897460938
1617967173.8469,2.555542,23.8578999042511
1617967173.86252,2.407074,23.873519897460938
1617967173.87815,2.289429,23.8891499042511
1617967173.89377,2.066498,23.904769897460938
1617967173.9094,1.693024,23.9203999042511
1617967173.92503,1.224487,23.93602991104126
1617967173.94065,0.791626,23.9516499042511
1617967173.95628,0.4941101,23.96727991104126
1617967173.9719,0.3593445,23.9828999042511
1617967173.98753,0.3183899,23.99852991104126
1617967174.00315,0.2718811,24.0141499042511
1617967174.01878,0.1258545,24.02977991104126
1617967174.03441,-0.1821899,24.04540991783142
1617967174.05003,-0.6620789,24.06102991104126
1617967174.06566,-1.295044,24.07665991783142
1617967174.08128,-2.00061,24.09227991104126
1617967174.09691,-2.669891,24.10790991783142
1617967174.11253,-3.166534,24.12352991104126
1617967174.12816,-3.404633,24.13915991783142
1617967174.14379,-3.384338,24.154789924621582
1617967174.15941,-3.226105,24.17040991783142
1617967174.17504,-3.087402,24.186039924621582
1617967174.19066,-3.129913,24.20165991783142
1617967174.20629,-3.415222,24.217289924621582
1617967174.22191,-3.917236,24.23290991783142
1617967174.23754,-4.525848,24.248539924621582
1617967174.25317,-5.098633,24.264169931411743
1617967174.26879,-5.480408,24.279789924621582
1617967174.28442,-5.522827,24.295419931411743
1617967174.30004,-5.112366,24.311039924621582
1617967174.31567,-4.18338,24.326669931411743
1617967174.33129,-2.772644,24.342289924621582
1617967174.34692,-1.067413,24.357919931411743
1617967174.36255,0.6398621,24.373549938201904
1617967174.37817,2.08432,24.389169931411743
1617967174.3938,3.120972,24.404799938201904
1617967174.40942,3.751312,24.420419931411743
1617967174.42505,4.130157,24.436049938201904
1617967174.44067,4.402649,24.451669931411743
1617967174.4563,4.656311,24.467299938201904
1617967174.47193,4.869415,24.482929944992065
1617967174.48755,4.963989,24.498549938201904
1617967174.50318,4.880676,24.514179944992065
1617967174.5188,4.653656,24.529799938201904
1617967174.53443,4.366425,24.545429944992065
1617967174.55005,4.126923,24.561049938201904
1617967174.56568,4.023041,24.576679944992065
1617967174.58131,4.06897,24.592309951782227
1617967174.59693,4.25351,24.607929944992065
1617967174.61256,4.503784,24.623559951782227
1617967174.62818,4.787201,24.639179944992065
1617967174.64381,5.034943,24.654809951782227
1617967174.65943,5.174988,24.670429944992065
1617967174.67506,5.158264,24.686059951782227
1617967174.69069,4.950134,24.701689958572388
1617967174.70631,4.582306,24.717309951782227
1617967174.72194,4.13385,24.732939958572388
1617967174.73756,3.726013,24.748559951782227
1617967174.75319,3.411987,24.764189958572388
1617967174.76881,3.195984,24.779809951782227
1617967174.78444,2.98703,24.795439958572388
1617967174.80007,2.681641,24.81106996536255
1617967174.81569,2.205658,24.826689958572388
1617967174.83132,1.590637,24.84231996536255
1617967174.84694,0.9203186,24.857939958572388
1617967174.86257,0.2848206,24.87356996536255
1617967174.87819,-0.2657166,24.889189958572388
1617967174.89382,-0.7372742,24.90481996536255
1617967174.90945,-1.210236,24.92044997215271
1617967174.92507,-1.708649,24.93606996536255
1617967174.9407,-2.223236,24.95169997215271
1617967174.95632,-2.686493,24.96731996536255
1617967174.97195,-3.030731,24.98294997215271
1617967174.98757,-3.228027,24.99856996536255
1617967175.0032,-3.309235,25.01419997215271
1617967175.01883,-3.326569,25.02982997894287
1617967175.03445,-3.346985,25.04544997215271
1617967175.05008,-3.448822,25.06107997894287
1617967175.0657,-3.666351,25.07669997215271
1617967175.08133,-4.003113,25.09232997894287
1617967175.09695,-4.400055,25.10794997215271
1617967175.11258,-4.751251,25.12357997894287
1617967175.12821,-4.898956,25.139209985733032
1617967175.14383,-4.696198,25.15482997894287
1617967175.15946,-4.08786,25.170459985733032
1617967175.17508,-3.133057,25.18607997894287
1617967175.19071,-1.996582,25.201709985733032
1617967175.20633,-0.911438,25.21732997894287
1617967175.22196,-0.07754517,25.232959985733032
1617967175.23759,0.4325562,25.248589992523193
1617967175.25321,0.669342,25.264209985733032
1617967175.26884,0.7937012,25.279839992523193
1617967175.28446,0.993988,25.295459985733032
1617967175.30009,1.360962,25.311089992523193
1617967175.31571,1.869995,25.326709985733032
1617967175.33134,2.406403,25.342339992523193
1617967175.34697,2.80246,25.357969999313354
1617967175.36259,2.937683,25.373589992523193
1617967175.37822,2.812897,25.389219999313354
1617967175.39384,2.519989,25.404839992523193
1617967175.40947,2.210663,25.420469999313354
1617967175.42509,2.005951,25.436089992523193
1617967175.44072,1.951508,25.451719999313354
1617967175.45635,2.049805,25.467350006103516
1617967175.47197,2.283661,25.482969999313354
1617967175.4876,2.619293,25.498600006103516
1617967175.50322,3.026611,25.514219999313354
1617967175.51885,3.429108,25.529850006103516
1617967175.53447,3.713257,25.545469999313354
1617967175.5501,3.735229,25.561100006103516
1617967175.56573,3.393127,25.576730012893677
1617967175.58135,2.680206,25.592350006103516
1617967175.59698,1.698181,25.607980012893677
1617967175.6126,0.6216431,25.623600006103516
1617967175.62823,-0.3731995,25.639230012893677
1617967175.64385,-1.149414,25.654850006103516
1617967175.65948,-1.671265,25.670480012893677
1617967175.67511,-1.968933,25.686110019683838
1617967175.69073,-2.096558,25.701730012893677
1617967175.70636,-2.135498,25.717360019683838
1617967175.72198,-2.158966,25.732980012893677
1617967175.73761,-2.247742,25.748610019683838
1617967175.75323,-2.462097,25.764230012893677
1617967175.76886,-2.820587,25.779860019683838
1617967175.78449,-3.286743,25.795490026474
1617967175.80011,-3.762451,25.811110019683838
1617967175.81574,-4.127625,25.826740026474
1617967175.83136,-4.302246,25.842360019683838
1617967175.84699,-4.265625,25.857990026474
1617967175.86261,-4.100189,25.873610019683838
1617967175.87824,-3.988159,25.889240026474
1617967175.89387,-4.123138,25.90487003326416
1617967175.90949,-4.663452,25.920490026474
1617967175.92512,-5.655548,25.93612003326416
1617967175.94074,-6.953369,25.951740026474
1617967175.95637,-8.242523,25.96737003326416
1617967175.97199,-9.12735,25.982990026474
1617967175.98762,-9.27829,25.99862003326416
1617967176.00325,-8.599976,26.014249801635742
1617967176.01887,-7.263184,26.02987003326416
1617967176.0345,-5.612244,26.045499801635742
1617967176.05012,-4.008362,26.06112003326416
1617967176.06575,-2.678741,26.076749801635742
1617967176.08138,-1.638092,26.092379808425903
1617967176.097,-0.7680054,26.107999801635742
1617967176.11263,0.01776123,26.123629808425903
1617967176.12825,0.6898499,26.139249801635742
1617967176.14388,1.136963,26.154879808425903
1617967176.1595,1.226227,26.170499801635742
1617967176.17513,0.9562683,26.186129808425903
1617967176.19076,0.4707031,26.201759815216064
1617967176.20638,0.006195068,26.217379808425903
1617967176.22201,-0.2067566,26.233009815216064
1617967176.23763,-0.06707764,26.248629808425903
1617967176.25326,0.4052734,26.264259815216064
1617967176.26888,1.134521,26.279879808425903
1617967176.28451,2.037628,26.295509815216064
1617967176.30014,3.044647,26.311139822006226
1617967176.31576,4.097137,26.326759815216064
1617967176.33139,5.109222,26.342389822006226
1617967176.34701,5.978333,26.358009815216064
1617967176.36264,6.614685,26.373639822006226
1617967176.37826,6.992737,26.389259815216064
1617967176.39389,7.175446,26.404889822006226
1617967176.40952,7.26355,26.420519828796387
1617967176.42514,7.339661,26.436139822006226
1617967176.44077,7.396332,26.451769828796387
1617967176.45639,7.36496,26.467389822006226
1617967176.47202,7.16803,26.483019828796387
1617967176.48764,6.784332,26.498639822006226
1617967176.50327,6.289825,26.514269828796387
1617967176.5189,5.799347,26.529899835586548
1617967176.53452,5.390411,26.545519828796387
1617967176.55015,5.053711,26.561149835586548
1617967176.56577,4.687531,26.576769828796387
1617967176.5814,4.16507,26.592399835586548
1617967176.59702,3.433594,26.608019828796387
1617967176.61265,2.564209,26.623649835586548
1617967176.62828,1.688232,26.63927984237671
1617967176.6439,0.9500122,26.654899835586548
1617967176.65953,0.4064636,26.67052984237671
1617967176.67515,0.007324219,26.686149835586548
1617967176.69078,-0.3804932,26.70177984237671
1617967176.7064,-0.8890686,26.717399835586548
1617967176.72203,-1.599915,26.73302984237671
1617967176.73766,-2.477936,26.74865984916687
1617967176.75328,-3.413513,26.76427984237671
1617967176.76891,-4.277771,26.77990984916687
1617967176.78453,-5.000427,26.79552984237671
1617967176.80016,-5.633667,26.81115984916687
1617967176.81578,-6.328339,26.82677984237671
1617967176.83141,-7.262299,26.84240984916687
1617967176.84704,-8.485992,26.85803985595703
1617967176.86266,-9.888031,26.87365984916687
1617967176.87829,-11.15866,26.88928985595703
1617967176.89391,-11.93414,26.90490984916687
1617967176.90954,-11.95108,26.92053985595703
1617967176.92516,-11.11572,26.93615984916687
1617967176.94079,-9.55246,26.95178985595703
1617967176.95642,-7.490967,26.967419862747192
1617967176.97204,-5.191742,26.98303985595703
1617967176.98767,-2.856354,26.998669862747192
1617967177.00329,-0.6504822,27.01428985595703
1617967177.01892,1.290863,27.029919862747192
1617967177.03454,2.839569,27.04553985595703
1617967177.05017,3.890381,27.061169862747192
1617967177.0658,4.431427,27.076799869537354
1617967177.08142,4.562683,27.092419862747192
1617967177.09705,4.468109,27.108049869537354
1617967177.11267,4.376434,27.123669862747192
1617967177.1283,4.517853,27.139299869537354
1617967177.14392,5.03595,27.154919862747192
1617967177.15955,5.97702,27.170549869537354
1617967177.17518,7.257507,27.186179876327515
1617967177.1908,8.664948,27.201799869537354
1617967177.20643,9.895752,27.217429876327515
1617967177.22205,10.63788,27.233049869537354
1617967177.23768,10.7037,27.248679876327515
1617967177.2533,10.10858,27.264299869537354
1617967177.26893,9.134766,27.279929876327515
1617967177.28456,8.163635,27.295559883117676
1617967177.30018,7.540955,27.311179876327515
1617967177.31581,7.384003,27.326809883117676
1617967177.33143,7.556366,27.342429876327515
1617967177.34706,7.764038,27.358059883117676
1617967177.36268,7.697632,27.373679876327515
1617967177.37831,7.248871,27.389309883117676
1617967177.39394,6.507904,27.404939889907837
1617967177.40956,5.7276,27.420559883117676
1617967177.42519,5.123932,27.436189889907837
1617967177.44081,4.76416,27.451809883117676
1617967177.45644,4.562225,27.467439889907837
1617967177.47206,4.361755,27.483059883117676
1617967177.48769,4.079956,27.498689889907837
1617967177.50332,3.729218,27.514319896697998
1617967177.51894,3.461456,27.529939889907837
1617967177.53457,3.382385,27.545569896697998
1617967177.55019,3.47229,27.561189889907837
1617967177.56582,3.589111,27.576819896697998
1617967177.58144,3.487305,27.592439889907837
1617967177.59707,3.026245,27.608069896697998
1617967177.6127,2.232941,27.62369990348816
1617967177.62832,1.294525,27.639319896697998
1617967177.64395,0.4217834,27.65494990348816
1617967177.65957,-0.2677307,27.670569896697998
1617967177.6752,-0.8358154,27.68619990348816
1617967177.69082,-1.442505,27.701819896697998
1617967177.70645,-2.190033,27.71744990348816
1617967177.72208,-3.101257,27.73307991027832
1617967177.7377,-4.089722,27.74869990348816
1617967177.75333,-5.053497,27.76432991027832
1617967177.76895,-5.917511,27.77994990348816
1617967177.78458,-6.666168,27.79557991027832
1617967177.8002,-7.231598,27.81119990348816
1617967177.81583,-7.46756,27.82682991027832
1617967177.83146,-7.172546,27.84245991706848
1617967177.84708,-6.163208,27.85807991027832
1617967177.86271,-4.472626,27.87370991706848
1617967177.87833,-2.345337,27.88932991027832
1617967177.89396,-0.1386414,27.90495991706848
1617967177.90958,1.799072,27.92057991027832
1617967177.92521,3.295959,27.93620991706848
1617967177.94084,4.344055,27.951839923858643
1617967177.95646,5.048492,27.96745991706848
1617967177.97209,5.516479,27.983089923858643
1617967177.98771,5.819397,27.99870991706848
1617967178.00334,5.964264,28.014339923858643
1617967178.01896,5.958893,28.02995991706848
1617967178.03459,5.839691,28.045589923858643
1617967178.05022,5.68045,28.061219930648804
1617967178.06584,5.553696,28.076839923858643
1617967178.08147,5.489166,28.092469930648804
1617967178.09709,5.488266,28.108089923858643
1617967178.11272,5.517181,28.123719930648804
1617967178.12834,5.56691,28.139339923858643
1617967178.14397,5.599518,28.154969930648804
1617967178.1596,5.568542,28.170599937438965
1617967178.17522,5.426224,28.186219930648804
1617967178.19085,5.139313,28.201849937438965
1617967178.20647,4.761856,28.217469930648804
1617967178.2221,4.399673,28.233099937438965
1617967178.23773,4.165588,28.248729944229126
1617967178.25335,4.09346,28.264349937438965
1617967178.26898,4.137421,28.279979944229126
1617967178.2846,4.166794,28.295599937438965
1617967178.30023,4.017303,28.311229944229126
1617967178.31585,3.571594,28.326849937438965
1617967178.33148,2.804428,28.342479944229126
1617967178.34711,1.828339,28.358109951019287
1617967178.36273,0.8402405,28.373729944229126
1617967178.37836,0.03137207,28.389359951019287
1617967178.39398,-0.4758301,28.404979944229126
1617967178.40961,-0.6731873,28.420609951019287
1617967178.42523,-0.687027,28.436229944229126
1617967178.44086,-0.690506,28.451859951019287
1617967178.45649,-0.8825531,28.46748995780945
1617967178.47211,-1.392273,28.483109951019287
1617967178.48774,-2.224991,28.49873995780945
1617967178.50336,-3.277847,28.514359951019287
1617967178.51899,-4.382599,28.52998995780945
1617967178.53461,-5.383881,28.545609951019287
1617967178.55024,-6.181519,28.56123995780945
1617967178.56587,-6.768784,28.57686996459961
1617967178.58149,-7.190491,28.59248995780945
1617967178.59712,-7.532578,28.60811996459961
1617967178.61274,-7.917755,28.62373995780945
1617967178.62837,-8.414734,28.63936996459961
1617967178.64399,-9.023819,28.65498995780945
1617967178.65962,-9.63446,28.67061996459961
1617967178.67525,-10.0157,28.68624997138977
1617967178.69087,-9.915802,28.70186996459961
1617967178.7065,-9.121948,28.71749997138977
1617967178.72212,-7.596252,28.73311996459961
1617967178.73775,-5.491135,28.74874997138977
1617967178.75337,-3.081238,28.76436996459961
1617967178.769,-0.6716156,28.77999997138977
1617967178.78463,1.526108,28.79562997817993
1617967178.80025,3.456497,28.81124997138977
1617967178.81588,5.202423,28.82687997817993
1617967178.8315,6.875488,28.84249997138977
1617967178.84713,8.54982,28.85812997817993
1617967178.86275,10.19185,28.87374997138977
1617967178.87838,11.66644,28.88937997817993
1617967178.89401,12.7836,28.905009984970093
1617967178.90963,13.37709,28.92062997817993
1617967178.92526,13.33096,28.936259984970093
1617967178.94088,12.69968,28.95187997817993
1617967178.95651,11.74709,28.967509984970093
1617967178.97213,10.86711,28.98312997817993
1617967178.98776,10.48979,28.998759984970093
1617967179.00339,10.86166,29.014389991760254
1617967179.01901,11.89459,29.030009984970093
1617967179.03464,13.08246,29.045639991760254
1617967179.05026,13.6131,29.061259984970093
1617967179.06589,12.62512,29.076889991760254
1617967179.08151,9.448746,29.092509984970093
1617967179.09714,3.829895,29.108139991760254
1617967179.11277,-4.130997,29.123769998550415
1617967179.12839,-14.03932,29.139389991760254
1617967179.14402,-25.31726,29.155019998550415
1617967179.15964,-37.29024,29.170639991760254
1617967179.17527,-49.14795,29.186269998550415
1617967179.19089,-59.98894,29.201889991760254
1617967179.20652,-68.94839,29.217519998550415
1617967179.22215,-75.47614,29.233150005340576
1617967179.23777,-79.46425,29.248769998550415
1617967179.2534,-81.24617,29.264400005340576
1617967179.26902,-81.21214,29.280019998550415
1617967179.28465,-79.47797,29.295650005340576
1617967179.30027,-75.67946,29.311269998550415
1617967179.3159,-69.13313,29.326900005340576
1617967179.33153,-59.24117,29.342530012130737
1617967179.34715,-45.79988,29.358150005340576
1617967179.36278,-29.20419,29.373780012130737
1617967179.3784,-10.31778,29.389400005340576
1617967179.39403,9.724442,29.405030012130737
1617967179.40965,29.74287,29.420650005340576
1617967179.42528,48.60847,29.436280012130737
1617967179.44091,65.38646,29.4519100189209
1617967179.45653,79.44344,29.467530012130737
1617967179.47216,90.53642,29.4831600189209
1617967179.48778,98.85179,29.498780012130737
1617967179.50341,104.8635,29.5144100189209
1617967179.51903,109.1671,29.530030012130737
1617967179.53466,112.313,29.5456600189209
1617967179.55029,114.7975,29.56129002571106
1617967179.56591,117.0838,29.5769100189209
1617967179.58154,119.5354,29.59254002571106
1617967179.59716,122.1943,29.6081600189209
1617967179.61279,124.4971,29.62379002571106
1617967179.62841,125.2819,29.6394100189209
1617967179.64404,123.1272,29.65504002571106
1617967179.65967,117.0277,29.67067003250122
1617967179.67529,106.9421,29.68629002571106
1617967179.69092,93.93263,29.70192003250122
1617967179.70654,79.73927,29.71754002571106
1617967179.72217,66.00638,29.73317003250122
1617967179.73779,53.70802,29.74879002571106
1617967179.75342,42.84708,29.76442003250122
1617967179.76905,32.74174,29.780049800872803
1617967179.78467,22.53052,29.79567003250122
1617967179.8003,11.60899,29.811299800872803
1617967179.81592,-0.06097412,29.82692003250122
1617967179.83155,-12.03035,29.842549800872803
1617967179.84717,-23.57932,29.85817003250122
1617967179.8628,-33.97992,29.873799800872803
1617967179.87843,-42.68292,29.889429807662964
1617967179.89405,-49.40422,29.905049800872803
1617967179.90968,-54.0766,29.920679807662964
1617967179.9253,-56.80353,29.936299800872803
1617967179.94093,-57.80798,29.951929807662964
1617967179.95655,-57.43726,29.967549800872803
1617967179.97218,-56.16428,29.983179807662964
1617967179.98781,-54.55515,29.998809814453125
1617967180.00343,-53.16592,30.014429807662964
1617967180.01906,-52.33536,30.030059814453125
1617967180.03468,-52.09473,30.045679807662964
1617967180.05031,-52.17731,30.061309814453125
1617967180.06593,-52.15561,30.076929807662964
1617967180.08156,-51.64368,30.092559814453125
1617967180.09719,-50.42297,30.108189821243286
1617967180.11281,-48.54062,30.123809814453125
1617967180.12844,-46.16507,30.139439821243286
1617967180.14406,-43.53729,30.155059814453125
1617967180.15969,-40.8671,30.170689821243286
1617967180.17531,-38.29529,30.186309814453125
1617967180.19094,-35.89087,30.201939821243286
1617967180.20657,-33.64398,30.217569828033447
1617967180.22219,-31.50043,30.233189821243286
1617967180.23782,-29.35309,30.248819828033447
1617967180.25344,-27.13763,30.264439821243286
1617967180.26907,-24.87369,30.280069828033447
1617967180.28469,-22.66992,30.295689821243286
1617967180.30032,-20.7175,30.311319828033447
1617967180.31595,-19.15036,30.32694983482361
1617967180.33157,-18.05585,30.342569828033447
1617967180.3472,-17.42813,30.35819983482361
1617967180.36282,-17.20273,30.373819828033447
1617967180.37845,-17.23633,30.38944983482361
1617967180.39407,-17.2981,30.405069828033447
1617967180.4097,-17.05237,30.42069983482361
1617967180.42533,-16.12878,30.43632984161377
1617967180.44095,-14.27646,30.45194983482361
1617967180.45658,-11.5256,30.46757984161377
1617967180.4722,-8.214142,30.48319983482361
1617967180.48783,-4.907318,30.49882984161377
1617967180.50345,-2.127533,30.51444983482361
1617967180.51908,-0.1488647,30.53007984161377
1617967180.53471,1.078857,30.54570984840393
1617967180.55033,1.841644,30.56132984161377
1617967180.56596,2.457062,30.57695984840393
1617967180.58158,3.065247,30.59257984161377
1617967180.59721,3.595612,30.60820984840393
1617967180.61283,3.871796,30.62382984161377
1617967180.62846,3.75293,30.63945984840393
1617967180.64409,3.283386,30.655089855194092
1617967180.65971,2.665497,30.67070984840393
1617967180.67534,2.14389,30.686339855194092
1617967180.69096,1.910706,30.70195984840393
1617967180.70659,2.010193,30.717589855194092
1617967180.72221,2.353363,30.73320984840393
1617967180.73784,2.781403,30.748839855194092
1617967180.75347,3.156158,30.764469861984253
1617967180.76909,3.408997,30.780089855194092
1617967180.78472,3.547791,30.795719861984253
1617967180.80034,3.596924,30.811339855194092
1617967180.81597,3.571411,30.826969861984253
1617967180.83159,3.431244,30.842589855194092
1617967180.84722,3.120728,30.858219861984253
1617967180.86285,2.616425,30.873849868774414
1617967180.87847,1.950592,30.889469861984253
1617967180.8941,1.230804,30.905099868774414
1617967180.90972,0.5752258,30.920719861984253
1617967180.92535,0.07827759,30.936349868774414
1617967180.94098,-0.2523193,30.951979875564575
1617967180.9566,-0.4347839,30.967599868774414
1617967180.97223,-0.5334473,30.983229875564575
1617967180.98785,-0.5914307,30.998849868774414
1617967181.00348,-0.6459961,31.014479875564575
1617967181.0191,-0.7163391,31.030099868774414
1617967181.03473,-0.813324,31.045729875564575
1617967181.05036,-0.9336548,31.061359882354736
1617967181.06598,-1.055298,31.076979875564575
1617967181.08161,-1.141602,31.092609882354736
1617967181.09723,-1.138702,31.108229875564575
1617967181.11286,-1.060486,31.123859882354736
1617967181.12848,-1.016449,31.139479875564575
1617967181.14411,-1.167603,31.155109882354736
1617967181.15974,-1.656128,31.170739889144897
1617967181.17536,-2.506592,31.186359882354736
1617967181.19099,-3.584015,31.201989889144897
1617967181.20661,-4.658844,31.217609882354736
1617967181.22224,-5.522186,31.233239889144897
1617967181.23786,-6.048187,31.248859882354736
1617967181.25349,-6.24826,31.264489889144897
1617967181.26912,-6.182159,31.28011989593506
1617967181.28474,-5.878143,31.295739889144897
1617967181.30037,-5.312256,31.31136989593506
1617967181.31599,-4.413788,31.326989889144897
1617967181.33162,-3.162292,31.34261989593506
1617967181.34724,-1.639374,31.358239889144897
1617967181.36287,-0.05441284,31.37386989593506
1617967181.3785,1.365967,31.38949990272522
1617967181.39412,2.444275,31.40511989593506
1617967181.40975,3.141724,31.42074990272522
1617967181.42537,3.547729,31.43636989593506
1617967181.441,3.771118,31.45199990272522
1617967181.45662,3.899323,31.46761989593506
1617967181.47225,3.888153,31.48324990272522
1617967181.48788,3.648865,31.49887990951538
1617967181.5035,3.099854,31.51449990272522
1617967181.51913,2.251923,31.53012990951538
1617967181.53475,1.222473,31.54574990272522
1617967181.55038,0.2199707,31.56137990951538
1617967181.566,-0.4926758,31.57699990272522
1617967181.58163,-0.7723694,31.59262990951538
1617967181.59726,-0.5621643,31.608259916305542
1617967181.61288,0.0249939,31.62387990951538
1617967181.62851,0.7810974,31.639509916305542
1617967181.64413,1.446899,31.65512990951538
1617967181.65976,1.841888,31.670759916305542
1617967181.67538,1.872253,31.68637990951538
1617967181.69101,1.595093,31.702009916305542
1617967181.70664,1.162872,31.717639923095703
1617967181.72226,0.7445679,31.733259916305542
1617967181.73789,0.4893188,31.748889923095703
1617967181.75351,0.438446,31.764509916305542
1617967181.76914,0.5707397,31.780139923095703
1617967181.78476,0.7810669,31.795759916305542
1617967181.80039,0.9963684,31.811389923095703
1617967181.81602,1.148621,31.827019929885864
1617967181.83164,1.184784,31.842639923095703
1617967181.84727,1.035065,31.858269929885864
1617967181.86289,0.600647,31.873889923095703
1617967181.87852,-0.1548767,31.889519929885864
1617967181.89414,-1.17099,31.905139923095703
1617967181.90977,-2.237732,31.920769929885864
1617967181.9254,-3.089172,31.936399936676025
1617967181.94102,-3.516876,31.952019929885864
1617967181.95665,-3.500061,31.967649936676025
1617967181.97227,-3.205811,31.983269929885864
1617967181.9879,-2.936615,31.998899936676025
1617967182.00352,-2.967438,32.014519929885864
1617967182.01915,-3.424042,32.030149936676025
1617967182.03478,-4.28363,32.04577994346619
1617967182.0504,-5.410187,32.061399936676025
1617967182.06603,-6.643005,32.07702994346619
1617967182.08165,-7.795258,32.092649936676025
1617967182.09728,-8.673798,32.10827994346619
1617967182.1129,-9.055969,32.123899936676025
1617967182.12853,-8.745667,32.13952994346619
1617967182.14416,-7.680939,32.15515995025635
1617967182.15978,-6.00528,32.17077994346619
1617967182.17541,-4.043945,32.18640995025635
1617967182.19103,-2.163849,32.20202994346619
1617967182.20666,-0.6627502,32.21765995025635
1617967182.22228,0.3890381,32.23327994346619
1617967182.23791,1.068176,32.24890995025635
1617967182.25354,1.528381,32.26453995704651
1617967182.26916,1.859467,32.28015995025635
1617967182.28479,2.054565,32.29578995704651
1617967182.30041,2.077667,32.31140995025635
1617967182.31604,1.929199,32.32703995704651
1617967182.33166,1.713959,32.34265995025635
1617967182.34729,1.595703,32.35828995704651
1617967182.36292,1.716095,32.37391996383667
1617967182.37854,2.140289,32.38953995704651
1617967182.39417,2.808777,32.40516996383667
1617967182.40979,3.574921,32.42078995704651
1617967182.42542,4.269379,32.43641996383667
1617967182.44104,4.732086,32.45203995704651
1617967182.45667,4.86911,32.46766996383667
1617967182.4723,4.691864,32.48329997062683
1617967182.48792,4.297516,32.49891996383667
1617967182.50355,3.856018,32.51454997062683
1617967182.51917,3.559692,32.53016996383667
1617967182.5348,3.542328,32.54579997062683
1617967182.55042,3.802643,32.56141996383667
1617967182.56605,4.198212,32.57704997062683
1617967182.58168,4.525146,32.59267997741699
1617967182.5973,4.584473,32.60829997062683
1617967182.61293,4.329681,32.62392997741699
1617967182.62855,3.841064,32.63954997062683
1617967182.64418,3.312531,32.65517997741699
1617967182.6598,2.911835,32.67079997062683
1617967182.67543,2.681732,32.68642997741699
1617967182.69106,2.523285,32.70205998420715
1617967182.70668,2.247009,32.71767997741699
1617967182.72231,1.686951,32.73330998420715
1617967182.73793,0.8097839,32.74892997741699
1617967182.75356,-0.2723999,32.76455998420715
1617967182.76918,-1.374344,32.78017997741699
1617967182.78481,-2.329468,32.79580998420715
1617967182.80044,-3.092621,32.811439990997314
1617967182.81606,-3.76976,32.82705998420715
1617967182.83169,-4.527649,32.842689990997314
1617967182.84731,-5.465668,32.85830998420715
1617967182.86294,-6.574448,32.873939990997314
1617967182.87856,-7.717484,32.88955998420715
1617967182.89419,-8.716873,32.905189990997314
1617967182.90982,-9.460312,32.920819997787476
1617967182.92544,-9.903122,32.936439990997314
1617967182.94107,-10.08789,32.952069997787476
1617967182.95669,-10.04326,32.967689990997314
1617967182.97232,-9.744415,32.983319997787476
1617967182.98794,-9.12529,32.998939990997314
1617967183.00357,-8.099075,33.014569997787476
1617967183.0192,-6.708954,33.03020000457764
1617967183.03482,-5.087616,33.045819997787476
1617967183.05045,-3.474304,33.06145000457764
1617967183.06607,-2.056931,33.077069997787476
1617967183.0817,-0.9247437,33.09270000457764
1617967183.09732,-0.04382324,33.108319997787476
1617967183.11295,0.7028503,33.12395000457764
1617967183.12858,1.399353,33.1395800113678
1617967183.1442,2.027313,33.15520000457764
1617967183.15983,2.495972,33.1708300113678
1617967183.17545,2.714462,33.18645000457764
1617967183.19108,2.647263,33.2020800113678
1617967183.20671,2.408783,33.21771001815796
1617967183.22233,2.184692,33.2333300113678
1617967183.23796,2.182236,33.24896001815796
1617967183.25358,2.502502,33.2645800113678
1617967183.26921,3.112305,33.28021001815796
1617967183.28483,3.847076,33.2958300113678
1617967183.30046,4.51709,33.31146001815796
1617967183.31609,4.989349,33.32709002494812
1617967183.33171,5.234726,33.34271001815796
1617967183.34734,5.314117,33.35834002494812
1617967183.36296,5.370712,33.37396001815796
1617967183.37859,5.538025,33.38959002494812
1617967183.39421,5.894424,33.40521001815796
1617967183.40984,6.44162,33.42084002494812
1617967183.42547,7.099487,33.43647003173828
1617967183.44109,7.739761,33.45209002494812
1617967183.45672,8.221848,33.46772003173828
1617967183.47234,8.396347,33.48334002494812
1617967183.48797,8.127518,33.49897003173828
1617967183.50359,7.391403,33.51459002494812
1617967183.51922,6.27327,33.53022003173828
1617967183.53485,4.996063,33.54584980010986
1617967183.55047,3.824402,33.56147003173828
1617967183.5661,2.950058,33.57709980010986
1617967183.58172,2.400085,33.59272003173828
1617967183.59735,2.055664,33.60834980010986
1617967183.61297,1.707047,33.62397003173828
1617967183.6286,1.193558,33.63959980010986
1617967183.64423,0.4936981,33.655229806900024
1617967183.65985,-0.2881012,33.67084980010986
1617967183.67548,-0.9911346,33.686479806900024
1617967183.6911,-1.539459,33.70209980010986
1617967183.70673,-1.972748,33.717729806900024
1617967183.72235,-2.401978,33.73334980010986
1617967183.73798,-2.932526,33.748979806900024
1617967183.75361,-3.570404,33.764609813690186
1617967183.76923,-4.203781,33.780229806900024
1617967183.78486,-4.679657,33.795859813690186
1617967183.80048,-4.910019,33.811479806900024
1617967183.81611,-4.986816,33.827109813690186
1617967183.83173,-5.125381,33.842729806900024
1617967183.84736,-5.575958,33.858359813690186
1617967183.86299,-6.445007,33.87398982048035
1617967183.87861,-7.593445,33.889609813690186
1617967183.89424,-8.61525,33.90523982048035
1617967183.90986,-9.029373,33.920859813690186
1617967183.92549,-8.48082,33.93648982048035
1617967183.94111,-6.945984,33.952109813690186
1617967183.95674,-4.741928,33.96773982048035
1617967183.97237,-2.373215,33.98336982727051
1617967183.98799,-0.2919769,33.99898982048035
1617967184.00362,1.305679,34.01461982727051
1617967184.01924,2.505981,34.03023982048035
1617967184.03487,3.528076,34.04586982727051
1617967184.05049,4.512405,34.06148982048035
1617967184.06612,5.430969,34.07711982727051
1617967184.08175,6.080658,34.09274983406067
1617967184.09737,6.300247,34.10836982727051
1617967184.113,6.103271,34.12399983406067
1617967184.12862,5.693329,34.13961982727051
1617967184.14425,5.366425,34.15524983406067
1617967184.15987,5.357452,34.17086982727051
1617967184.1755,5.729523,34.18649983406067
1617967184.19113,6.34935,34.20212984085083
1617967184.20675,7.024979,34.21774983406067
1617967184.22238,7.626236,34.23337984085083
1617967184.238,8.114532,34.24899983406067
1617967184.25363,8.538055,34.26462984085083
1617967184.26925,8.921555,34.28024983406067
1617967184.28488,9.230804,34.29587984085083
1617967184.30051,9.38031,34.31150984764099
1617967184.31613,9.309723,34.32712984085083
1617967184.33176,8.990295,34.34275984764099
1617967184.34738,8.479309,34.35837984085083
1617967184.36301,7.869965,34.37400984764099
1617967184.37863,7.25528,34.38962984085083
1617967184.39426,6.69545,34.40525984764099
1617967184.40989,6.195465,34.42088985443115
1617967184.42551,5.735535,34.43650984764099
1617967184.44114,5.274277,34.45213985443115
1617967184.45676,4.77916,34.46775984764099
1617967184.47239,4.2267,34.48338985443115
1617967184.48801,3.630539,34.49900984764099
1617967184.50364,2.992081,34.51463985443115
1617967184.51927,2.362656,34.53026986122131
1617967184.53489,1.786148,34.54588985443115
1617967184.55052,1.341324,34.56151986122131
1617967184.56614,1.094498,34.57713985443115
1617967184.58177,1.075439,34.59276986122131
1617967184.59739,1.246689,34.60838985443115
1617967184.61302,1.497925,34.62401986122131
1617967184.62865,1.693039,34.639649868011475
1617967184.64427,1.680832,34.65526986122131
1617967184.6599,1.405563,34.670899868011475
1617967184.67552,0.8707123,34.68651986122131
1617967184.69115,0.1205902,34.702149868011475
1617967184.70677,-0.7622986,34.71776986122131
1617967184.7224,-1.688675,34.733399868011475
1617967184.73803,-2.571579,34.749029874801636
1617967184.75365,-3.352783,34.764649868011475
1617967184.76928,-4.043793,34.780279874801636
1617967184.7849,-4.706482,34.795899868011475
1617967184.80053,-5.465912,34.811529874801636
1617967184.81615,-6.371796,34.827149868011475
1617967184.83178,-7.33194,34.842779874801636
1617967184.84741,-8.063095,34.8584098815918
1617967184.86303,-8.164352,34.874029874801636
1617967184.87866,-7.270584,34.8896598815918
1617967184.89428,-5.30307,34.905279874801636
1617967184.90991,-2.582977,34.9209098815918
1617967184.92553,0.1965179,34.936529874801636
1617967184.94116,2.150574,34.9521598815918
1617967184.95679,2.474243,34.96778988838196
1617967184.97241,0.7352905,34.9834098815918
1617967184.98804,-2.891037,34.99903988838196
1617967185.00366,-7.73851,35.0146598815918
1617967185.01929,-12.76819,35.03028988838196
1617967185.03491,-17.08881,35.0459098815918
1617967185.05054,-20.24791,35.06153988838196
1617967185.06617,-22.47188,35.07716989517212
1617967185.08179,-24.52527,35.09278988838196
1617967185.09742,-27.25595,35.10841989517212
1617967185.11304,-31.15685,35.12403988838196
1617967185.12867,-36.01276,35.13966989517212
1617967185.14429,-40.99031,35.15528988838196
1617967185.15992,-44.80663,35.17091989517212
1617967185.17555,-46.09813,35.18654990196228
1617967185.19117,-43.62613,35.20216989517212
1617967185.2068,-36.49899,35.21779990196228
1617967185.22242,-24.41675,35.23341989517212
1617967185.23805,-8.000427,35.24904990196228
1617967185.25367,10.99892,35.26466989517212
1617967185.2693,29.91893,35.28029990196228
1617967185.28493,45.87927,35.29592990875244
1617967185.30055,56.84071,35.31154990196228
1617967185.31618,62.40706,35.32717990875244
1617967185.3318,64.02258,35.34279990196228
1617967185.34743,64.2962,35.35842990875244
1617967185.36305,65.83669,35.37404990196228
1617967185.37868,70.14343,35.38967990875244
1617967185.39431,77.0692,35.4053099155426
1617967185.40993,85.13031,35.42092990875244
1617967185.42556,92.33356,35.4365599155426
1617967185.44118,97.1483,35.45217990875244
1617967185.45681,98.96136,35.4678099155426
1617967185.47244,98.07553,35.483439922332764
1617967185.48806,95.27643,35.4990599155426
1617967185.50369,91.31418,35.514689922332764
1617967185.51931,86.63184,35.5303099155426
1617967185.53494,81.30797,35.545939922332764
1617967185.55056,75.31886,35.5615599155426
1617967185.56619,68.66704,35.577189922332764
1617967185.58182,61.55067,35.592819929122925
1617967185.59744,54.24103,35.608439922332764
1617967185.61307,46.96809,35.624069929122925
1617967185.62869,39.75858,35.639689922332764
1617967185.64432,32.45366,35.655319929122925
1617967185.65994,24.8038,35.670939922332764
1617967185.67557,16.64058,35.686569929122925
1617967185.6912,7.987579,35.702199935913086
1617967185.70682,-0.9498291,35.717819929122925
1617967185.72245,-9.870438,35.733449935913086
1617967185.73807,-18.47508,35.749069929122925
1617967185.7537,-26.53889,35.764699935913086
1617967185.76932,-33.93839,35.780319929122925
1617967185.78495,-40.65935,35.795949935913086
1617967185.80058,-46.76416,35.81157994270325
1617967185.8162,-52.3345,35.827199935913086
1617967185.83183,-57.405,35.84282994270325
1617967185.84745,-61.84198,35.858449935913086
1617967185.86308,-65.33716,35.87407994270325
1617967185.8787,-67.48666,35.889699935913086
1617967185.89433,-67.97821,35.90532994270325
1617967185.90996,-66.80087,35.92095994949341
1617967185.92558,-64.32047,35.93657994270325
1617967185.94121,-61.17761,35.95220994949341
1617967185.95683,-58.02597,35.96782994270325
1617967185.97246,-55.23032,35.98345994949341
1617967185.98808,-52.73636,35.99907994270325
1617967186.00371,-50.15509,36.01470994949341
1617967186.01934,-47.02621,36.03033995628357
1617967186.03496,-43.1467,36.04595994949341
1617967186.05059,-38.64426,36.06158995628357
1617967186.06621,-33.9458,36.07720994949341
1617967186.08184,-29.556,36.09283995628357
1617967186.09746,-25.80826,36.10845994949341
1617967186.11309,-22.76401,36.12408995628357
1617967186.12872,-20.28482,36.13971996307373
1617967186.14434,-18.14343,36.15533995628357
1617967186.15997,-16.16769,36.17096996307373
1617967186.17559,-14.32919,36.18658995628357
1617967186.19122,-12.71875,36.20221996307373
1617967186.20684,-11.44308,36.21783995628357
1617967186.22247,-10.56839,36.23346996307373
1617967186.2381,-10.02917,36.24909996986389
1617967186.25372,-9.632385,36.26471996307373
1617967186.26935,-9.153748,36.28034996986389
1617967186.28497,-8.385345,36.29596996307373
1617967186.3006,-7.225311,36.31159996986389
1617967186.31622,-5.717926,36.32721996307373
1617967186.33185,-4.029724,36.34284996986389
1617967186.34748,-2.413086,36.35847997665405
1617967186.3631,-1.110291,36.37409996986389
1617967186.37873,-0.296875,36.38972997665405
1617967186.39435,-0.03826904,36.40534996986389
1617967186.40998,-0.2992249,36.42097997665405
1617967186.4256,-0.9139404,36.43659996986389
1617967186.44123,-1.687286,36.45222997665405
1617967186.45686,-2.422821,36.467859983444214
1617967186.47248,-2.959595,36.48347997665405
1617967186.48811,-3.222595,36.499109983444214
1617967186.50373,-3.200806,36.51472997665405
1617967186.51936,-2.933319,36.530359983444214
1617967186.53498,-2.50296,36.54597997665405
1617967186.55061,-2.068756,36.561609983444214
1617967186.56624,-1.805908,36.577239990234375
1617967186.58186,-1.937836,36.592859983444214
1617967186.59749,-2.617584,36.608489990234375
1617967186.61311,-3.847382,36.624109983444214
1617967186.62874,-5.393738,36.639739990234375
1617967186.64436,-6.830933,36.655359983444214
1617967186.65999,-7.674591,36.670989990234375
1617967186.67562,-7.576752,36.686619997024536
1617967186.69124,-6.513519,36.702239990234375
1617967186.70687,-4.743896,36.717869997024536
1617967186.72249,-2.733948,36.733489990234375
1617967186.73812,-0.960144,36.749119997024536
1617967186.75374,0.3082275,36.764739990234375
1617967186.76937,1.008118,36.780369997024536
1617967186.785,1.270844,36.7960000038147
1617967186.80062,1.268463,36.811619997024536
1617967186.81625,1.128998,36.8272500038147
1617967186.83187,0.8694153,36.842869997024536
1617967186.8475,0.4710999,36.8585000038147
1617967186.86312,-0.0546875,36.874119997024536
1617967186.87875,-0.6142578,36.8897500038147
1617967186.89438,-1.018585,36.90538001060486
1617967186.91,-1.091583,36.9210000038147
1617967186.92563,-0.7427368,36.93663001060486
1617967186.94125,-0.08425903,36.9522500038147
1617967186.95688,0.6364136,36.96788001060486
1617967186.9725,1.081696,36.9835000038147
1617967186.98813,1.037109,36.99913001060486
1617967187.00376,0.5337219,37.01476001739502
1617967187.01938,-0.160614,37.03038001060486
1617967187.03501,-0.6292419,37.04601001739502
1617967187.05063,-0.5749512,37.06163001060486
1617967187.06626,0.03314209,37.07726001739502
1617967187.08188,0.9413757,37.09288001060486
1617967187.09751,1.748199,37.10851001739502
1617967187.11314,2.09549,37.12414002418518
1617967187.12876,1.831421,37.13976001739502
1617967187.14439,1.084717,37.15539002418518
1617967187.16001,0.1463318,37.17101001739502
1617967187.17564,-0.6759644,37.18664002418518
1617967187.19126,-1.183197,37.20226001739502
1617967187.20689,-1.379059,37.21789002418518
1617967187.22252,-1.410065,37.23352003097534
1617967187.23814,-1.483154,37.24914002418518
1617967187.25377,-1.767426,37.26477003097534
1617967187.26939,-2.340576,37.28039002418518
1617967187.28502,-3.159058,37.29602003097534
1617967187.30064,-4.133453,37.31164002418518
1617967187.31627,-5.124939,37.32727003097534
1617967187.3319,-5.993561,37.342899799346924
1617967187.34752,-6.615845,37.35852003097534
1617967187.36315,-6.860107,37.374149799346924
1617967187.37877,-6.638824,37.38977003097534
1617967187.3944,-5.958344,37.405399799346924
1617967187.41002,-4.98645,37.42102003097534
1617967187.42565,-4.024445,37.436649799346924
1617967187.44128,-3.390198,37.452279806137085
1617967187.4569,-3.256683,37.467899799346924
1617967187.47253,-3.53302,37.483529806137085
1617967187.48815,-3.918152,37.499149799346924
1617967187.50378,-3.998566,37.514779806137085
1617967187.5194,-3.485504,37.530399799346924
1617967187.53503,-2.365112,37.546029806137085
1617967187.55066,-0.8502502,37.561659812927246
1617967187.56628,0.7149658,37.577279806137085
1617967187.58191,2.044891,37.592909812927246
1617967187.59753,3.043121,37.608529806137085
1617967187.61316,3.765411,37.624159812927246
1617967187.62878,4.310486,37.639779806137085
1617967187.64441,4.73407,37.655409812927246
1617967187.66004,4.98703,37.67103981971741
1617967187.67566,4.959198,37.686659812927246
1617967187.69129,4.583954,37.70228981971741
1617967187.70691,3.893646,37.717909812927246
1617967187.72254,3.020844,37.73353981971741
1617967187.73816,2.18396,37.749159812927246
1617967187.75379,1.544952,37.76478981971741
1617967187.76942,1.17981,37.78041982650757
1617967187.78504,1.069672,37.79603981971741
1617967187.80067,1.116943,37.81166982650757
1617967187.81629,1.216217,37.82728981971741
1617967187.83192,1.316467,37.84291982650757
1617967187.84754,1.418182,37.85853981971741
1617967187.86317,1.576752,37.87416982650757
1617967187.8788,1.844177,37.88979983329773
1617967187.89442,2.238556,37.90541982650757
1617967187.91005,2.725403,37.92104983329773
1617967187.92567,3.22287,37.93666982650757
1617967187.9413,3.62738,37.95229983329773
1617967187.95692,3.824249,37.96791982650757
1617967187.97255,3.787445,37.98354983329773
1617967187.98818,3.529968,37.99917984008789
1617967188.0038,3.155182,38.01479983329773
1617967188.01943,2.764038,38.03042984008789
1617967188.03505,2.444,38.04604983329773
1617967188.05068,2.192139,38.06167984008789
1617967188.06631,1.928528,38.07730984687805
1617967188.08193,1.500153,38.09292984008789
1617967188.09756,0.7749329,38.10855984687805
1617967188.11318,-0.2641907,38.12417984008789
1617967188.12881,-1.52121,38.13980984687805
1617967188.14443,-2.798309,38.15542984008789
1617967188.16006,-3.904602,38.17105984687805
1617967188.17569,-4.748596,38.18668985366821
1617967188.19131,-5.38559,38.20230984687805
1617967188.20694,-5.974426,38.21793985366821
1617967188.22256,-6.671051,38.23355984687805
1617967188.23819,-7.470581,38.24918985366821
1617967188.25381,-8.215302,38.26480984687805
1617967188.26944,-8.636719,38.28043985366821
1617967188.28507,-8.475616,38.296069860458374
1617967188.30069,-7.637238,38.31168985366821
1617967188.31632,-6.214874,38.327319860458374
1617967188.33194,-4.439117,38.34293985366821
1617967188.34757,-2.569153,38.358569860458374
1617967188.36319,-0.7973022,38.37418985366821
1617967188.37882,0.7680969,38.389819860458374
1617967188.39445,2.095032,38.405449867248535
1617967188.41007,3.137848,38.421069860458374
1617967188.4257,3.8638,38.436699867248535
1617967188.44132,4.264526,38.452319860458374
1617967188.45695,4.375641,38.467949867248535
1617967188.47257,4.308746,38.483569860458374
1617967188.4882,4.190826,38.499199867248535
1617967188.50383,4.121399,38.514829874038696
1617967188.51945,4.107361,38.530449867248535
1617967188.53508,4.084778,38.546079874038696
1617967188.5507,3.947388,38.561699867248535
1617967188.56633,3.640045,38.577329874038696
1617967188.58195,3.219025,38.592949867248535
1617967188.59758,2.790894,38.608579874038696
1617967188.61321,2.468018,38.62420988082886
1617967188.62883,2.292114,38.639829874038696
1617967188.64446,2.199249,38.65545988082886
1617967188.66008,2.080566,38.671079874038696
1617967188.67571,1.873474,38.68670988082886
1617967188.69133,1.599762,38.702329874038696
1617967188.70696,1.387695,38.71795988082886
1617967188.72259,1.376129,38.73358988761902
1617967188.73821,1.580978,38.74920988082886
1617967188.75384,1.899353,38.76483988761902
1617967188.76946,2.134995,38.78045988082886
1617967188.78509,2.12793,38.79608988761902
1617967188.80071,1.830185,38.81170988082886
1617967188.81634,1.323944,38.82733988761902
1617967188.83197,0.7425842,38.84296989440918
1617967188.84759,0.1847229,38.85858988761902
1617967188.86322,-0.3417816,38.87421989440918
1617967188.87884,-0.915802,38.88983988761902
1617967188.89447,-1.608231,38.90546989440918
1617967188.91009,-2.408844,38.92108988761902
1617967188.92572,-3.242889,38.93671989440918
1617967188.94135,-4.01062,38.95234990119934
1617967188.95697,-4.633881,38.96796989440918
1617967188.9726,-5.104782,38.98359990119934
1617967188.98822,-5.468628,38.99921989440918
1617967189.00385,-5.784241,39.01484990119934
1617967189.01947,-6.11113,39.03046989440918
1617967189.0351,-6.44075,39.04609990119934
1617967189.05073,-6.705414,39.0617299079895
1617967189.06635,-6.813843,39.07734990119934
1617967189.08198,-6.652756,39.0929799079895
1617967189.0976,-6.152527,39.10859990119934
1617967189.11323,-5.307053,39.1242299079895
1617967189.12885,-4.128891,39.13984990119934
1617967189.14448,-2.684509,39.1554799079895
1617967189.16011,-1.055023,39.17110991477966
1617967189.17573,0.6654205,39.1867299079895
1617967189.19136,2.323807,39.20235991477966
1617967189.20698,3.728226,39.2179799079895
1617967189.22261,4.685104,39.23360991477966
1617967189.23823,5.088257,39.2492299079895
1617967189.25386,4.988602,39.26485991477966
1617967189.26949,4.612045,39.280489921569824
1617967189.28511,4.234299,39.29610991477966
1617967189.30074,4.07164,39.311739921569824
1617967189.31636,4.146759,39.32735991477966
1617967189.33199,4.336639,39.342989921569824
1617967189.34761,4.429031,39.35860991477966
1617967189.36324,4.292953,39.374239921569824
1617967189.37887,3.896515,39.389869928359985
1617967189.39449,3.319214,39.405489921569824
1617967189.41012,2.680099,39.421119928359985
1617967189.42574,2.067108,39.436739921569824
1617967189.44137,1.555756,39.452369928359985
1617967189.45699,1.223419,39.467989921569824
1617967189.47262,1.165588,39.483619928359985
1617967189.48825,1.416885,39.49924993515015
1617967189.50387,1.942444,39.514869928359985
1617967189.5195,2.561295,39.53049993515015
1617967189.53512,3.065643,39.546119928359985
1617967189.55075,3.295181,39.56174993515015
1617967189.56637,3.201981,39.577369928359985
1617967189.582,2.887634,39.59299993515015
1617967189.59763,2.514282,39.60862994194031
1617967189.61325,2.212433,39.62424993515015
1617967189.62888,2.02742,39.63987994194031
1617967189.6445,1.91922,39.65549993515015
1617967189.66013,1.797104,39.67112994194031
1617967189.67575,1.563965,39.68674993515015
1617967189.69138,1.13623,39.70237994194031
1617967189.70701,0.4543915,39.71800994873047
1617967189.72263,-0.4856415,39.73362994194031
1617967189.73826,-1.634521,39.74925994873047
1617967189.75388,-2.868347,39.76487994194031
1617967189.76951,-4.014511,39.78050994873047
1617967189.78513,-4.94072,39.79612994194031
1617967189.80076,-5.612457,39.81175994873047
1617967189.81639,-6.090759,39.82738995552063
1617967189.83201,-6.534515,39.84300994873047
1617967189.84764,-7.133438,39.85863995552063
1617967189.86326,-8.000504,39.87425994873047
1617967189.87889,-9.158783,39.88988995552063
1617967189.89451,-10.49852,39.90550994873047
1617967189.91014,-11.76193,39.92113995552063
1617967189.92577,-12.59859,39.93676996231079
1617967189.94139,-12.66193,39.95238995552063
1617967189.95702,-11.74399,39.96801996231079
1617967189.97264,-9.885437,39.98363995552063
1617967189.98827,-7.419907,39.99926996231079
1617967190.00389,-4.791855,40.01488995552063
1617967190.01952,-2.451324,40.03051996231079
1617967190.03515,-0.6868896,40.04614996910095
1617967190.05077,0.4545441,40.06176996231079
1617967190.0664,1.079239,40.07739996910095
1617967190.08202,1.330215,40.09301996231079
1617967190.09765,1.299271,40.10864996910095
1617967190.11327,1.000992,40.12426996231079
1617967190.1289,0.4478149,40.13989996910095
1617967190.14453,-0.2864838,40.15552997589111
1617967190.16015,-1.003525,40.17114996910095
1617967190.17578,-1.45578,40.18677997589111
1617967190.1914,-1.434219,40.20239996910095
1617967190.20703,-0.8451843,40.21802997589111
1617967190.22266,0.2054443,40.233659982681274
1617967190.23828,1.464371,40.24927997589111
1617967190.25391,2.623047,40.264909982681274
1617967190.26953,3.433853,40.28052997589111
1617967190.28516,3.792664,40.296159982681274
1617967190.30078,3.748245,40.31177997589111
1617967190.31641,3.469879,40.327409982681274
1617967190.33204,3.177155,40.343039989471436
1617967190.34766,3.000504,40.358659982681274
1617967190.36329,2.987,40.374289989471436
1617967190.37891,3.131775,40.389909982681274
1617967190.39454,3.410782,40.405539989471436
1617967190.41016,3.819794,40.421159982681274
1617967190.42579,4.330978,40.436789989471436
1617967190.44142,4.875549,40.4524199962616
1617967190.45704,5.3358,40.468039989471436
1617967190.47267,5.573318,40.4836699962616
1617967190.48829,5.508316,40.499289989471436
1617967190.50392,5.173309,40.5149199962616
1617967190.51954,4.704697,40.530539989471436
1617967190.53517,4.302032,40.5461699962616
1617967190.5508,4.101608,40.56180000305176
1617967190.56642,4.098557,40.5774199962616
1617967190.58205,4.193497,40.59305000305176
1617967190.59767,4.204849,40.6086699962616
1617967190.6133,3.978226,40.62430000305176
1617967190.62892,3.467178,40.6399199962616
1617967190.64455,2.723236,40.65555000305176
1617967190.66018,1.892853,40.67118000984192
1617967190.6758,1.113708,40.68680000305176
1617967190.69143,0.4669647,40.70243000984192
1617967190.70705,-0.05204773,40.71805000305176
1617967190.72268,-0.495285,40.73368000984192
1617967190.7383,-0.9069824,40.74930000305176
1617967190.75393,-1.330078,40.76493000984192
1617967190.76956,-1.752274,40.78056001663208
1617967190.78518,-2.193451,40.79618000984192
1617967190.80081,-2.701645,40.81181001663208
1617967190.81643,-3.368958,40.82743000984192
1617967190.83206,-4.230438,40.84306001663208
1617967190.84768,-5.205994,40.85868000984192
1617967190.86331,-6.066147,40.87431001663208
1617967190.87894,-6.490356,40.88994002342224
1617967190.89456,-6.21283,40.90556001663208
1617967190.91019,-5.144379,40.92119002342224
1617967190.92581,-3.442764,40.93681001663208
1617967190.94144,-1.447342,40.95244002342224
1617967190.95706,0.469574,40.96806001663208
1617967190.97269,2.050842,40.98369002342224
1617967190.98832,3.246048,40.9993200302124
1617967191.00394,4.166183,41.01494002342224
1617967191.01957,4.954147,41.0305700302124
1617967191.03519,5.665268,41.04619002342224
1617967191.05082,6.19397,41.0618200302124
1617967191.06644,6.357239,41.07744002342224
1617967191.08207,6.035126,41.0930700302124
1617967191.0977,5.306564,41.10870003700256
1617967191.11332,4.463516,41.1243200302124
1617967191.12895,3.911301,41.13995003700256
1617967191.14457,3.938538,41.1555700302124
1617967191.1602,4.601761,41.17120003700256
1617967191.17582,5.701721,41.1868200302124
1617967191.19145,6.891586,41.20245003700256
1617967191.20708,7.850067,41.218079805374146
1617967191.2227,8.43811,41.23370003700256
1617967191.23833,8.666443,41.249329805374146
1617967191.25395,8.641617,41.26495003700256
1617967191.26958,8.491547,41.280579805374146
1617967191.2852,8.250427,41.29620003700256
1617967191.30083,7.941971,41.311829805374146
1617967191.31646,7.594818,41.32745981216431
1617967191.33208,7.282623,41.343079805374146
1617967191.34771,7.069321,41.35870981216431
1617967191.36333,6.975433,41.374329805374146
1617967191.37896,6.920235,41.38995981216431
1617967191.39458,6.747177,41.405579805374146
1617967191.41021,6.31324,41.42120981216431
1617967191.42584,5.575348,41.43683981895447
1617967191.44146,4.603767,41.45245981216431
1617967191.45709,3.576874,41.46808981895447
1617967191.47271,2.684662,41.48370981216431
1617967191.48834,2.042084,41.49933981895447
1617967191.50396,1.627045,41.51495981216431
1617967191.51959,1.325859,41.53058981895447
1617967191.53522,0.9867783,41.54621982574463
1617967191.55084,0.5367966,41.56183981895447
