timestamp,value,norm_ts
1618836798.02742,38.4314,0.17670011520385742
1618836798.04305,49.12097,0.19233012199401855
1618836798.05868,61.79773,0.2079601287841797
1618836798.0743,75.64331,0.22358012199401855
1618836798.08993,88.92163,0.2392101287841797
1618836798.10555,99.85681,0.25483012199401855
1618836798.12118,107.4812,0.2704601287841797
1618836798.1368,112.0812,0.28608012199401855
1618836798.15243,114.9835,0.3017101287841797
1618836798.16806,117.8669,0.3173401355743408
1618836798.18368,121.9332,0.3329601287841797
1618836798.19931,127.3763,0.3485901355743408
1618836798.21493,133.3368,0.3642101287841797
1618836798.23056,138.3485,0.3798401355743408
1618836798.24618,141.0005,0.3954601287841797
1618836798.26181,140.3713,0.4110901355743408
1618836798.27744,136.1279,0.42672014236450195
1618836798.29306,128.382,0.4423401355743408
1618836798.30869,117.4283,0.45797014236450195
1618836798.32431,103.5616,0.4735901355743408
1618836798.33994,87.00171,0.48922014236450195
1618836798.35556,67.98413,0.5048401355743408
1618836798.37119,46.81775,0.520470142364502
1618836798.38682,23.94287,0.5361001491546631
1618836798.40244,-0.02050781,0.551720142364502
1618836798.41807,-24.17969,0.5673501491546631
1618836798.43369,-47.32727,0.582970142364502
1618836798.44932,-68.07422,0.5986001491546631
1618836798.46494,-85.11792,0.614220142364502
1618836798.48057,-97.62952,0.6298501491546631
1618836798.4962,-105.5541,0.6454801559448242
1618836798.51182,-109.58,0.6611001491546631
1618836798.52745,-110.8251,0.6767301559448242
1618836798.54307,-110.3112,0.6923501491546631
1618836798.5587,-108.5823,0.7079801559448242
1618836798.57432,-105.5801,0.7236001491546631
1618836798.58995,-100.8745,0.7392301559448242
1618836798.60558,-93.97925,0.7548601627349854
1618836798.6212,-84.62524,0.7704801559448242
1618836798.63683,-72.97253,0.7861101627349854
1618836798.65245,-59.71887,0.8017301559448242
1618836798.66808,-46.26172,0.8173601627349854
1618836798.6837,-34.72437,0.8329801559448242
1618836798.69933,-27.59595,0.8486101627349854
1618836798.71496,-26.9082,0.8642401695251465
1618836798.73058,-33.22144,0.8798601627349854
1618836798.74621,-44.84424,0.8954901695251465
1618836798.76183,-57.97168,0.9111101627349854
1618836798.77746,-67.93738,0.9267401695251465
1618836798.79308,-71.04199,0.9423601627349854
1618836798.80871,-66.06348,0.9579901695251465
1618836798.82434,-54.62048,0.9736201763153076
1618836798.83996,-40.1853,0.9892401695251465
1618836798.85559,-26.34705,1.0048701763153076
1618836798.87121,-15.32104,1.0204901695251465
1618836798.88684,-7.467285,1.0361201763153076
1618836798.90246,-1.9198,1.0517401695251465
1618836798.91809,2.283203,1.0673701763153076
1618836798.93372,5.412964,1.0830001831054688
1618836798.94934,7.018921,1.0986201763153076
1618836798.96497,6.506226,1.1142501831054688
1618836798.98059,3.824219,1.1298701763153076
1618836798.99622,-0.3033447,1.1455001831054688
1618836799.01184,-4.659058,1.1611201763153076
1618836799.02747,-8.134155,1.1767501831054688
1618836799.0431,-10.21765,1.1923801898956299
1618836799.05872,-11.20618,1.2080001831054688
1618836799.07435,-11.9115,1.2236301898956299
1618836799.08997,-13.25964,1.2392501831054688
1618836799.1056,-15.87427,1.2548801898956299
1618836799.12122,-19.86353,1.2705001831054688
1618836799.13685,-24.79333,1.2861301898956299
1618836799.15248,-29.86084,1.301759958267212
1618836799.1681,-34.18066,1.3173801898956299
1618836799.18373,-37.08301,1.333009958267212
1618836799.19935,-38.29968,1.3486301898956299
1618836799.21498,-37.99109,1.364259958267212
1618836799.2306,-36.60107,1.3798801898956299
1618836799.24623,-34.61768,1.395509958267212
1618836799.26186,-32.26758,1.411139965057373
1618836799.27748,-29.48193,1.426759958267212
1618836799.29311,-26.00098,1.442389965057373
1618836799.30873,-21.63086,1.458009958267212
1618836799.32436,-16.4884,1.473639965057373
1618836799.33998,-11.047,1.489259958267212
1618836799.35561,-5.957275,1.504889965057373
1618836799.37124,-1.78772,1.5205199718475342
1618836799.38686,1.212769,1.536139965057373
1618836799.40249,3.329834,1.5517699718475342
1618836799.41811,4.994507,1.567389965057373
1618836799.43374,6.512817,1.5830199718475342
1618836799.44936,7.892456,1.598639965057373
1618836799.46499,8.920654,1.6142699718475342
1618836799.48062,9.281006,1.6298999786376953
1618836799.49624,8.87439,1.6455199718475342
1618836799.51187,7.741211,1.6611499786376953
1618836799.52749,6.060913,1.6767699718475342
1618836799.54312,4.234985,1.6923999786376953
1618836799.55874,2.564941,1.7080199718475342
1618836799.57437,1.154053,1.7236499786376953
1618836799.59,-0.1135254,1.7392799854278564
1618836799.60562,-1.421265,1.7548999786376953
1618836799.62125,-2.963867,1.7705299854278564
1618836799.63687,-4.749146,1.7861499786376953
1618836799.6525,-6.735596,1.8017799854278564
1618836799.66812,-8.924438,1.8173999786376953
1618836799.68375,-10.90955,1.8330299854278564
1618836799.69938,-12.45837,1.8486599922180176
1618836799.715,-13.67651,1.8642799854278564
1618836799.73063,-14.96643,1.8799099922180176
1618836799.74625,-16.78503,1.8955299854278564
1618836799.76188,-19.57922,1.9111599922180176
1618836799.7775,-23.32935,1.9267799854278564
1618836799.79313,-27.86023,1.9424099922180176
1618836799.80876,-32.90942,1.9580399990081787
1618836799.82438,-36.88721,1.9736599922180176
1618836799.84001,-38.49792,1.9892899990081787
1618836799.85563,-37.27472,2.0049099922180176
1618836799.87126,-33.70123,2.0205399990081787
1618836799.88688,-28.58044,2.0361599922180176
1618836799.90251,-22.8681,2.0517899990081787
1618836799.91814,-16.20728,2.06742000579834
1618836799.93376,-7.836853,2.0830399990081787
1618836799.94939,3.191284,2.09867000579834
1618836799.96501,20.20966,2.1142899990081787
1618836799.98064,45.42993,2.12992000579834
1618836799.99626,78.58704,2.1455399990081787
1618836800.01189,116.7888,2.16117000579834
1618836800.02752,156.0772,2.176800012588501
1618836800.04314,192.1608,2.19242000579834
1618836800.05877,223.5345,2.208050012588501
1618836800.07439,249.7174,2.22367000579834
1618836800.09002,270.8021,2.239300012588501
1618836800.10564,291.3436,2.25492000579834
1618836800.12127,315.1764,2.270550012588501
1618836800.1369,343.5792,2.286180019378662
1618836800.15252,374.9173,2.301800012588501
1618836800.16815,406.1596,2.317430019378662
1618836800.18377,432.9487,2.333050012588501
1618836800.1994,453.7547,2.348680019378662
1618836800.21502,466.9626,2.364300012588501
1618836800.23065,470.9028,2.379930019378662
1618836800.24628,469.8234,2.3955600261688232
1618836800.2619,467.8804,2.411180019378662
1618836800.27753,466.8798,2.4268100261688232
1618836800.29315,465.7482,2.442430019378662
1618836800.30878,462.5001,2.4580600261688232
1618836800.3244,454.4357,2.473680019378662
1618836800.34003,443.5743,2.4893100261688232
1618836800.35566,432.5095,2.5049400329589844
1618836800.37128,391.6919,2.5205600261688232
1618836800.38691,307.7092,2.5361900329589844
1618836800.40253,187.9921,2.5518100261688232
1618836800.41816,57.80453,2.5674400329589844
1618836800.43378,-57.31064,2.5830600261688232
1618836800.44941,-133.4094,2.5986900329589844
1618836800.46504,-181.5195,2.6143200397491455
1618836800.48066,-213.3079,2.6299400329589844
1618836800.49629,-236.6455,2.6455700397491455
1618836800.51191,-256.0746,2.6611900329589844
1618836800.52754,-269.5042,2.6768200397491455
1618836800.54316,-273.6895,2.6924400329589844
1618836800.55879,-268.8156,2.7080700397491455
1618836800.57442,-259.1869,2.7237000465393066
1618836800.59004,-250.6448,2.7393200397491455
1618836800.60567,-249.4641,2.7549500465393066
1618836800.62129,-256.2799,2.7705700397491455
1618836800.63692,-269.9021,2.7862000465393066
1618836800.65255,-288.397,2.8018300533294678
1618836800.66817,-305.6073,2.8174500465393066
1618836800.6838,-316.6852,2.8330800533294678
1618836800.69942,-320.4797,2.8487000465393066
1618836800.71505,-319.6948,2.8643300533294678
1618836800.73067,-318.6716,2.8799500465393066
1618836800.7463,-322.5003,2.8955800533294678
1618836800.76193,-332.3537,2.911210060119629
1618836800.77755,-348.584,2.9268300533294678
1618836800.79318,-371.3619,2.942460060119629
1618836800.8088,-397.8102,2.9580800533294678
1618836800.82443,-424.4186,2.973710060119629
1618836800.84005,-447.7162,2.9893300533294678
1618836800.85568,-464.388,3.004960060119629
1618836800.87131,-471.1271,3.02059006690979
1618836800.88693,-466.2051,3.036210060119629
1618836800.90256,-448.4456,3.05184006690979
1618836800.91818,-419.8765,3.067460060119629
1618836800.93381,-385.2398,3.08309006690979
1618836800.94943,-348.6648,3.098710060119629
1618836800.96506,-312.9821,3.11434006690979
1618836800.98069,-279.286,3.129970073699951
1618836800.99631,-247.366,3.14559006690979
1618836801.01194,-216.6282,3.161220073699951
1618836801.02756,-187.4771,3.17684006690979
1618836801.04319,-160.5679,3.192470073699951
1618836801.05881,-137.2696,3.20809006690979
1618836801.07444,-118.7756,3.223720073699951
1618836801.09007,-104.6826,3.2393500804901123
1618836801.10569,-93.39435,3.254970073699951
1618836801.12132,-82.8696,3.2706000804901123
1618836801.13694,-71.48914,3.286220073699951
1618836801.15257,-58.255,3.3018500804901123
1618836801.16819,-42.91449,3.317470073699951
1618836801.18382,-25.29285,3.3331000804901123
1618836801.19945,-5.369324,3.3487300872802734
1618836801.21507,16.64807,3.3643500804901123
1618836801.2307,40.30203,3.3799800872802734
1618836801.24632,64.81857,3.3956000804901123
1618836801.26195,89.32104,3.4112300872802734
1618836801.27757,113.061,3.4268500804901123
1618836801.2932,135.6837,3.4424800872802734
1618836801.30883,157.0926,3.4581100940704346
1618836801.32445,177.145,3.4737300872802734
1618836801.34008,195.1734,3.4893600940704346
1618836801.3557,209.7348,3.5049800872802734
1618836801.37133,218.8383,3.5206100940704346
1618836801.38695,220.5581,3.5362300872802734
1618836801.40258,213.9163,3.5518600940704346
1618836801.41821,199.4108,3.5674901008605957
1618836801.43383,179.0223,3.5831100940704346
1618836801.44946,155.6439,3.5987401008605957
1618836801.46508,132.1993,3.6143600940704346
1618836801.48071,110.9151,3.6299901008605957
1618836801.49633,92.9386,3.6456100940704346
1618836801.51196,78.45985,3.6612401008605957
1618836801.52759,67.08014,3.676870107650757
1618836801.54321,58.29091,3.6924901008605957
1618836801.55884,51.6407,3.708120107650757
1618836801.57446,46.68475,3.7237401008605957
1618836801.59009,42.82899,3.739370107650757
1618836801.60571,39.24475,3.7549901008605957
1618836801.62134,35.03545,3.770620107650757
1618836801.63697,29.52977,3.786250114440918
1618836801.65259,22.52521,3.801870107650757
1618836801.66822,14.37007,3.817500114440918
1618836801.68384,5.779251,3.833120107650757
1618836801.69947,-2.457092,3.848750114440918
1618836801.71509,-9.743225,3.864370107650757
1618836801.73072,-15.80731,3.880000114440918
1618836801.74635,-20.75697,3.895630121231079
1618836801.76197,-24.92615,3.911250114440918
1618836801.7776,-28.76068,3.926880121231079
1618836801.79322,-32.65533,3.942500114440918
1618836801.80885,-36.79904,3.958130121231079
1618836801.82447,-41.14922,3.973750114440918
1618836801.8401,-45.46355,3.989380121231079
1618836801.85573,-49.35446,4.00501012802124
1618836801.87135,-52.48421,4.020630121231079
1618836801.88698,-54.63876,4.03626012802124
1618836801.9026,-55.74976,4.051880121231079
1618836801.91823,-55.80765,4.06751012802124
1618836801.93385,-54.79755,4.083130121231079
1618836801.94948,-52.61357,4.09876012802124
1618836801.96511,-49.07822,4.114390134811401
1618836801.98073,-44.0851,4.13001012802124
1618836801.99636,-37.71494,4.145640134811401
1618836802.01198,-30.27202,4.16126012802124
1618836802.02761,-22.24103,4.176890134811401
1618836802.04323,-14.14352,4.19251012802124
1618836802.05886,-6.392708,4.208140134811401
1618836802.07449,0.7407379,4.2237701416015625
1618836802.09011,7.15815,4.239390134811401
1618836802.10574,12.81948,4.2550201416015625
1618836802.12136,17.6626,4.270640134811401
1618836802.13699,21.62637,4.2862701416015625
1618836802.15261,24.69141,4.301890134811401
1618836802.16824,26.92401,4.3175201416015625
1618836802.18387,28.46295,4.333150148391724
1618836802.19949,29.52726,4.3487701416015625
1618836802.21512,30.30389,4.364400148391724
1618836802.23074,30.95281,4.3800201416015625
1618836802.24637,31.5853,4.395650148391724
1618836802.26199,32.25871,4.4112701416015625
1618836802.27762,32.97305,4.426900148391724
1618836802.29325,33.65789,4.442530155181885
1618836802.30887,34.16224,4.458150148391724
1618836802.3245,34.26286,4.473780155181885
1618836802.34012,33.75237,4.489400148391724
1618836802.35575,32.59509,4.505030155181885
1618836802.37137,30.97076,4.520650148391724
1618836802.387,29.25146,4.536280155181885
1618836802.40263,27.90936,4.551910161972046
1618836802.41825,27.35998,4.567530155181885
1618836802.43388,27.76015,4.583160161972046
1618836802.4495,29.00452,4.598780155181885
1618836802.46513,30.74164,4.614410161972046
1618836802.48075,32.46514,4.630030155181885
1618836802.49638,33.51077,4.645660161972046
1618836802.51201,33.16586,4.661290168762207
1618836802.52763,30.74972,4.676910161972046
1618836802.54326,25.78661,4.692540168762207
1618836802.55888,18.13448,4.708160161972046
1618836802.57451,8.102676,4.723790168762207
1618836802.59013,-3.589119,4.739410161972046
1618836802.60576,-15.96278,4.755040168762207
1618836802.62139,-28.0546,4.770670175552368
1618836802.63701,-39.15878,4.786290168762207
1618836802.65264,-48.91097,4.801920175552368
1618836802.66826,-57.24459,4.817540168762207
1618836802.68389,-64.18375,4.833170175552368
1618836802.69951,-69.65839,4.848790168762207
1618836802.71514,-73.42806,4.864420175552368
1618836802.73077,-75.12407,4.880050182342529
1618836802.74639,-74.44252,4.895670175552368
1618836802.76202,-71.26632,4.911300182342529
1618836802.77764,-65.79279,4.926920175552368
1618836802.79327,-58.46938,4.942550182342529
1618836802.80889,-49.87522,4.958170175552368
1618836802.82452,-40.55021,4.973800182342529
1618836802.84015,-30.8864,4.98943018913269
1618836802.85577,-21.03468,5.005050182342529
1618836802.8714,-11.03337,5.02068018913269
1618836802.88702,-0.8945313,5.036300182342529
1618836802.90265,9.214794,5.05193018913269
1618836802.91828,18.94696,5.0675599575042725
1618836802.9339,27.78234,5.08318018913269
1618836802.94953,35.1607,5.0988099575042725
1618836802.96515,40.69728,5.11443018913269
1618836802.98078,44.32711,5.1300599575042725
1618836802.9964,46.29327,5.14568018913269
1618836803.01203,47.06347,5.1613099575042725
1618836803.02766,47.09635,5.176939964294434
1618836803.04328,46.67274,5.1925599575042725
1618836803.05891,45.86753,5.208189964294434
1618836803.07453,44.59161,5.2238099575042725
1618836803.09016,42.77997,5.239439964294434
1618836803.10578,40.49769,5.2550599575042725
1618836803.12141,37.97615,5.270689964294434
1618836803.13704,35.46426,5.286319971084595
1618836803.15266,33.15716,5.301939964294434
1618836803.16829,31.07732,5.317569971084595
1618836803.18391,29.08495,5.333189964294434
1618836803.19954,26.98598,5.348819971084595
1618836803.21516,24.61195,5.364439964294434
1618836803.23079,21.90862,5.380069971084595
1618836803.24642,18.93493,5.395699977874756
1618836803.26204,15.84524,5.411319971084595
1618836803.27767,12.82486,5.426949977874756
1618836803.29329,10.03365,5.442569971084595
1618836803.30892,7.578983,5.458199977874756
1618836803.32454,5.41782,5.473819971084595
1618836803.34017,3.389973,5.489449977874756
1618836803.3558,1.25386,5.505079984664917
1618836803.37142,-1.178185,5.520699977874756
1618836803.38705,-3.936607,5.536329984664917
1618836803.40267,-6.863792,5.551949977874756
1618836803.4183,-9.680347,5.567579984664917
1618836803.43392,-12.16124,5.583199977874756
1618836803.44955,-14.25907,5.598829984664917
1618836803.46518,-16.21266,5.614459991455078
1618836803.4808,-18.42063,5.630079984664917
1618836803.49643,-21.30462,5.645709991455078
1618836803.51205,-25.06562,5.661329984664917
1618836803.52768,-29.57491,5.676959991455078
1618836803.5433,-34.34353,5.692579984664917
1618836803.55893,-38.64963,5.708209991455078
1618836803.57456,-41.74131,5.723839998245239
1618836803.59018,-43.03803,5.739459991455078
1618836803.60581,-42.24534,5.755089998245239
1618836803.62143,-39.31272,5.770709991455078
1618836803.63706,-34.37606,5.786339998245239
1618836803.65268,-27.67002,5.801959991455078
1618836803.66831,-19.61887,5.817589998245239
1618836803.68394,-10.89893,5.8332200050354
1618836803.69956,-2.366405,5.848839998245239
1618836803.71519,5.092144,5.8644700050354
1618836803.73081,10.9547,5.880089998245239
1618836803.74644,15.2369,5.8957200050354
1618836803.76206,18.51339,5.911339998245239
1618836803.77769,21.49388,5.9269700050354
1618836803.79332,24.60326,5.9426000118255615
1618836803.80894,27.70097,5.9582200050354
1618836803.82457,30.19466,5.9738500118255615
1618836803.84019,31.48149,5.9894700050354
1618836803.85582,31.42361,6.0051000118255615
1618836803.87144,30.5273,6.0207200050354
1618836803.88707,29.6595,6.0363500118255615
1618836803.9027,29.50758,6.051980018615723
1618836803.91832,30.12798,6.0676000118255615
1618836803.93395,30.91145,6.083230018615723
1618836803.94957,30.99538,6.0988500118255615
1618836803.9652,29.86182,6.114480018615723
1618836803.98082,27.70999,6.1301000118255615
1618836803.99645,25.36987,6.145730018615723
1618836804.01208,23.7836,6.161360025405884
1618836804.0277,23.43846,6.176980018615723
1618836804.04333,24.00613,6.192610025405884
1618836804.05895,24.47297,6.208230018615723
1618836804.07458,23.67955,6.223860025405884
1618836804.0902,20.88974,6.239480018615723
1618836804.10583,16.16028,6.255110025405884
1618836804.12146,10.28585,6.270740032196045
1618836804.13708,4.371239,6.286360025405884
1618836804.15271,-0.7308922,6.301990032196045
1618836804.16833,-4.651035,6.317610025405884
1618836804.18396,-7.542042,6.333240032196045
1618836804.19958,-9.722668,6.348860025405884
1618836804.21521,-11.38905,6.364490032196045
1618836804.23084,-12.48749,6.380120038986206
1618836804.24646,-12.78682,6.395740032196045
1618836804.26209,-12.07859,6.411370038986206
1618836804.27771,-10.38956,6.426990032196045
1618836804.29334,-8.042068,6.442620038986206
1618836804.30896,-5.551407,6.458240032196045
1618836804.32459,-3.518044,6.473870038986206
1618836804.34022,-2.462032,6.489500045776367
1618836804.35584,-2.704643,6.505120038986206
1618836804.37147,-4.334286,6.520750045776367
1618836804.38709,-7.179932,6.536370038986206
1618836804.40272,-10.82084,6.552000045776367
1618836804.41834,-14.63315,6.567620038986206
1618836804.43397,-17.89552,6.583250045776367
1618836804.4496,-19.90068,6.598880052566528
1618836804.46522,-20.12445,6.614500045776367
1618836804.48085,-18.36023,6.630130052566528
1618836804.49647,-14.76608,6.645750045776367
1618836804.5121,-9.829224,6.661380052566528
1618836804.52772,-4.259399,6.677000045776367
1618836804.54335,1.208008,6.692630052566528
1618836804.55898,5.972435,6.7082600593566895
1618836804.5746,9.687508,6.723880052566528
1618836804.59023,12.27361,6.7395100593566895
1618836804.60585,13.81918,6.755130052566528
1618836804.62148,14.46922,6.7707600593566895
1618836804.6371,14.33,6.786380052566528
1618836804.65273,13.44877,6.8020100593566895
1618836804.66836,11.80869,6.817640066146851
1618836804.68398,9.396973,6.8332600593566895
1618836804.69961,6.235191,6.848890066146851
1618836804.71523,2.38662,6.8645100593566895
1618836804.73086,-2.019386,6.880140066146851
1618836804.74648,-6.777641,6.8957600593566895
1618836804.76211,-11.60348,6.911390066146851
1618836804.77774,-16.19376,6.927020072937012
1618836804.79336,-20.27267,6.942640066146851
1618836804.80899,-23.6937,6.958270072937012
1618836804.82461,-26.43904,6.973890066146851
1618836804.84024,-28.51616,6.989520072937012
1618836804.85586,-29.86016,7.005140066146851
1618836804.87149,-30.27576,7.020770072937012
1618836804.88712,-29.46228,7.036400079727173
1618836804.90274,-27.22608,7.052020072937012
1618836804.91837,-23.65945,7.067650079727173
1618836804.93399,-19.2545,7.083270072937012
1618836804.94962,-14.78741,7.098900079727173
1618836804.96524,-11.03872,7.114520072937012
1618836804.98087,-8.431618,7.130150079727173
1618836804.9965,-6.823685,7.145780086517334
1618836805.01212,-5.553566,7.161400079727173
1618836805.02775,-3.726563,7.177030086517334
1618836805.04337,-0.6099472,7.192650079727173
1618836805.059,3.993912,7.208280086517334
1618836805.07463,9.630394,7.223910093307495
1618836805.09025,15.36601,7.239530086517334
1618836805.10588,20.17572,7.255160093307495
1618836805.1215,23.30502,7.270780086517334
1618836805.13713,24.53973,7.286410093307495
1618836805.15275,24.23181,7.302030086517334
1618836805.16838,23.06452,7.317660093307495
1618836805.18401,21.68535,7.333290100097656
1618836805.19963,20.43378,7.348910093307495
1618836805.21526,19.23492,7.364540100097656
1618836805.23088,17.64994,7.380160093307495
1618836805.24651,15.20645,7.395790100097656
1618836805.26213,11.56693,7.411410093307495
1618836805.27776,6.799957,7.427040100097656
1618836805.29339,1.326859,7.442670106887817
1618836805.30901,-4.190292,7.458290100097656
1618836805.32464,-9.052818,7.473920106887817
1618836805.34026,-12.75265,7.489540100097656
1618836805.35589,-14.99753,7.505170106887817
1618836805.37151,-15.75961,7.520790100097656
1618836805.38714,-15.15917,7.536420106887817
1618836805.40277,-13.35639,7.5520501136779785
1618836805.41839,-10.483,7.567670106887817
1618836805.43402,-6.614182,7.5833001136779785
1618836805.44964,-1.814461,7.598920106887817
1618836805.46527,3.771263,7.6145501136779785
1618836805.48089,9.83136,7.630170106887817
1618836805.49652,15.8879,7.6458001136779785
1618836805.51215,21.4079,7.66143012046814
1618836805.52777,25.92461,7.6770501136779785
1618836805.5434,29.14841,7.69268012046814
1618836805.55902,31.02602,7.7083001136779785
1618836805.57465,31.69653,7.72393012046814
1618836805.59027,31.38867,7.7395501136779785
1618836805.6059,30.33816,7.75518012046814
1618836805.62153,28.78547,7.770810127258301
1618836805.63715,26.97774,7.78643012046814
1618836805.65278,25.23411,7.802060127258301
1618836805.6684,23.89792,7.81768012046814
1618836805.68403,23.23598,7.833310127258301
1618836805.69965,23.28722,7.84893012046814
1618836805.71528,23.81889,7.864560127258301
1618836805.73091,24.39599,7.880190134048462
1618836805.74653,24.53612,7.895810127258301
1618836805.76216,23.90939,7.911440134048462
1618836805.77778,22.43806,7.927060127258301
1618836805.79341,20.26677,7.942690134048462
1618836805.80903,17.66853,7.958310127258301
1618836805.82466,14.90585,7.973940134048462
1618836805.84029,12.12517,7.989570140838623
1618836805.85591,9.367737,8.005190134048462
1618836805.87154,6.578659,8.020820140838623
1618836805.88716,3.761475,8.036440134048462
1618836805.90279,0.9698639,8.052070140838623
1618836805.91841,-1.67157,8.067690134048462
1618836805.93404,-4.067703,8.083320140838623
1618836805.94967,-6.207733,8.098950147628784
1618836805.96529,-8.167938,8.114570140838623
1618836805.98092,-10.11313,8.130200147628784
1618836805.99654,-12.17365,8.145820140838623
1618836806.01217,-14.40927,8.161450147628784
1618836806.02779,-16.80862,8.177070140838623
1618836806.04342,-19.32811,8.192700147628784
1618836806.05905,-21.95313,8.208330154418945
1618836806.07467,-24.70847,8.223950147628784
1618836806.0903,-27.61198,8.239580154418945
1618836806.10592,-30.60283,8.255200147628784
1618836806.12155,-33.47,8.270830154418945
1618836806.13717,-35.8647,8.286450147628784
1618836806.1528,-37.40176,8.302080154418945
1618836806.16843,-37.79054,8.317710161209106
1618836806.18405,-36.92795,8.333330154418945
1618836806.19968,-34.92239,8.348960161209106
1618836806.2153,-32.0118,8.364580154418945
1618836806.23093,-28.41925,8.380210161209106
1618836806.24655,-24.29491,8.395830154418945
1618836806.26218,-19.68852,8.411460161209106
1618836806.27781,-14.62209,8.427090167999268
1618836806.29343,-9.236069,8.442710161209106
1618836806.30906,-3.814865,8.458340167999268
1618836806.32468,1.248138,8.473960161209106
1618836806.34031,5.593536,8.489590167999268
1618836806.35593,9.003296,8.505210161209106
1618836806.37156,11.45967,8.520840167999268
1618836806.38719,13.12241,8.536470174789429
1618836806.40281,14.18631,8.552090167999268
1618836806.41844,14.82848,8.567720174789429
1618836806.43406,15.12297,8.583340167999268
1618836806.44969,15.0497,8.598970174789429
1618836806.46531,14.54204,8.614590167999268
1618836806.48094,13.44621,8.630220174789429
1618836806.49657,11.57938,8.64585018157959
1618836806.51219,8.813843,8.661470174789429
1618836806.52782,5.163025,8.67710018157959
1618836806.54344,0.8763885,8.692720174789429
1618836806.55907,-3.543945,8.70835018157959
1618836806.57469,-7.527832,8.723970174789429
1618836806.59032,-10.61224,8.73960018157959
1618836806.60595,-12.58122,8.755230188369751
1618836806.62157,-13.55325,8.77085018157959
1618836806.6372,-13.83266,8.786480188369751
1618836806.65282,-13.76425,8.80210018157959
1618836806.66845,-13.60477,8.817730188369751
1618836806.68407,-13.52548,8.83335018157959
1618836806.6997,-13.6273,8.848980188369751
1618836806.71533,-14.02599,8.864609956741333
1618836806.73095,-14.82166,8.880230188369751
1618836806.74658,-16.01965,8.895859956741333
1618836806.7622,-17.48354,8.911480188369751
1618836806.77783,-18.91583,8.927109956741333
1618836806.79345,-19.9823,8.942730188369751
1618836806.80908,-20.43916,8.958359956741333
1618836806.82471,-20.30141,8.973989963531494
1618836806.84033,-19.86586,8.989609956741333
1618836806.85596,-19.62332,9.005239963531494
1618836806.87158,-20.08882,9.020859956741333
1618836806.88721,-21.60921,9.036489963531494
1618836806.90283,-24.23859,9.052109956741333
1618836806.91846,-27.67271,9.067739963531494
1618836806.93409,-31.31526,9.083369970321655
1618836806.94971,-34.44174,9.098989963531494
1618836806.96534,-36.39746,9.114619970321655
1618836806.98096,-36.76076,9.130239963531494
1618836806.99659,-35.41255,9.145869970321655
1618836807.01221,-32.48285,9.161489963531494
1618836807.02784,-28.25281,9.177119970321655
1618836807.04347,-23.07463,9.192749977111816
1618836807.05909,-17.27847,9.208369970321655
1618836807.07472,-11.16328,9.223999977111816
1618836807.09034,-5.012909,9.239619970321655
1618836807.10597,0.8986664,9.255249977111816
1618836807.12159,6.279312,9.270869970321655
1618836807.13722,10.88065,9.286499977111816
1618836807.15285,14.52353,9.302129983901978
1618836807.16847,17.15839,9.317749977111816
1618836807.1841,18.87546,9.333379983901978
1618836807.19972,19.86043,9.348999977111816
1618836807.21535,20.34447,9.364629983901978
1618836807.23097,20.51334,9.380249977111816
1618836807.2466,20.48796,9.395879983901978
1618836807.26223,20.25943,9.411509990692139
1618836807.27785,19.77238,9.427129983901978
1618836807.29348,18.92004,9.442759990692139
1618836807.3091,17.67766,9.458379983901978
1618836807.32473,16.10468,9.474009990692139
1618836807.34035,14.3705,9.489629983901978
1618836807.35598,12.67426,9.505259990692139
1618836807.37161,11.17844,9.5208899974823
1618836807.38723,9.946243,9.536509990692139
1618836807.40286,8.93866,9.5521399974823
1618836807.41848,8.07341,9.567759990692139
1618836807.43411,7.234756,9.5833899974823
1618836807.44973,6.344635,9.599009990692139
1618836807.46536,5.317764,9.6146399974823
1618836807.48099,4.073349,9.630270004272461
1618836807.49661,2.536926,9.6458899974823
1618836807.51224,0.6867676,9.661520004272461
1618836807.52786,-1.402649,9.6771399974823
1618836807.54349,-3.52475,9.692770004272461
1618836807.55911,-5.42691,9.7083899974823
1618836807.57474,-6.91684,9.724020004272461
1618836807.59037,-7.983704,9.739650011062622
1618836807.60599,-8.863922,9.755270004272461
1618836807.62162,-9.974564,9.770900011062622
1618836807.63724,-11.74023,9.786520004272461
1618836807.65287,-14.4097,9.802150011062622
1618836807.66849,-17.90753,9.817770004272461
1618836807.68412,-21.82289,9.833400011062622
1618836807.69975,-25.49792,9.849030017852783
1618836807.71537,-28.24554,9.864650011062622
1618836807.731,-29.48141,9.880280017852783
1618836807.74662,-28.88449,9.895900011062622
1618836807.76225,-26.4294,9.911530017852783
1618836807.77788,-22.34126,9.927160024642944
1618836807.7935,-17.02716,9.942780017852783
1618836807.80913,-10.98743,9.958410024642944
1618836807.82475,-4.752121,9.974030017852783
1618836807.84038,1.243729,9.989660024642944
1618836807.856,6.680038,10.005280017852783
1618836807.87163,11.43195,10.020910024642944
1618836807.88726,15.54749,10.036540031433105
1618836807.90288,19.1646,10.052160024642944
1618836807.91851,22.427,10.067790031433105
1618836807.93413,25.36983,10.083410024642944
1618836807.94976,27.90938,10.099040031433105
1618836807.96538,29.86763,10.114660024642944
1618836807.98101,31.10439,10.130290031433105
1618836807.99664,31.57726,10.145920038223267
1618836808.01226,31.35999,10.161540031433105
1618836808.02789,30.63496,10.177170038223267
1618836808.04351,29.65892,10.192790031433105
1618836808.05914,28.66277,10.208420038223267
1618836808.07476,27.80896,10.224040031433105
1618836808.09039,27.15559,10.239670038223267
1618836808.10602,26.61604,10.255300045013428
1618836808.12164,26.03183,10.270920038223267
1618836808.13727,25.21486,10.286550045013428
1618836808.15289,24.02635,10.302170038223267
1618836808.16852,22.44322,10.317800045013428
1618836808.18414,20.52289,10.333420038223267
1618836808.19977,18.36853,10.349050045013428
1618836808.2154,16.0338,10.364680051803589
1618836808.23102,13.53867,10.380300045013428
1618836808.24665,10.89656,10.395930051803589
1618836808.26227,8.151474,10.411550045013428
1618836808.2779,5.399033,10.427180051803589
1618836808.29352,2.748306,10.442800045013428
1618836808.30915,0.2457733,10.458430051803589
1618836808.32478,-2.176071,10.47406005859375
1618836808.3404,-4.639984,10.489680051803589
1618836808.35603,-7.263596,10.50531005859375
1618836808.37165,-10.06532,10.520930051803589
1618836808.38728,-12.95058,10.53656005859375
1618836808.4029,-15.8291,10.552180051803589
1618836808.41853,-18.70506,10.56781005859375
1618836808.43416,-21.73161,10.583440065383911
1618836808.44978,-25.11897,10.59906005859375
1618836808.46541,-28.98782,10.614690065383911
1618836808.48103,-33.16663,10.63031005859375
1618836808.49666,-37.14076,10.645940065383911
1618836808.51228,-40.19972,10.66156005859375
1618836808.52791,-41.64299,10.677190065383911
1618836808.54354,-41.08212,10.692820072174072
1618836808.55916,-38.51047,10.708440065383911
1618836808.57479,-34.29167,10.724070072174072
1618836808.59041,-28.93304,10.739690065383911
1618836808.60604,-22.91994,10.755320072174072
1618836808.62166,-16.55795,10.770940065383911
1618836808.63729,-10.00153,10.786570072174072
1618836808.65292,-3.364288,10.802200078964233
1618836808.66854,3.156693,10.817820072174072
1618836808.68417,9.213058,10.833450078964233
1618836808.69979,14.37259,10.849070072174072
1618836808.71542,18.26535,10.864700078964233
1618836808.73104,20.73697,10.880320072174072
1618836808.74667,21.92104,10.895950078964233
1618836808.7623,22.16673,10.911580085754395
1618836808.77792,21.87331,10.927200078964233
1618836808.79355,21.32106,10.942830085754395
1618836808.80917,20.59642,10.958450078964233
1618836808.8248,19.63701,10.974080085754395
1618836808.84042,18.35905,10.989700078964233
1618836808.85605,16.77475,11.005330085754395
1618836808.87168,15.02794,11.020960092544556
1618836808.8873,13.36023,11.036580085754395
1618836808.90293,11.99353,11.052210092544556
1618836808.91855,11.01431,11.067830085754395
1618836808.93418,10.37109,11.083460092544556
1618836808.9498,9.908463,11.099080085754395
1618836808.96543,9.438492,11.114710092544556
1618836808.98106,8.821548,11.130340099334717
1618836808.99668,8.00322,11.145960092544556
1618836809.01231,6.972183,11.161590099334717
1618836809.02793,5.773056,11.177210092544556
1618836809.04356,4.46492,11.192840099334717
1618836809.05918,3.115585,11.208460092544556
1618836809.07481,1.799194,11.224090099334717
1618836809.09044,0.5694427,11.239720106124878
1618836809.10606,-0.5636292,11.255340099334717
1618836809.12169,-1.604416,11.270970106124878
1618836809.13731,-2.58757,11.286590099334717
1618836809.15294,-3.58139,11.302220106124878
1618836809.16856,-4.657791,11.317840099334717
1618836809.18419,-5.862442,11.333470106124878
1618836809.19982,-7.228104,11.349100112915039
1618836809.21544,-8.742081,11.364720106124878
1618836809.23107,-10.37308,11.380350112915039
1618836809.24669,-12.10245,11.395970106124878
1618836809.26232,-13.9407,11.411600112915039
1618836809.27794,-15.88759,11.427220106124878
1618836809.29357,-17.97835,11.442850112915039
1618836809.3092,-20.22241,11.4584801197052
1618836809.32482,-22.59346,11.474100112915039
1618836809.34045,-25.02197,11.4897301197052
1618836809.35607,-27.33476,11.505350112915039
1618836809.3717,-29.24561,11.5209801197052
1618836809.38732,-30.33833,11.536600112915039
1618836809.40295,-30.16252,11.5522301197052
1618836809.41858,-28.35927,11.567860126495361
1618836809.4342,-24.84599,11.5834801197052
1618836809.44983,-19.89038,11.599110126495361
1618836809.46545,-14.07782,11.6147301197052
1618836809.48108,-8.119522,11.630360126495361
1618836809.4967,-2.586319,11.6459801197052
1618836809.51233,2.237061,11.661610126495361
1618836809.52796,6.372177,11.677240133285522
1618836809.54358,10.00232,11.692860126495361
1618836809.55921,13.24992,11.708490133285522
1618836809.57483,16.04895,11.724110126495361
1618836809.59046,18.15781,11.739740133285522
1618836809.60608,19.30257,11.755360126495361
1618836809.62171,19.36679,11.770990133285522
1618836809.63734,18.52707,11.786620140075684
1618836809.65296,17.16022,11.802240133285522
1618836809.66859,15.74042,11.817870140075684
1618836809.68421,14.65822,11.833490133285522
1618836809.69984,14.0714,11.849120140075684
1618836809.71546,13.92236,11.864740133285522
1618836809.73109,13.97011,11.880370140075684
1618836809.74672,13.96739,11.896000146865845
1618836809.76234,13.76498,11.911620140075684
1618836809.77797,13.38632,11.927250146865845
1618836809.79359,12.9182,11.942870140075684
1618836809.80922,12.41362,11.958500146865845
1618836809.82484,11.80721,11.974120140075684
1618836809.84047,10.89511,11.989750146865845
1618836809.8561,9.48877,12.005380153656006
1618836809.87172,7.519409,12.021000146865845
1618836809.88735,5.1138,12.036630153656006
1618836809.90297,2.509766,12.052250146865845
1618836809.9186,-0.09332275,12.067880153656006
1618836809.93423,-2.685791,12.083510160446167
1618836809.94985,-5.431709,12.099130153656006
1618836809.96548,-8.549599,12.114760160446167
1618836809.9811,-12.10875,12.130380153656006
1618836809.99673,-15.85902,12.146010160446167
1618836810.01235,-19.26482,12.161630153656006
1618836810.02798,-21.69804,12.177260160446167
1618836810.04361,-22.76157,12.192890167236328
1618836810.05923,-22.51208,12.208510160446167
1618836810.07486,-21.55096,12.224140167236328
1618836810.09048,-20.81306,12.239760160446167
1618836810.10611,-21.18553,12.255390167236328
1618836810.12173,-23.17513,12.271010160446167
1618836810.13736,-26.61127,12.286640167236328
1618836810.15299,-30.74857,12.30227017402649
1618836810.16861,-34.52174,12.317890167236328
1618836810.18424,-36.99061,12.33352017402649
1618836810.19986,-37.61781,12.349140167236328
1618836810.21549,-36.41962,12.36477017402649
1618836810.23111,-33.78486,12.380390167236328
1618836810.24674,-30.19793,12.39602017402649
1618836810.26237,-26.05476,12.41165018081665
1618836810.27799,-21.5502,12.42727017402649
1618836810.29362,-16.86149,12.44290018081665
1618836810.30924,-12.24765,12.45852017402649
1618836810.32487,-8.148743,12.47415018081665
1618836810.34049,-5.000496,12.48977017402649
1618836810.35612,-3.017357,12.50540018081665
1618836810.37175,-1.958473,12.521030187606812
1618836810.38737,-1.170364,12.53665018081665
1618836810.403,0.2025986,12.552280187606812
1618836810.41862,2.803154,12.56790018081665
1618836810.43425,6.783249,12.583530187606812
1618836810.44987,11.7144,12.59915018081665
1618836810.4655,16.7891,12.614780187606812
1618836810.48113,21.11475,12.630409955978394
1618836810.49675,24.11881,12.646030187606812
1618836810.51238,25.60563,12.661659955978394
1618836810.528,25.76561,12.677280187606812
1618836810.54363,24.87833,12.692909955978394
1618836810.55925,23.26063,12.708530187606812
1618836810.57488,21.19384,12.724159955978394
1618836810.59051,19.02509,12.739789962768555
1618836810.60613,17.20692,12.755409955978394
1618836810.62176,16.20281,12.771039962768555
1618836810.63738,16.28192,12.786659955978394
1618836810.65301,17.32186,12.802289962768555
1618836810.66863,18.81111,12.817909955978394
1618836810.68426,20.01739,12.833539962768555
1618836810.69989,20.36255,12.849169969558716
1618836810.71551,19.6316,12.864789962768555
1618836810.73114,18.0391,12.880419969558716
1618836810.74676,16.0812,12.896039962768555
1618836810.76239,14.25834,12.911669969558716
1618836810.77801,12.94765,12.927289962768555
1618836810.79364,12.30386,12.942919969558716
1618836810.80927,12.46841,12.958549976348877
1618836810.82489,13.50624,12.974169969558716
1618836810.84052,15.41443,12.989799976348877
1618836810.85614,17.90719,13.005419969558716
1618836810.87177,20.35808,13.021049976348877
1618836810.88739,21.88109,13.036669969558716
1618836810.90302,21.66794,13.052299976348877
1618836810.91865,19.28671,13.067929983139038
1618836810.93427,14.87274,13.083549976348877
1618836810.9499,9.077599,13.099179983139038
1618836810.96552,2.878822,13.114799976348877
1618836810.98115,-2.764351,13.130429983139038
1618836810.99677,-7.081387,13.146049976348877
1618836811.0124,-9.632412,13.161679983139038
1618836811.02803,-10.29946,13.1773099899292
1618836811.04365,-9.267365,13.192929983139038
1618836811.05928,-6.970905,13.2085599899292
1618836811.0749,-4.017208,13.224179983139038
1618836811.09053,-1.02438,13.2398099899292
1618836811.10615,1.554958,13.255429983139038
1618836811.12178,3.631672,13.2710599899292
1618836811.13741,5.578941,13.28668999671936
1618836811.15303,8.092606,13.3023099899292
1618836811.16866,11.81746,13.31793999671936
1618836811.18428,16.98357,13.3335599899292
1618836811.19991,23.19537,13.34918999671936
1618836811.21553,29.50934,13.3648099899292
1618836811.23116,34.81545,13.38043999671936
1618836811.24679,38.30707,13.396070003509521
1618836811.26241,39.77365,13.41168999671936
1618836811.27804,39.58205,13.427320003509521
1618836811.29366,38.35285,13.44293999671936
1618836811.30929,36.612,13.458570003509521
1618836811.32491,34.55201,13.47418999671936
1618836811.34054,32.12102,13.489820003509521
1618836811.35617,29.25102,13.505450010299683
1618836811.37179,26.07315,13.521070003509521
1618836811.38742,22.92231,13.536700010299683
1618836811.40304,20.16311,13.552320003509521
1618836811.41867,17.98848,13.567950010299683
1618836811.43429,16.34167,13.583570003509521
1618836811.44992,14.96819,13.599200010299683
1618836811.46555,13.61456,13.614830017089844
1618836811.48117,12.13653,13.630450010299683
1618836811.4968,10.44077,13.646080017089844
1618836811.51242,8.471428,13.661700010299683
1618836811.52805,6.086617,13.677330017089844
1618836811.54367,3.165215,13.692950010299683
1618836811.5593,-0.3001862,13.708580017089844
1618836811.57493,-4.062965,13.724210023880005
1618836811.59055,-7.64286,13.739830017089844
1618836811.60618,-10.55147,13.755460023880005
1618836811.6218,-12.51648,13.771080017089844
1618836811.63743,-13.6356,13.786710023880005
1618836811.65305,-14.31709,13.802330017089844
1618836811.66868,-15.1124,13.817960023880005
1618836811.68431,-16.46433,13.833590030670166
1618836811.69993,-18.58971,13.849210023880005
1618836811.71556,-21.48827,13.864840030670166
1618836811.73118,-24.98869,13.880460023880005
1618836811.74681,-28.80615,13.896090030670166
1618836811.76243,-32.53292,13.911710023880005
1618836811.77806,-35.68308,13.927340030670166
1618836811.79369,-37.71374,13.942970037460327
1618836811.80931,-38.177,13.958590030670166
1618836811.82494,-36.79169,13.974220037460327
1618836811.84056,-33.58823,13.989840030670166
1618836811.85619,-28.85709,14.005470037460327
1618836811.87181,-23.08546,14.021090030670166
1618836811.88744,-16.85344,14.036720037460327
1618836811.90307,-10.72307,14.052350044250488
1618836811.91869,-5.091705,14.067970037460327
1618836811.93432,-0.1861267,14.083600044250488
1618836811.94994,3.997261,14.099220037460327
1618836811.96557,7.621941,14.114850044250488
1618836811.98119,10.9093,14.130470037460327
1618836811.99682,13.97288,14.146100044250488
1618836812.01245,16.69431,14.16173005104065
1618836812.02807,18.75437,14.177350044250488
1618836812.0437,19.764,14.19298005104065
1618836812.05932,19.48581,14.208600044250488
1618836812.07495,17.97935,14.22423005104065
1618836812.09057,15.59317,14.239850044250488
1618836812.1062,12.87322,14.25548005104065
1618836812.12183,10.31362,14.27111005783081
1618836812.13745,8.235321,14.28673005104065
1618836812.15308,6.676468,14.30236005783081
1618836812.1687,5.506363,14.31798005104065
1618836812.18433,4.460625,14.33361005783081
1618836812.19995,3.269264,14.34923005104065
1618836812.21558,1.716232,14.36486005783081
1618836812.23121,-0.3496552,14.380490064620972
1618836812.24683,-2.985413,14.39611005783081
1618836812.26246,-6.154404,14.411740064620972
1618836812.27808,-9.755447,14.42736005783081
1618836812.29371,-13.61694,14.442990064620972
1618836812.30933,-17.49559,14.45861005783081
1618836812.32496,-21.12195,14.474240064620972
1618836812.34059,-24.24612,14.489870071411133
1618836812.35621,-26.76675,14.505490064620972
1618836812.37184,-28.81546,14.521120071411133
1618836812.38746,-30.76991,14.536740064620972
1618836812.40309,-33.1731,14.552370071411133
1618836812.41872,-36.50755,14.568000078201294
1618836812.43434,-40.99088,14.583620071411133
1618836812.44997,-46.45438,14.599250078201294
1618836812.46559,-52.47289,14.614870071411133
1618836812.48122,-58.59749,14.630500078201294
1618836812.49684,-64.66304,14.646120071411133
1618836812.51247,-70.95081,14.661750078201294
1618836812.5281,-78.07888,14.677380084991455
1618836812.54372,-86.67518,14.693000078201294
1618836812.55935,-96.99475,14.708630084991455
1618836812.57497,-108.7483,14.724250078201294
1618836812.5906,-121.0901,14.739880084991455
1618836812.60622,-132.9044,14.755500078201294
1618836812.62185,-143.1923,14.771130084991455
1618836812.63748,-151.3634,14.786760091781616
1618836812.6531,-157.4476,14.802380084991455
1618836812.66873,-162.029,14.818010091781616
1618836812.68435,-166.0252,14.833630084991455
1618836812.69998,-170.3552,14.849260091781616
1618836812.7156,-175.6084,14.864880084991455
1618836812.73123,-181.8911,14.880510091781616
1618836812.74686,-188.8765,14.896140098571777
1618836812.76248,-196.1051,14.911760091781616
1618836812.77811,-203.3233,14.927390098571777
1618836812.79373,-210.7609,14.943010091781616
1618836812.80936,-219.1008,14.958640098571777
1618836812.82498,-229.2254,14.974260091781616
1618836812.84061,-241.7896,14.989890098571777
1618836812.85624,-256.8563,15.005520105361938
1618836812.87186,-273.6614,15.021140098571777
1618836812.88749,-290.6171,15.036770105361938
1618836812.90311,-305.4202,15.052390098571777
1618836812.91874,-315.2628,15.068020105361938
1618836812.93436,-317.1503,15.083640098571777
1618836812.94999,-308.418,15.099270105361938
1618836812.96562,-287.2424,15.1149001121521
1618836812.98124,-253.1168,15.130520105361938
1618836812.99687,-207.0117,15.1461501121521
1618836813.01249,-151.0652,15.161770105361938
1618836813.02812,-87.95862,15.1774001121521
1618836813.04374,-20.14902,15.193020105361938
1618836813.05937,50.54965,15.2086501121521
1618836813.075,122.8542,15.22428011894226
1618836813.09062,195.3843,15.2399001121521
1618836813.10625,266.0764,15.25553011894226
1618836813.12187,331.9171,15.2711501121521
1618836813.1375,389.4447,15.28678011894226
1618836813.15312,435.6624,15.3024001121521
1618836813.16875,468.9678,15.31803011894226
1618836813.18438,489.6494,15.333660125732422
1618836813.2,499.7608,15.34928011894226
1618836813.21563,502.4336,15.364910125732422
1618836813.23125,501.0885,15.38053011894226
1618836813.24688,498.7596,15.396160125732422
1618836813.2625,497.6028,15.41178011894226
1618836813.27813,498.7835,15.427410125732422
1618836813.29376,502.4324,15.443040132522583
1618836813.30938,507.672,15.458660125732422
1618836813.32501,512.7999,15.474290132522583
1618836813.34063,515.4752,15.489910125732422
1618836813.35626,512.9985,15.505540132522583
1618836813.37188,502.621,15.521160125732422
1618836813.38751,481.9656,15.536790132522583
1618836813.40314,449.5034,15.552420139312744
1618836813.41876,405.1768,15.568040132522583
1618836813.43439,350.9865,15.583670139312744
1618836813.45001,290.9825,15.599290132522583
1618836813.46564,230.5531,15.614920139312744
1618836813.48126,174.9899,15.630540132522583
1618836813.49689,127.9019,15.646170139312744
1618836813.51252,90.33813,15.661800146102905
1618836813.52814,60.9437,15.677420139312744
1618836813.54377,37.17273,15.693050146102905
1618836813.55939,16.76871,15.708670139312744
1618836813.57502,-1.325592,15.724300146102905
1618836813.59064,-16.97815,15.739920139312744
1618836813.60627,-29.71829,15.755550146102905
1618836813.6219,-39.65411,15.771180152893066
1618836813.63752,-47.8425,15.786800146102905
1618836813.65315,-55.91544,15.802430152893066
1618836813.66877,-65.23563,15.818050146102905
1618836813.6844,-76.21732,15.833680152893066
1618836813.70002,-88.13467,15.849300146102905
1618836813.71565,-99.65579,15.864930152893066
1618836813.73128,-109.4877,15.880560159683228
1618836813.7469,-116.9269,15.896180152893066
1618836813.76253,-122.0121,15.911810159683228
1618836813.77815,-125.2879,15.927430152893066
1618836813.79378,-127.3787,15.943060159683228
1618836813.8094,-128.6767,15.958680152893066
1618836813.82503,-129.1731,15.974310159683228
1618836813.84066,-128.5272,15.989940166473389
1618836813.85628,-126.3379,16.005560159683228
1618836813.87191,-122.4205,16.02119016647339
1618836813.88753,-116.9653,16.036810159683228
1618836813.90316,-110.5831,16.05244016647339
1618836813.91878,-104.0437,16.068060159683228
1618836813.93441,-98.02438,16.08369016647339
1618836813.95004,-92.81473,16.09932017326355
1618836813.96566,-88.33614,16.11494016647339
1618836813.98129,-84.31618,16.13057017326355
1618836813.99691,-80.61226,16.14619016647339
1618836814.01254,-77.35556,16.16182017326355
1618836814.02816,-74.95435,16.17744016647339
1618836814.04379,-73.85254,16.19307017326355
1618836814.05942,-74.2543,16.20870018005371
1618836814.07504,-76.03032,16.22432017326355
1618836814.09067,-78.78153,16.23995018005371
1618836814.10629,-82.02486,16.25557017326355
1618836814.12192,-85.37115,16.27120018005371
1618836814.13754,-88.53113,16.28682017326355
1618836814.15317,-91.2057,16.30245018005371
1618836814.1688,-92.95159,16.318080186843872
1618836814.18442,-93.19403,16.33370018005371
1618836814.20005,-91.37413,16.349330186843872
1618836814.21567,-87.21426,16.36495018005371
1618836814.2313,-80.86833,16.380580186843872
1618836814.24692,-72.89854,16.39620018005371
1618836814.26255,-64.10439,16.411830186843872
1618836814.27818,-55.23819,16.427459955215454
1618836814.2938,-46.86184,16.443080186843872
1618836814.30943,-39.32335,16.458709955215454
1618836814.32505,-32.7717,16.474330186843872
1618836814.34068,-27.25548,16.489959955215454
1618836814.3563,-22.74874,16.505580186843872
1618836814.37193,-19.14705,16.521209955215454
1618836814.38756,-16.24804,16.536839962005615
1618836814.40318,-13.83799,16.552459955215454
1618836814.41881,-11.74725,16.568089962005615
1618836814.43443,-9.991547,16.583709955215454
1618836814.45006,-8.731239,16.599339962005615
1618836814.46568,-8.164886,16.614959955215454
1618836814.48131,-8.38588,16.630589962005615
1618836814.49694,-9.2892,16.646219968795776
1618836814.51256,-10.5542,16.661839962005615
1618836814.52819,-11.79895,16.677469968795776
1618836814.54381,-12.71167,16.693089962005615
1618836814.55944,-13.09325,16.708719968795776
1618836814.57506,-12.86293,16.724339962005615
1618836814.59069,-12.06569,16.739969968795776
1618836814.60632,-10.78789,16.755599975585938
1618836814.62194,-9.180252,16.771219968795776
1618836814.63757,-7.427139,16.786849975585938
1618836814.65319,-5.735123,16.802469968795776
1618836814.66882,-4.255066,16.818099975585938
1618836814.68444,-3.025101,16.833719968795776
1618836814.70007,-1.95311,16.849349975585938
1618836814.7157,-0.8959656,16.8649799823761
1618836814.73132,0.2195435,16.880599975585938
1618836814.74695,1.279114,16.8962299823761
1618836814.76257,1.970795,16.911849975585938
1618836814.7782,1.916718,16.9274799823761
1618836814.79382,0.8258972,16.943099975585938
1618836814.80945,-1.332764,16.9587299823761
1618836814.82508,-4.335815,16.97435998916626
1618836814.8407,-7.799225,16.9899799823761
1618836814.85633,-11.34679,17.00560998916626
1618836814.87195,-14.76515,17.0212299823761
1618836814.88758,-18.03758,17.03685998916626
1618836814.90321,-21.31194,17.05248999595642
1618836814.91883,-24.80144,17.06810998916626
1618836814.93446,-28.70743,17.08373999595642
1618836814.95008,-33.14012,17.09935998916626
1618836814.96571,-38.06323,17.11498999595642
1618836814.98133,-43.23349,17.13060998916626
1618836814.99696,-48.21841,17.14623999595642
1618836815.01259,-52.41093,17.161870002746582
1618836815.02821,-55.1624,17.17748999595642
1618836815.04384,-55.93651,17.193120002746582
1618836815.05946,-54.51682,17.20873999595642
1618836815.07509,-51.02521,17.224370002746582
1618836815.09071,-45.94476,17.23998999595642
1618836815.10634,-39.92747,17.255620002746582
1618836815.12197,-33.65457,17.271250009536743
1618836815.13759,-27.61615,17.286870002746582
1618836815.15322,-22.08304,17.302500009536743
1618836815.16884,-17.10265,17.318120002746582
1618836815.18447,-12.58501,17.333750009536743
1618836815.20009,-8.4272,17.349370002746582
1618836815.21572,-4.580658,17.365000009536743
1618836815.23135,-1.102249,17.380630016326904
1618836815.24697,1.868896,17.396250009536743
1618836815.2626,4.176804,17.411880016326904
1618836815.27822,5.758652,17.427500009536743
1618836815.29385,6.605392,17.443130016326904
1618836815.30947,6.817856,17.458750009536743
1618836815.3251,6.526138,17.474380016326904
1618836815.34073,5.891449,17.490010023117065
1618836815.35635,5.07666,17.505630016326904
1618836815.37198,4.235596,17.521260023117065
1618836815.3876,3.485138,17.536880016326904
1618836815.40323,2.882248,17.552510023117065
1618836815.41885,2.415543,17.568130016326904
1618836815.43448,2.019318,17.583760023117065
1618836815.45011,1.579041,17.599390029907227
1618836815.46573,0.9841614,17.615010023117065
1618836815.48136,0.1401215,17.630640029907227
1618836815.49698,-0.9988556,17.646260023117065
1618836815.51261,-2.404144,17.661890029907227
1618836815.52823,-4.005936,17.677510023117065
1618836815.54386,-5.690826,17.693140029907227
1618836815.55949,-7.343582,17.708770036697388
1618836815.57511,-8.890549,17.724390029907227
1618836815.59074,-10.35341,17.740020036697388
1618836815.60636,-11.81694,17.755640029907227
1618836815.62199,-13.40292,17.771270036697388
1618836815.63761,-15.20306,17.786890029907227
1618836815.65324,-17.2391,17.802520036697388
1618836815.66887,-19.45533,17.81815004348755
1618836815.68449,-21.72923,17.833770036697388
1618836815.70012,-23.93978,17.84940004348755
1618836815.71574,-26.03286,17.865020036697388
1618836815.73137,-28.04301,17.88065004348755
1618836815.74699,-30.14835,17.896270036697388
1618836815.76262,-32.60957,17.91190004348755
1618836815.77825,-35.66506,17.92753005027771
1618836815.79387,-39.37997,17.94315004348755
1618836815.8095,-43.50971,17.95878005027771
1618836815.82512,-47.4408,17.97440004348755
1618836815.84075,-50.32571,17.99003005027771
1618836815.85637,-51.32475,18.00565004348755
1618836815.872,-49.86669,18.02128005027771
1618836815.88763,-45.90168,18.03691005706787
1618836815.90325,-39.86668,18.05253005027771
1618836815.91888,-32.5099,18.06816005706787
1618836815.9345,-24.63585,18.08378005027771
1618836815.95013,-16.86256,18.09941005706787
1618836815.96575,-9.521164,18.11503005027771
1618836815.98138,-2.720104,18.13066005706787
1618836815.99701,3.526917,18.146290063858032
1618836816.01263,9.205894,18.16191005706787
1618836816.02826,14.20301,18.177540063858032
1618836816.04388,18.38515,18.19316005706787
1618836816.05951,21.64052,18.208790063858032
1618836816.07513,23.98062,18.22441005706787
1618836816.09076,25.53528,18.240040063858032
1618836816.10639,26.48276,18.255670070648193
1618836816.12201,27.01277,18.271290063858032
1618836816.13764,27.20927,18.286920070648193
1618836816.15326,27.12456,18.302540063858032
1618836816.16889,26.77536,18.318170070648193
1618836816.18451,26.22682,18.333790063858032
1618836816.20014,25.57449,18.349420070648193
1618836816.21577,24.93429,18.365050077438354
1618836816.23139,24.34675,18.380670070648193
1618836816.24702,23.787,18.396300077438354
1618836816.26264,23.18324,18.411920070648193
1618836816.27827,22.44952,18.427550077438354
1618836816.29389,21.55943,18.443170070648193
1618836816.30952,20.55402,18.458800077438354
1618836816.32515,19.48319,18.474430084228516
1618836816.34077,18.34172,18.490050077438354
1618836816.3564,17.07361,18.505680084228516
1618836816.37202,15.54329,18.521300077438354
1618836816.38765,13.65647,18.536930084228516
1618836816.40327,11.41257,18.552550077438354
1618836816.4189,8.902611,18.568180084228516
1618836816.43453,6.230232,18.583810091018677
1618836816.45015,3.474792,18.599430084228516
1618836816.46578,0.6555862,18.615060091018677
1618836816.4814,-2.284126,18.630680084228516
1618836816.49703,-5.415535,18.646310091018677
1618836816.51265,-8.797234,18.661930084228516
1618836816.52828,-12.43785,18.677560091018677
1618836816.54391,-16.33472,18.693190097808838
1618836816.55953,-20.50951,18.708810091018677
1618836816.57516,-24.92997,18.724440097808838
1618836816.59078,-29.43923,18.740060091018677
1618836816.60641,-33.65891,18.755690097808838
1618836816.62203,-36.96914,18.771310091018677
1618836816.63766,-38.62362,18.786940097808838
1618836816.65329,-38.02825,18.802570104599
1618836816.66891,-34.93436,18.818190097808838
1618836816.68454,-29.5717,18.833820104599
1618836816.70016,-22.56766,18.849440097808838
1618836816.71579,-14.69768,18.865070104599
1618836816.73141,-6.666962,18.880690097808838
1618836816.74704,1.047623,18.896320104599
1618836816.76267,8.217865,18.91195011138916
1618836816.77829,14.79143,18.927570104599
1618836816.79392,20.76213,18.94320011138916
1618836816.80954,26.12434,18.958820104599
1618836816.82517,30.87727,18.97445011138916
1618836816.84079,34.99855,18.990070104599
1618836816.85642,38.48477,19.00570011138916
1618836816.87205,41.32759,19.02133011817932
1618836816.88767,43.53294,19.03695011138916
1618836816.9033,45.18146,19.05258011817932
1618836816.91892,46.41821,19.06820011138916
1618836816.93455,47.45004,19.08383011817932
1618836816.95017,48.48694,19.09945011138916
1618836816.9658,49.62842,19.11508011817932
1618836816.98143,50.88043,19.130710124969482
1618836816.99705,52.21913,19.14633011817932
1618836817.01268,53.6701,19.161960124969482
1618836817.0283,55.36015,19.17758011817932
1618836817.04393,57.43811,19.193210124969482
1618836817.05956,59.93483,19.208840131759644
1618836817.07518,62.60567,19.224460124969482
1618836817.09081,64.97617,19.240090131759644
1618836817.10643,66.44521,19.255710124969482
1618836817.12206,66.54388,19.271340131759644
1618836817.13768,65.1337,19.286960124969482
1618836817.15331,62.42262,19.302590131759644
1618836817.16894,58.88499,19.318220138549805
1618836817.18456,55.03275,19.333840131759644
1618836817.20019,51.19232,19.349470138549805
1618836817.21581,47.45064,19.365090131759644
1618836817.23144,43.66417,19.380720138549805
1618836817.24706,39.58644,19.396340131759644
1618836817.26269,35.03358,19.411970138549805
1618836817.27832,29.94052,19.427600145339966
1618836817.29394,24.38663,19.443220138549805
1618836817.30957,18.50084,19.458850145339966
1618836817.32519,12.40807,19.474470138549805
1618836817.34082,6.158737,19.490100145339966
1618836817.35644,-0.2845001,19.505720138549805
1618836817.37207,-6.97699,19.521350145339966
1618836817.3877,-13.9527,19.536980152130127
1618836817.40332,-21.14909,19.552600145339966
1618836817.41895,-28.44278,19.568230152130127
1618836817.43457,-35.61197,19.583850145339966
1618836817.4502,-42.37451,19.599480152130127
1618836817.46582,-48.40132,19.615100145339966
1618836817.48145,-53.29984,19.630730152130127
1618836817.49708,-56.64839,19.646360158920288
1618836817.5127,-58.04623,19.661980152130127
1618836817.52833,-57.21036,19.677610158920288
1618836817.54395,-54.1012,19.693230152130127
1618836817.55958,-48.95766,19.708860158920288
1618836817.5752,-42.29866,19.724480152130127
1618836817.59083,-34.77588,19.740110158920288
1618836817.60646,-27.02036,19.75574016571045
1618836817.62208,-19.47812,19.771360158920288
1618836817.63771,-12.35899,19.78699016571045
1618836817.65333,-5.679276,19.802610158920288
1618836817.66896,0.6263123,19.81824016571045
1618836817.68458,6.566849,19.833860158920288
1618836817.70021,12.0367,19.84949016571045
1618836817.71584,16.84241,19.86512017250061
1618836817.73146,20.77861,19.88074016571045
1618836817.74709,23.72986,19.89637017250061
1618836817.76271,25.72235,19.91199016571045
1618836817.77834,26.87141,19.92762017250061
1618836817.79396,27.37505,19.94324016571045
1618836817.80959,27.43683,19.95887017250061
1618836817.82522,27.24402,19.97450017929077
1618836817.84084,26.95021,19.99012017250061
1618836817.85647,26.64853,20.00575017929077
1618836817.87209,26.4015,20.02137017250061
1618836817.88772,26.2422,20.03700017929077
1618836817.90334,26.16647,20.05262017250061
1618836817.91897,26.16991,20.06825017929077
1618836817.9346,26.19893,20.083880186080933
1618836817.95022,26.19215,20.09950017929077
1618836817.96585,26.0298,20.115130186080933
1618836817.98147,25.5621,20.13075017929077
1618836817.9971,24.67293,20.146380186080933
1618836818.01272,23.28206,20.16200017929077
1618836818.02835,21.36171,20.177630186080933
1618836818.04398,18.95206,20.193259954452515
1618836818.0596,16.18106,20.208880186080933
1618836818.07523,13.24568,20.224509954452515
1618836818.09085,10.29782,20.240130186080933
1618836818.10648,7.412514,20.255759954452515
1618836818.1221,4.551331,20.271380186080933
1618836818.13773,1.64389,20.287009954452515
1618836818.15336,-1.414001,20.302639961242676
1618836818.16898,-4.6614,20.318259954452515
1618836818.18461,-8.102234,20.333889961242676
1618836818.20023,-11.68813,20.349509954452515
1618836818.21586,-15.31679,20.365139961242676
1618836818.23148,-18.91899,20.380759954452515
1618836818.24711,-22.43382,20.396389961242676
1618836818.26274,-25.86995,20.412019968032837
1618836818.27836,-29.25517,20.427639961242676
1618836818.29399,-32.71255,20.443269968032837
1618836818.30961,-36.44225,20.458889961242676
1618836818.32524,-40.59,20.474519968032837
1618836818.34086,-45.10126,20.490139961242676
1618836818.35649,-49.60804,20.505769968032837
1618836818.37212,-53.52943,20.521399974822998
1618836818.38774,-56.20341,20.537019968032837
1618836818.40337,-57.16599,20.552649974822998
1618836818.41899,-56.03581,20.568269968032837
1618836818.43462,-52.83298,20.583899974822998
1618836818.45024,-48.0035,20.599519968032837
1618836818.46587,-42.27531,20.615149974822998
1618836818.4815,-36.40073,20.63077998161316
1618836818.49712,-30.93268,20.646399974822998
1618836818.51275,-26.32478,20.66202998161316
1618836818.52837,-22.65336,20.677649974822998
1618836818.544,-19.92322,20.69327998161316
1618836818.55962,-17.61058,20.708899974822998
1618836818.57525,-15.3233,20.72452998161316
1618836818.59088,-13.13076,20.74015998840332
1618836818.6065,-11.52337,20.75577998161316
1618836818.62213,-11.11122,20.77140998840332
1618836818.63775,-12.10262,20.78702998161316
1618836818.65338,-14.54177,20.80265998840332
1618836818.669,-17.76679,20.81827998161316
1618836818.68463,-21.15029,20.83390998840332
1618836818.70026,-23.4946,20.84953999519348
1618836818.71588,-24.09154,20.86515998840332
1618836818.73151,-23.13923,20.88078999519348
1618836818.74713,-21.4889,20.89640998840332
1618836818.76276,-20.16622,20.91203999519348
1618836818.77838,-19.56779,20.92765998840332
1618836818.79401,-19.85419,20.94328999519348
1618836818.80964,-20.01311,20.958920001983643
1618836818.82526,-18.80389,20.97453999519348
1618836818.84089,-13.88171,20.990170001983643
1618836818.85651,-3.289627,21.00578999519348
1618836818.87214,13.59605,21.021420001983643
1618836818.88776,35.87075,21.03703999519348
1618836818.90339,61.23116,21.052670001983643
1618836818.91902,87.07439,21.068300008773804
1618836818.93464,110.7416,21.083920001983643
1618836818.95027,131.5827,21.099550008773804
1618836818.96589,142.6404,21.115170001983643
1618836818.98152,139.6616,21.130800008773804
1618836818.99714,123.7186,21.146420001983643
1618836819.01277,101.2156,21.162050008773804
1618836819.0284,79.43722,21.177680015563965
1618836819.04402,61.62693,21.193300008773804
1618836819.05965,51.826,21.208930015563965
1618836819.07527,46.61119,21.224550008773804
1618836819.0909,43.79279,21.240180015563965
1618836819.10652,42.90251,21.255800008773804
1618836819.12215,45.80887,21.271430015563965
1618836819.13778,54.97973,21.287060022354126
1618836819.1534,69.10193,21.302680015563965
1618836819.16903,87.2412,21.318310022354126
1618836819.18465,107.7211,21.333930015563965
1618836819.20028,128.5054,21.349560022354126
1618836819.2159,146.6126,21.365180015563965
1618836819.23153,159.9177,21.380810022354126
1618836819.24716,166.7729,21.396440029144287
1618836819.26278,167.3483,21.412060022354126
1618836819.27841,162.8631,21.427690029144287
1618836819.29403,154.5312,21.443310022354126
1618836819.30966,143.1525,21.458940029144287
1618836819.32528,128.4743,21.474560022354126
1618836819.34091,110.1051,21.490190029144287
1618836819.35654,87.85176,21.50582003593445
1618836819.37216,63.42002,21.521440029144287
1618836819.38779,39.59663,21.53707003593445
1618836819.40341,19.78535,21.552690029144287
1618836819.41904,6.177841,21.56832003593445
1618836819.43466,-1.422775,21.583940029144287
1618836819.45029,-5.185486,21.59957003593445
1618836819.46592,-8.354088,21.61520004272461
1618836819.48154,-13.32246,21.63082003593445
1618836819.49717,-20.84308,21.64645004272461
1618836819.51279,-29.42233,21.66207003593445
1618836819.52842,-36.79105,21.67770004272461
1618836819.54404,-41.01036,21.69332003593445
1618836819.55967,-41.52959,21.70895004272461
1618836819.5753,-39.35954,21.72458004951477
1618836819.59092,-36.0731,21.74020004272461
1618836819.60655,-33.10207,21.75583004951477
1618836819.62217,-30.96815,21.77145004272461
1618836819.6378,-29.42656,21.78708004951477
1618836819.65342,-27.69405,21.80270004272461
1618836819.66905,-25.22488,21.81833004951477
1618836819.68468,-22.05948,21.83396005630493
1618836819.7003,-18.83562,21.84958004951477
1618836819.71593,-16.57178,21.86521005630493
1618836819.73155,-16.10315,21.88083004951477
1618836819.74718,-17.85577,21.89646005630493
1618836819.76281,-21.65314,21.912090063095093
1618836819.77843,-26.87726,21.92771005630493
1618836819.79406,-32.68082,21.943340063095093
1618836819.80968,-38.38596,21.95896005630493
1618836819.82531,-43.77603,21.974590063095093
1618836819.84093,-49.04868,21.99021005630493
1618836819.85656,-54.66547,22.005840063095093
1618836819.87219,-60.94397,22.021470069885254
1618836819.88781,-67.8775,22.037090063095093
1618836819.90344,-75.00125,22.052720069885254
1618836819.91906,-81.56186,22.068340063095093
1618836819.93469,-86.77734,22.083970069885254
1618836819.95031,-90.11569,22.099590063095093
1618836819.96594,-91.46729,22.115220069885254
1618836819.98157,-91.0863,22.130850076675415
1618836819.99719,-89.39529,22.146470069885254
1618836820.01282,-86.7807,22.162100076675415
1618836820.02844,-83.4299,22.177720069885254
1618836820.04407,-79.40115,22.193350076675415
1618836820.05969,-74.67883,22.208970069885254
1618836820.07532,-69.41455,22.224600076675415
1618836820.09095,-63.89877,22.240230083465576
1618836820.10657,-58.5473,22.255850076675415
1618836820.1222,-53.72906,22.271480083465576
1618836820.13782,-49.66525,22.287100076675415
1618836820.15345,-46.39133,22.302730083465576
1618836820.16907,-43.80426,22.318350076675415
1618836820.1847,-41.78964,22.333980083465576
1618836820.20033,-40.26434,22.349610090255737
1618836820.21595,-39.20459,22.365230083465576
1618836820.23158,-38.55188,22.380860090255737
1618836820.2472,-38.18274,22.396480083465576
1618836820.26283,-37.89117,22.412110090255737
1618836820.27845,-37.46875,22.427730083465576
1618836820.29408,-36.76593,22.443360090255737
1618836820.30971,-35.79651,22.4589900970459
1618836820.32533,-34.66199,22.474610090255737
1618836820.34096,-33.51855,22.4902400970459
1618836820.35658,-32.47211,22.505860090255737
1618836820.37221,-31.55322,22.5214900970459
1618836820.38783,-30.72375,22.537110090255737
1618836820.40346,-29.90918,22.5527400970459
1618836820.41909,-29.12152,22.56837010383606
1618836820.43471,-28.44806,22.5839900970459
1618836820.45034,-28.0318,22.59962010383606
1618836820.46596,-28.01147,22.6152400970459
1618836820.48159,-28.44299,22.63087010383606
1618836820.49721,-29.28973,22.6464900970459
1618836820.51284,-30.44196,22.66212010383606
1618836820.52847,-31.771,22.67775011062622
1618836820.54409,-33.21613,22.69337010383606
1618836820.55972,-34.78693,22.70900011062622
1618836820.57534,-36.51361,22.72462010383606
1618836820.59097,-38.41107,22.74025011062622
1618836820.60659,-40.4715,22.75587010383606
1618836820.62222,-42.64862,22.77150011062622
1618836820.63785,-44.96802,22.787130117416382
1618836820.65347,-47.53156,22.80275011062622
1618836820.6691,-50.47809,22.818380117416382
1618836820.68472,-53.88159,22.83400011062622
1618836820.70035,-57.59167,22.849630117416382
1618836820.71597,-61.17236,22.86525011062622
1618836820.7316,-63.93103,22.880880117416382
1618836820.74723,-65.09442,22.896510124206543
1618836820.76285,-64.09229,22.912130117416382
1618836820.77848,-60.69727,22.927760124206543
1618836820.7941,-55.14166,22.943380117416382
1618836820.80973,-47.97986,22.959010124206543
1618836820.82535,-39.88477,22.974630117416382
1618836820.84098,-31.47125,22.990260124206543
1618836820.85661,-23.17114,23.005890130996704
1618836820.87223,-15.23767,23.021510124206543
1618836820.88786,-7.839294,23.037140130996704
1618836820.90348,-1.07782,23.052760124206543
1618836820.91911,4.95459,23.068390130996704
1618836820.93473,10.18985,23.084010124206543
1618836820.95036,14.65372,23.099640130996704
1618836820.96599,18.42706,23.115270137786865
1618836820.98161,21.60342,23.130890130996704
1618836820.99724,24.21759,23.146520137786865
1618836821.01286,26.21896,23.162140130996704
1618836821.02849,27.50452,23.177770137786865
1618836821.04411,27.97891,23.193390130996704
1618836821.05974,27.66989,23.209020137786865
1618836821.07537,26.71796,23.224650144577026
1618836821.09099,25.38232,23.240270137786865
1618836821.10662,23.91077,23.255900144577026
1618836821.12224,22.47446,23.271520137786865
1618836821.13787,21.1409,23.287150144577026
1618836821.15349,19.87955,23.302770137786865
1618836821.16912,18.60156,23.318400144577026
1618836821.18475,17.21457,23.334030151367188
1618836821.20037,15.67059,23.349650144577026
1618836821.216,13.96021,23.365280151367188
1618836821.23162,12.12833,23.380900144577026
1618836821.24725,10.28448,23.396530151367188
1618836821.26287,8.520721,23.412150144577026
1618836821.2785,6.905304,23.427780151367188
1618836821.29413,5.409424,23.44341015815735
1618836821.30975,3.902496,23.459030151367188
1618836821.32538,2.207336,23.47466015815735
1618836821.341,0.167511,23.490280151367188
1618836821.35663,-2.282623,23.50591015815735
1618836821.37225,-5.108948,23.521530151367188
1618836821.38788,-8.196136,23.53716015815735
1618836821.40351,-11.40567,23.55279016494751
1618836821.41913,-14.59048,23.56841015815735
1618836821.43476,-17.62378,23.58404016494751
1618836821.45038,-20.42676,23.59966015815735
1618836821.46601,-23.0188,23.61529016494751
1618836821.48163,-25.54379,23.63091015815735
1618836821.49726,-28.28397,23.64654016494751
1618836821.51289,-31.47394,23.66217017173767
1618836821.52851,-35.13168,23.67779016494751
1618836821.54414,-38.93314,23.69342017173767
1618836821.55976,-42.19894,23.70904016494751
1618836821.57539,-44.07281,23.72467017173767
1618836821.59101,-43.832,23.74029016494751
1618836821.60664,-41.11066,23.75592017173767
1618836821.62227,-36.05872,23.771550178527832
1618836821.63789,-29.22482,23.78717017173767
1618836821.65352,-21.38202,23.802800178527832
1618836821.66914,-13.2756,23.81842017173767
1618836821.68477,-5.444458,23.834050178527832
1618836821.70039,1.829285,23.84967017173767
1618836821.71602,8.466034,23.865300178527832
1618836821.73165,14.45956,23.880930185317993
1618836821.74727,19.78409,23.896550178527832
1618836821.7629,24.34467,23.912180185317993
1618836821.77852,27.97083,23.927800178527832
1618836821.79415,30.53159,23.943430185317993
1618836821.80977,31.99991,23.959050178527832
1618836821.8254,32.49023,23.974680185317993
1618836821.84103,32.21936,23.990309953689575
1618836821.85665,31.41708,24.005930185317993
1618836821.87228,30.27266,24.021559953689575
1618836821.8879,28.89641,24.037180185317993
1618836821.90353,27.36487,24.052809953689575
1618836821.91916,25.76186,24.068439960479736
1618836821.93478,24.16667,24.084059953689575
1618836821.95041,22.65373,24.099689960479736
1618836821.96603,21.22084,24.115309953689575
1618836821.98166,19.80223,24.130939960479736
1618836821.99728,18.27483,24.146559953689575
1618836822.01291,16.50508,24.162189960479736
1618836822.02854,14.41733,24.177819967269897
1618836822.04416,12.02074,24.193439960479736
1618836822.05979,9.399719,24.209069967269897
1618836822.07541,6.691025,24.224689960479736
1618836822.09104,4.017929,24.240319967269897
1618836822.10666,1.458664,24.255939960479736
1618836822.12229,-1.000336,24.271569967269897
1618836822.13792,-3.422073,24.28719997406006
1618836822.15354,-5.887466,24.302819967269897
1618836822.16917,-8.428436,24.31844997406006
1618836822.18479,-11.04578,24.334069967269897
1618836822.20042,-13.68752,24.34969997406006
1618836822.21604,-16.27707,24.365319967269897
1618836822.23167,-18.79546,24.38094997406006
1618836822.2473,-21.32542,24.39657998085022
1618836822.26292,-24.01637,24.41219997406006
1618836822.27855,-27.07571,24.42782998085022
1618836822.29417,-30.59503,24.44344997406006
1618836822.3098,-34.42999,24.45907998085022
1618836822.32542,-38.16953,24.47469997406006
1618836822.34105,-41.15609,24.49032998085022
1618836822.35668,-42.70718,24.50595998764038
1618836822.3723,-42.27698,24.52157998085022
1618836822.38793,-39.6732,24.53720998764038
1618836822.40355,-35.03735,24.55282998085022
1618836822.41918,-28.82259,24.56845998764038
1618836822.4348,-21.59367,24.58407998085022
1618836822.45043,-13.89281,24.59970998764038
1618836822.46606,-6.173218,24.615339994430542
1618836822.48168,1.233391,24.63095998764038
1618836822.49731,8.108154,24.646589994430542
1618836822.51293,14.30911,24.66220998764038
1618836822.52856,19.72073,24.677839994430542
1618836822.54418,24.32253,24.69345998764038
1618836822.55981,28.12722,24.709089994430542
1618836822.57544,31.22927,24.724720001220703
1618836822.59106,33.74094,24.740339994430542
1618836822.60669,35.78148,24.755970001220703
1618836822.62231,37.43442,24.771589994430542
1618836822.63794,38.69871,24.787220001220703
1618836822.65356,39.4689,24.802839994430542
1618836822.66919,39.61885,24.818470001220703
1618836822.68482,39.08096,24.834100008010864
1618836822.70044,37.91357,24.849720001220703
1618836822.71607,36.33855,24.865350008010864
1618836822.73169,34.67763,24.880970001220703
1618836822.74732,33.19704,24.896600008010864
1618836822.76294,32.06321,24.912220001220703
1618836822.77857,31.24961,24.927850008010864
1618836822.7942,30.6232,24.943480014801025
1618836822.80982,30.00513,24.959100008010864
1618836822.82545,29.25444,24.974730014801025
1618836822.84107,28.28001,24.990350008010864
1618836822.8567,27.03295,25.005980014801025
1618836822.87232,25.48898,25.021600008010864
1618836822.88795,23.62765,25.037230014801025
1618836822.90358,21.46861,25.052860021591187
1618836822.9192,19.04107,25.068480014801025
1618836822.93483,16.37345,25.084110021591187
1618836822.95045,13.50809,25.099730014801025
1618836822.96608,10.48343,25.115360021591187
1618836822.9817,7.38224,25.130980014801025
1618836822.99733,4.305843,25.146610021591187
1618836823.01296,1.393513,25.162240028381348
1618836823.02858,-1.231094,25.177860021591187
1618836823.04421,-3.556129,25.193490028381348
1618836823.05983,-5.68779,25.209110021591187
1618836823.07546,-7.850838,25.224740028381348
1618836823.09108,-10.29401,25.240360021591187
1618836823.10671,-13.23284,25.255990028381348
1618836823.12234,-16.77237,25.27162003517151
1618836823.13796,-20.85682,25.287240028381348
1618836823.15359,-25.25916,25.30287003517151
1618836823.16921,-29.54472,25.318490028381348
1618836823.18484,-33.09743,25.33412003517151
1618836823.20046,-35.19335,25.349740028381348
1618836823.21609,-35.15272,25.36537003517151
1618836823.23172,-32.55215,25.38100004196167
1618836823.24734,-27.36732,25.39662003517151
1618836823.26297,-20.04598,25.41225004196167
1618836823.27859,-11.3545,25.42787003517151
1618836823.29422,-2.144348,25.44350004196167
1618836823.30984,6.906395,25.45912003517151
1618836823.32547,15.43616,25.47475004196167
1618836823.3411,23.3931,25.49038004875183
1618836823.35672,30.90692,25.50600004196167
1618836823.37235,38.10237,25.52163004875183
1618836823.38797,44.99222,25.53725004196167
1618836823.4036,51.47144,25.55288004875183
1618836823.41922,57.38464,25.56850004196167
1618836823.43485,62.60512,25.58413004875183
1618836823.45048,67.04611,25.599760055541992
1618836823.4661,70.66632,25.61538004875183
1618836823.48173,73.40392,25.631010055541992
1618836823.49735,75.15764,25.64663004875183
1618836823.51298,75.83229,25.662260055541992
1618836823.5286,75.40404,25.67788004875183
1618836823.54423,73.96187,25.693510055541992
1618836823.55986,71.70842,25.709140062332153
1618836823.57548,68.91708,25.724760055541992
1618836823.59111,65.83226,25.740390062332153
1618836823.60673,62.63806,25.756010055541992
1618836823.62236,59.42549,25.771640062332153
1618836823.63798,56.27822,25.787260055541992
1618836823.65361,53.22801,25.802890062332153
1618836823.66924,50.29037,25.818520069122314
1618836823.68486,47.41316,25.834140062332153
1618836823.70049,44.45766,25.849770069122314
1618836823.71611,41.25241,25.865390062332153
1618836823.73174,37.69197,25.881020069122314
1618836823.74736,33.8142,25.896640062332153
1618836823.76299,29.80023,25.912270069122314
1618836823.77862,25.88166,25.927900075912476
1618836823.79424,22.20472,25.943520069122314
1618836823.80987,18.71049,25.959150075912476
1618836823.82549,15.12649,25.974770069122314
1618836823.84112,11.10036,25.990400075912476
1618836823.85674,6.371658,26.006020069122314
1618836823.87237,0.9270935,26.021650075912476
1618836823.888,-5.003441,26.037280082702637
1618836823.90362,-11.04234,26.052900075912476
1618836823.91925,-16.87306,26.068530082702637
1618836823.93487,-22.36002,26.084150075912476
1618836823.9505,-27.61392,26.099780082702637
1618836823.96612,-32.87296,26.115400075912476
1618836823.98175,-38.39267,26.131030082702637
1618836823.99738,-44.32295,26.146660089492798
1618836824.013,-50.63525,26.162280082702637
1618836824.02863,-57.10716,26.177910089492798
1618836824.04425,-63.31261,26.193530082702637
1618836824.05988,-68.65648,26.209160089492798
1618836824.0755,-72.42479,26.224780082702637
1618836824.09113,-73.95055,26.240410089492798
1618836824.10676,-72.791,26.25604009628296
1618836824.12238,-68.9094,26.271660089492798
1618836824.13801,-62.70132,26.28729009628296
1618836824.15363,-54.87357,26.302910089492798
1618836824.16926,-46.24943,26.31854009628296
1618836824.18489,-37.5591,26.33417010307312
1618836824.20051,-29.34788,26.34979009628296
1618836824.21614,-21.91813,26.36542010307312
1618836824.23176,-15.42206,26.38104009628296
1618836824.24739,-9.910393,26.39667010307312
1618836824.26301,-5.36515,26.41229009628296
1618836824.27864,-1.747578,26.42792010307312
1618836824.29427,0.9951782,26.44355010986328
1618836824.30989,2.896839,26.45917010307312
1618836824.32552,3.954971,26.47480010986328
1618836824.34114,4.189323,26.49042010307312
1618836824.35677,3.681129,26.50605010986328
1618836824.37239,2.634388,26.52167010307312
1618836824.38802,1.35553,26.53730010986328
1618836824.40365,0.1595993,26.552930116653442
1618836824.41927,-0.7353287,26.56855010986328
1618836824.4349,-1.247005,26.584180116653442
1618836824.45052,-1.41037,26.59980010986328
1618836824.46615,-1.276344,26.615430116653442
1618836824.48177,-0.8846474,26.63105010986328
1618836824.4974,-0.2719917,26.646680116653442
1618836824.51303,0.4755898,26.662310123443604
1618836824.52865,1.167492,26.677930116653442
1618836824.54428,1.507141,26.693560123443604
1618836824.5599,1.231022,26.709180116653442
1618836824.57553,0.2108917,26.724810123443604
1618836824.59115,-1.429405,26.740430116653442
1618836824.60678,-3.367676,26.756060123443604
1618836824.62241,-5.251347,26.771690130233765
1618836824.63803,-6.859932,26.787310123443604
1618836824.65366,-8.233936,26.802940130233765
1618836824.66928,-9.590759,26.818560123443604
1618836824.68491,-11.18762,26.834190130233765
1618836824.70053,-13.15901,26.849810123443604
1618836824.71616,-15.41599,26.865440130233765
1618836824.73179,-17.71202,26.881070137023926
1618836824.74741,-19.75832,26.896690130233765
1618836824.76304,-21.3778,26.912320137023926
1618836824.77866,-22.5984,26.927940130233765
1618836824.79429,-23.64889,26.943570137023926
1618836824.80991,-24.86973,26.959190130233765
1618836824.82554,-26.56841,26.974820137023926
1618836824.84117,-28.86714,26.990450143814087
1618836824.85679,-31.62089,27.006070137023926
1618836824.87242,-34.38657,27.021700143814087
1618836824.88804,-36.52499,27.037320137023926
1618836824.90367,-37.32728,27.052950143814087
1618836824.91929,-36.19909,27.068570137023926
1618836824.93492,-32.85358,27.084200143814087
1618836824.95055,-27.32999,27.099830150604248
1618836824.96617,-20.01892,27.115450143814087
1618836824.9818,-11.51379,27.131080150604248
1618836824.99742,-2.47934,27.146700143814087
1618836825.01305,6.491432,27.162330150604248
1618836825.02867,14.98415,27.177950143814087
1618836825.0443,22.80567,27.193580150604248
1618836825.05993,29.9622,27.20921015739441
1618836825.07555,36.55291,27.224830150604248
1618836825.09118,42.66648,27.24046015739441
1618836825.1068,48.26102,27.256080150604248
1618836825.12243,53.14339,27.27171015739441
1618836825.13805,57.02268,27.287330150604248
1618836825.15368,59.66215,27.30296015739441
1618836825.16931,60.98073,27.31859016418457
1618836825.18493,61.13737,27.33421015739441
1618836825.20056,60.48634,27.34984016418457
1618836825.21618,59.42776,27.36546015739441
1618836825.23181,58.26403,27.38109016418457
1618836825.24743,57.08164,27.39671015739441
1618836825.26306,55.76299,27.41234016418457
1618836825.27869,54.12075,27.42797017097473
1618836825.29431,52.01097,27.44359016418457
1618836825.30994,49.44183,27.45922017097473
1618836825.32556,46.56093,27.47484016418457
1618836825.34119,43.57458,27.49047017097473
1618836825.35681,40.6567,27.50609016418457
1618836825.37244,37.85585,27.52172017097473
1618836825.38807,35.1122,27.537350177764893
1618836825.40369,32.30134,27.55297017097473
1618836825.41932,29.33075,27.568600177764893
1618836825.43494,26.17728,27.58422017097473
1618836825.45057,22.89595,27.599850177764893
1618836825.46619,19.59293,27.61547017097473
1618836825.48182,16.34445,27.631100177764893
1618836825.49745,13.16734,27.646730184555054
1618836825.51307,10.01824,27.662350177764893
1618836825.5287,6.846001,27.677980184555054
1618836825.54432,3.637535,27.693600177764893
1618836825.55995,0.4319458,27.709230184555054
1618836825.57557,-2.674347,27.724850177764893
1618836825.5912,-5.633583,27.740480184555054
1618836825.60683,-8.487274,27.756109952926636
1618836825.62245,-11.4267,27.771730184555054
1618836825.63808,-14.72954,27.787359952926636
1618836825.6537,-18.66189,27.802980184555054
1618836825.66933,-23.34545,27.818609952926636
1618836825.68495,-28.71127,27.834230184555054
1618836825.70058,-34.46507,27.849859952926636
1618836825.71621,-40.1461,27.865489959716797
1618836825.73183,-45.18266,27.881109952926636
1618836825.74746,-48.97488,27.896739959716797
1618836825.76308,-50.99165,27.912359952926636
1618836825.77871,-50.8321,27.927989959716797
1618836825.79433,-48.3492,27.943609952926636
1618836825.80996,-43.69395,27.959239959716797
1618836825.82559,-37.34853,27.974869966506958
1618836825.84121,-29.97321,27.990489959716797
1618836825.85684,-22.35058,28.006119966506958
1618836825.87246,-15.17597,28.021739959716797
1618836825.88809,-8.900379,28.037369966506958
1618836825.90371,-3.685158,28.052989959716797
1618836825.91934,0.5915947,28.068619966506958
1618836825.93497,4.225243,28.08424997329712
1618836825.95059,7.532665,28.099869966506958
1618836825.96622,10.71949,28.11549997329712
1618836825.98184,13.79519,28.131119966506958
1618836825.99747,16.60495,28.14674997329712
1618836826.01309,18.92217,28.162369966506958
1618836826.02872,20.56081,28.17799997329712
1618836826.04435,21.47343,28.19362998008728
1618836826.05997,21.71908,28.20924997329712
1618836826.0756,21.4176,28.22487998008728
1618836826.09122,20.67287,28.24049997329712
1618836826.10685,19.56152,28.25612998008728
1618836826.12247,18.17505,28.27174997329712
1618836826.1381,16.65681,28.28737998008728
1618836826.15373,15.24391,28.30300998687744
1618836826.16935,14.16568,28.31862998008728
1618836826.18498,13.52284,28.33425998687744
1618836826.2006,13.23382,28.34987998008728
1618836826.21623,13.00031,28.36550998687744
1618836826.23185,12.47764,28.38112998008728
1618836826.24748,11.38519,28.39675998687744
1618836826.26311,9.603105,28.412389993667603
1618836826.27873,7.185132,28.42800998687744
1618836826.29436,4.26566,28.443639993667603
1618836826.30998,0.9772422,28.45925998687744
1618836826.32561,-2.638465,28.474889993667603
1618836826.34123,-6.539907,28.49050998687744
1618836826.35686,-10.68719,28.506139993667603
1618836826.37249,-14.95634,28.521770000457764
1618836826.38811,-19.12911,28.537389993667603
1618836826.40374,-22.95393,28.553020000457764
1618836826.41936,-26.21123,28.568639993667603
1618836826.43499,-28.76662,28.584270000457764
1618836826.45061,-30.60017,28.599889993667603
1618836826.46624,-31.84582,28.615520000457764
1618836826.48187,-32.7688,28.631150007247925
1618836826.49749,-33.79636,28.646770000457764
1618836826.51312,-35.43969,28.662400007247925
1618836826.52874,-38.15483,28.678020000457764
1618836826.54437,-42.20396,28.693650007247925
1618836826.55999,-47.46683,28.709270000457764
1618836826.57562,-53.3976,28.724900007247925
1618836826.59125,-59.11468,28.740530014038086
1618836826.60687,-63.5861,28.756150007247925
1618836826.6225,-65.87636,28.771780014038086
1618836826.63812,-65.40562,28.787400007247925
1618836826.65375,-62.03682,28.803030014038086
1618836826.66937,-56.06425,28.818650007247925
1618836826.685,-48.12666,28.834280014038086
1618836826.70063,-38.94373,28.849910020828247
1618836826.71625,-29.21735,28.865530014038086
1618836826.73188,-19.47263,28.881160020828247
1618836826.7475,-10.07689,28.896780014038086
1618836826.76313,-1.291172,28.912410020828247
1618836826.77876,6.688355,28.928040027618408
1618836826.79438,13.69784,28.943660020828247
1618836826.81001,19.63894,28.959290027618408
1618836826.82563,24.48835,28.974910020828247
1618836826.84126,28.36699,28.990540027618408
1618836826.85688,31.47529,29.006160020828247
1618836826.87251,34.02366,29.021790027618408
1618836826.88814,36.18166,29.03742003440857
1618836826.90376,38.01279,29.053040027618408
1618836826.91939,39.46701,29.06867003440857
1618836826.93501,40.47282,29.084290027618408
1618836826.95064,41.00103,29.09992003440857
1618836826.96626,41.11555,29.115540027618408
1618836826.98189,40.97938,29.13117003440857
1618836826.99752,40.76949,29.14680004119873
1618836827.01314,40.57033,29.16242003440857
1618836827.02877,40.3631,29.17805004119873
1618836827.04439,39.97663,29.19367003440857
1618836827.06002,39.20283,29.20930004119873
1618836827.07564,37.89655,29.22492003440857
1618836827.09127,36.03707,29.24055004119873
1618836827.1069,33.71584,29.25618004798889
1618836827.12252,31.06977,29.27180004119873
1618836827.13815,28.23894,29.28743004798889
1618836827.15377,25.3413,29.30305004119873
1618836827.1694,22.47666,29.31868004798889
1618836827.18502,19.72576,29.33430004119873
1618836827.20065,17.13503,29.34993004798889
1618836827.21628,14.71118,29.365560054779053
1618836827.2319,12.36896,29.38118004798889
1618836827.24753,9.953692,29.396810054779053
1618836827.26315,7.319885,29.41243004798889
1618836827.27878,4.392431,29.428060054779053
1618836827.2944,1.192291,29.44368004798889
1618836827.31003,-2.144515,29.459310054779053
1618836827.32566,-5.561471,29.474940061569214
1618836827.34128,-9.078533,29.490560054779053
1618836827.35691,-12.82558,29.506190061569214
1618836827.37253,-16.95897,29.521810054779053
1618836827.38816,-21.56093,29.537440061569214
1618836827.40378,-26.54106,29.553060054779053
1618836827.41941,-31.61679,29.568690061569214
1618836827.43504,-36.37093,29.584320068359375
1618836827.45066,-40.27706,29.599940061569214
1618836827.46629,-42.86269,29.615570068359375
1618836827.48191,-43.72667,29.631190061569214
1618836827.49754,-42.63117,29.646820068359375
1618836827.51316,-39.51682,29.662440061569214
1618836827.52879,-34.56055,29.678070068359375
1618836827.54442,-28.1692,29.693700075149536
1618836827.56004,-20.95582,29.709320068359375
1618836827.57567,-13.63155,29.724950075149536
1618836827.59129,-6.831707,29.740570068359375
1618836827.60692,-0.977541,29.756200075149536
1618836827.62254,3.791796,29.771820068359375
1618836827.63817,7.568335,29.787450075149536
1618836827.6538,10.58037,29.803080081939697
1618836827.66942,13.03541,29.818700075149536
1618836827.68505,15.03693,29.834330081939697
1618836827.70067,16.58782,29.849950075149536
1618836827.7163,17.63415,29.865580081939697
1618836827.73192,18.14313,29.881200075149536
1618836827.74755,18.1502,29.896830081939697
1618836827.76318,17.76282,29.91246008872986
1618836827.7788,17.10629,29.928080081939697
1618836827.79443,16.2949,29.94371008872986
1618836827.81005,15.43746,29.959330081939697
1618836827.82568,14.61084,29.97496008872986
1618836827.8413,13.88064,29.990580081939697
1618836827.85693,13.28956,30.00621008872986
1618836827.87256,12.86499,30.02184009552002
1618836827.88818,12.56636,30.03746008872986
1618836827.90381,12.28249,30.05309009552002
1618836827.91943,11.81626,30.06871008872986
1618836827.93506,10.96006,30.08434009552002
1618836827.95068,9.574577,30.09996008872986
1618836827.96631,7.641136,30.11559009552002
1618836827.98194,5.293175,30.13122010231018
1618836827.99756,2.724003,30.14684009552002
1618836828.01319,0.1259918,30.16247010231018
1618836828.02881,-2.411301,30.17809009552002
1618836828.04444,-4.881832,30.19372010231018
1618836828.06006,-7.329067,30.20934009552002
1618836828.07569,-9.781673,30.22497010231018
1618836828.09132,-12.26332,30.240600109100342
1618836828.10694,-14.80568,30.25622010231018
1618836828.12257,-17.4903,30.271850109100342
1618836828.13819,-20.45529,30.28747010231018
1618836828.15382,-23.83896,30.303100109100342
1618836828.16944,-27.70575,30.31872010231018
1618836828.18507,-31.98103,30.334350109100342
1618836828.2007,-36.44228,30.349980115890503
1618836828.21632,-40.73638,30.365600109100342
1618836828.23195,-44.37927,30.381230115890503
1618836828.24757,-46.86309,30.396850109100342
1618836828.2632,-47.66223,30.412480115890503
1618836828.27882,-46.41111,30.428100109100342
1618836828.29445,-43.01876,30.443730115890503
1618836828.31008,-37.73782,30.459360122680664
1618836828.3257,-31.1255,30.474980115890503
1618836828.34133,-23.88427,30.490610122680664
1618836828.35695,-16.65357,30.506230115890503
1618836828.37258,-9.844456,30.521860122680664
1618836828.3882,-3.640537,30.537480115890503
1618836828.40383,1.937931,30.553110122680664
1618836828.41946,6.893044,30.568740129470825
1618836828.43508,11.1854,30.584360122680664
1618836828.45071,14.74643,30.599990129470825
1618836828.46633,17.53093,30.615610122680664
1618836828.48196,19.60332,30.631240129470825
1618836828.49758,21.09765,30.646860122680664
1618836828.51321,22.1764,30.662490129470825
1618836828.52884,22.92996,30.678120136260986
1618836828.54446,23.33898,30.693740129470825
1618836828.56009,23.32121,30.709370136260986
1618836828.57571,22.83067,30.724990129470825
1618836828.59134,21.92483,30.740620136260986
1618836828.60696,20.77616,30.756240129470825
1618836828.62259,19.60386,30.771870136260986
1618836828.63822,18.60052,30.787500143051147
1618836828.65384,17.83361,30.803120136260986
1618836828.66947,17.27142,30.818750143051147
1618836828.68509,16.82913,30.834370136260986
1618836828.70072,16.39677,30.850000143051147
1618836828.71634,15.91843,30.865620136260986
1618836828.73197,15.3805,30.881250143051147
1618836828.7476,14.77736,30.89688014984131
1618836828.76322,14.14457,30.912500143051147
1618836828.77885,13.47565,30.92813014984131
1618836828.79447,12.70731,30.943750143051147
1618836828.8101,11.71932,30.95938014984131
1618836828.82572,10.34532,30.975000143051147
1618836828.84135,8.416351,30.99063014984131
1618836828.85698,5.875195,31.00626015663147
1618836828.8726,2.852951,31.02188014984131
1618836828.88823,-0.4007568,31.03751015663147
1618836828.90385,-3.587223,31.05313014984131
1618836828.91948,-6.538292,31.06876015663147
1618836828.9351,-9.303585,31.08438014984131
1618836828.95073,-12.09859,31.10001015663147
1618836828.96636,-15.20185,31.11564016342163
1618836828.98198,-18.83335,31.13126015663147
1618836828.99761,-23.06814,31.14689016342163
1618836829.01323,-27.85849,31.16251015663147
1618836829.02886,-33.0339,31.17814016342163
1618836829.04449,-38.28465,31.193770170211792
1618836829.06011,-43.13033,31.20939016342163
1618836829.07574,-46.93301,31.225020170211792
1618836829.09136,-48.98205,31.24064016342163
1618836829.10699,-48.71807,31.256270170211792
1618836829.12261,-45.95581,31.27189016342163
1618836829.13824,-40.93243,31.287520170211792
1618836829.15387,-34.27545,31.303150177001953
1618836829.16949,-26.75606,31.318770170211792
1618836829.18512,-19.0699,31.334400177001953
1618836829.20074,-11.68162,31.350020170211792
1618836829.21637,-4.848898,31.365650177001953
1618836829.23199,1.368326,31.381270170211792
1618836829.24762,6.980145,31.396900177001953
1618836829.26325,12.07415,31.412530183792114
1618836829.27887,16.77465,31.428150177001953
1618836829.2945,21.16873,31.443780183792114
1618836829.31012,25.29557,31.459400177001953
1618836829.32575,29.08308,31.475030183792114
1618836829.34137,32.40697,31.490650177001953
1618836829.357,35.11898,31.506280183792114
1618836829.37263,37.14382,31.521909952163696
1618836829.38825,38.46593,31.537530183792114
1618836829.40388,39.10704,31.553159952163696
1618836829.4195,39.10607,31.568780183792114
1618836829.43513,38.50823,31.584409952163696
1618836829.45075,37.44941,31.600030183792114
1618836829.46638,36.16136,31.615659952163696
1618836829.48201,34.92506,31.631289958953857
1618836829.49763,33.95824,31.646909952163696
1618836829.51326,33.27672,31.662539958953857
1618836829.52888,32.67334,31.678159952163696
1618836829.54451,31.83008,31.693789958953857
1618836829.56013,30.50694,31.709409952163696
1618836829.57576,28.61297,31.725039958953857
1618836829.59139,26.27254,31.74066996574402
1618836829.60701,23.66439,31.756289958953857
1618836829.62264,20.91148,31.77191996574402
1618836829.63826,18.03983,31.787539958953857
1618836829.65389,14.99036,31.80316996574402
1618836829.66951,11.70288,31.818789958953857
1618836829.68514,8.162117,31.83441996574402
1618836829.70077,4.431931,31.85004997253418
1618836829.71639,0.6226864,31.86566996574402
1618836829.73202,-3.146339,31.88129997253418
1618836829.74764,-6.785847,31.89691996574402
1618836829.76327,-10.2635,31.91254997253418
1618836829.77889,-13.57919,31.92816996574402
1618836829.79452,-16.80845,31.94379997253418
1618836829.81015,-20.06101,31.95942997932434
1618836829.82577,-23.50612,31.97504997253418
1618836829.8414,-27.26978,31.99067997932434
1618836829.85702,-31.37761,32.00629997253418
1618836829.87265,-35.65393,32.02192997932434
1618836829.88827,-39.72721,32.03754997253418
1618836829.9039,-43.06859,32.05317997932434
1618836829.91953,-45.11844,32.0688099861145
1618836829.93515,-45.40195,32.08442997932434
1618836829.95078,-43.66176,32.1000599861145
1618836829.9664,-39.93229,32.11567997932434
1618836829.98203,-34.51786,32.1313099861145
1618836829.99765,-27.93402,32.14692997932434
1618836830.01328,-20.75338,32.1625599861145
1618836830.02891,-13.50671,32.17818999290466
1618836830.04453,-6.569466,32.1938099861145
1618836830.06016,-0.137104,32.20943999290466
1618836830.07578,5.730053,32.2250599861145
1618836830.09141,11.05995,32.24068999290466
1618836830.10703,15.88172,32.2563099861145
1618836830.12266,20.16634,32.27193999290466
1618836830.13829,23.80944,32.287569999694824
1618836830.15391,26.63107,32.30318999290466
1618836830.16954,28.4681,32.318819999694824
1618836830.18516,29.27052,32.33443999290466
1618836830.20079,29.09197,32.350069999694824
1618836830.21641,28.10378,32.36568999290466
1618836830.23204,26.54498,32.381319999694824
1618836830.24767,24.64476,32.396950006484985
1618836830.26329,22.63399,32.412569999694824
1618836830.27892,20.70319,32.428200006484985
1618836830.29454,18.99044,32.443819999694824
1618836830.31017,17.60449,32.459450006484985
1618836830.32579,16.54263,32.475069999694824
1618836830.34142,15.7266,32.490700006484985
1618836830.35705,15.00692,32.50633001327515
1618836830.37267,14.20041,32.521950006484985
1618836830.3883,13.14496,32.53758001327515
1618836830.40392,11.72084,32.553200006484985
1618836830.41955,9.897793,32.56883001327515
1618836830.43517,7.728149,32.584450006484985
1618836830.4508,5.374374,32.60008001327515
1618836830.46643,3.017113,32.61571002006531
1618836830.48205,0.8083,32.63133001327515
1618836830.49768,-1.207706,32.64696002006531
1618836830.5133,-3.139687,32.66258001327515
1618836830.52893,-5.214115,32.67821002006531
1618836830.54455,-7.639156,32.69383001327515
1618836830.56018,-10.49388,32.70946002006531
1618836830.57581,-13.65529,32.72509002685547
1618836830.59143,-16.83028,32.74071002006531
1618836830.60706,-19.66947,32.75634002685547
1618836830.62268,-21.98165,32.77196002006531
1618836830.63831,-23.78743,32.78759002685547
1618836830.65393,-25.37719,32.80321002006531
1618836830.66956,-27.20383,32.81884002685547
1618836830.68519,-29.65771,32.83447003364563
1618836830.70081,-32.93699,32.85009002685547
1618836830.71644,-36.8783,32.86572003364563
1618836830.73206,-40.96304,32.88134002685547
1618836830.74769,-44.44542,32.89697003364563
1618836830.76331,-46.53304,32.91259002685547
1618836830.77894,-46.60961,32.92822003364563
1618836830.79457,-44.44592,32.94385004043579
1618836830.81019,-40.21112,32.95947003364563
1618836830.82582,-34.42796,32.97510004043579
1618836830.84144,-27.77705,32.99072003364563
1618836830.85707,-20.90963,33.00635004043579
1618836830.87269,-14.31587,33.02197003364563
1618836830.88832,-8.222015,33.03760004043579
1618836830.90395,-2.642399,33.05323004722595
1618836830.91957,2.518639,33.06885004043579
1618836830.9352,7.339828,33.08448004722595
1618836830.95082,11.78524,33.10010004043579
1618836830.96645,15.69256,33.11573004722595
1618836830.98207,18.86003,33.13135004043579
1618836830.9977,21.14675,33.14698004722595
1618836831.01333,22.4711,33.16261005401611
1618836831.02895,22.89777,33.17823004722595
1618836831.04458,22.59613,33.19386005401611
1618836831.0602,21.78318,33.20948004722595
1618836831.07583,20.62194,33.22511005401611
1618836831.09145,19.24409,33.24073004722595
1618836831.10708,17.73826,33.25636005401611
1618836831.12271,16.21596,33.271990060806274
1618836831.13833,14.77766,33.28761005401611
1618836831.15396,13.43661,33.303240060806274
1618836831.16958,12.15467,33.31886005401611
1618836831.18521,10.92003,33.334490060806274
1618836831.20083,9.652691,33.35011005401611
1618836831.21646,8.183598,33.365740060806274
1618836831.23209,6.269127,33.381370067596436
1618836831.24771,3.65247,33.396990060806274
1618836831.26334,0.3269997,33.412620067596436
1618836831.27896,-3.587112,33.428240060806274
1618836831.29459,-7.860924,33.443870067596436
1618836831.31022,-12.17181,33.4595000743866
1618836831.32584,-16.08967,33.475120067596436
1618836831.34147,-19.46495,33.4907500743866
1618836831.35709,-22.62601,33.506370067596436
1618836831.37272,-26.23754,33.5220000743866
1618836831.38834,-31.033,33.537620067596436
1618836831.40397,-37.09983,33.5532500743866
1618836831.4196,-44.05805,33.56888008117676
1618836831.43522,-51.29926,33.5845000743866
1618836831.45085,-58.16573,33.60013008117676
1618836831.46647,-64.08195,33.6157500743866
1618836831.4821,-69.09506,33.63138008117676
1618836831.49772,-73.84943,33.6470000743866
1618836831.51335,-79.16564,33.66263008117676
1618836831.52898,-85.49933,33.67826008796692
1618836831.5446,-91.97333,33.69388008117676
1618836831.56023,-96.8194,33.70951008796692
1618836831.57585,-98.03992,33.72513008117676
1618836831.59148,-93.61798,33.74076008796692
1618836831.6071,-81.96956,33.75638008117676
1618836831.62273,-62.85282,33.77201008796692
1618836831.63836,-37.8386,33.78764009475708
1618836831.65398,-10.10938,33.80326008796692
1618836831.66961,16.14767,33.81889009475708
1618836831.68523,37.50999,33.83451008796692
1618836831.70086,51.82934,33.85014009475708
1618836831.71648,58.72532,33.86576008796692
1618836831.73211,57.65775,33.88139009475708
1618836831.74774,50.62836,33.89702010154724
1618836831.76336,42.59528,33.91264009475708
1618836831.77899,39.44844,33.92827010154724
1618836831.79461,46.77953,33.94389009475708
1618836831.81024,63.65325,33.95952010154724
1618836831.82586,87.17626,33.97514009475708
1618836831.84149,114.7334,33.99077010154724
1618836831.85712,141.9291,34.0064001083374
1618836831.87274,166.1612,34.02202010154724
1618836831.88837,186.8242,34.0376501083374
1618836831.90399,204.6298,34.05327010154724
1618836831.91962,220.6452,34.0689001083374
1618836831.93524,235.3968,34.08452010154724
1618836831.95087,248.1864,34.1001501083374
1618836831.9665,257.7667,34.11578011512756
1618836831.98212,262.1283,34.1314001083374
1618836831.99775,258.9975,34.14703011512756
1618836832.01337,247.0934,34.1626501083374
1618836832.029,226.6472,34.17828011512756
1618836832.04462,199.1452,34.1939001083374
1618836832.06025,166.8306,34.20953011512756
1618836832.07588,132.2053,34.225160121917725
1618836832.0915,97.61501,34.24078011512756
1618836832.10713,65.53178,34.256410121917725
1618836832.12275,37.87757,34.27203011512756
1618836832.13838,15.65899,34.287660121917725
1618836832.154,-0.803978,34.30328011512756
1618836832.16963,-11.81027,34.318910121917725
1618836832.18526,-18.31245,34.334540128707886
1618836832.20088,-21.69177,34.350160121917725
1618836832.21651,-23.49581,34.365790128707886
1618836832.23213,-25.19371,34.381410121917725
1618836832.24776,-27.52974,34.397040128707886
1618836832.26338,-30.77777,34.412660121917725
1618836832.27901,-34.89235,34.428290128707886
1618836832.29464,-39.42747,34.44392013549805
1618836832.31026,-43.79536,34.459540128707886
1618836832.32589,-47.55997,34.47517013549805
1618836832.34151,-50.55325,34.490790128707886
1618836832.35714,-52.88931,34.50642013549805
1618836832.37276,-54.76044,34.522040128707886
1618836832.38839,-56.1062,34.53767013549805
1618836832.40402,-56.70654,34.55330014228821
1618836832.41964,-56.33575,34.56892013549805
1618836832.43527,-54.89464,34.58455014228821
1618836832.45089,-52.59613,34.60017013549805
1618836832.46652,-50.00229,34.61580014228821
1618836832.48214,-47.85812,34.63142013549805
1618836832.49777,-46.85886,34.64705014228821
1618836832.5134,-47.37872,34.66268014907837
1618836832.52902,-49.34625,34.67830014228821
1618836832.54465,-52.38788,34.69393014907837
1618836832.56027,-55.96985,34.70955014228821
1618836832.5759,-59.5264,34.72518014907837
1618836832.59152,-62.54065,34.74080014228821
1618836832.60715,-64.62793,34.75643014907837
1618836832.62278,-65.5993,34.77206015586853
1618836832.6384,-65.53265,34.78768014907837
1618836832.65403,-64.79611,34.80331015586853
1618836832.66965,-63.92532,34.81893014907837
1618836832.68528,-63.44681,34.83456015586853
1618836832.7009,-63.64597,34.85018014907837
1618836832.71653,-64.48355,34.86581015586853
1618836832.73216,-65.65009,34.88144016265869
1618836832.74778,-66.72836,34.89706015586853
1618836832.76341,-67.35037,34.91269016265869
1618836832.77903,-67.328,34.92831015586853
1618836832.79466,-66.6098,34.94394016265869
1618836832.81028,-65.25604,34.95956015586853
1618836832.82591,-63.38754,34.97519016265869
1618836832.84154,-61.16766,34.99082016944885
1618836832.85716,-58.83032,35.00644016265869
1618836832.87279,-56.61182,35.02207016944885
1618836832.88841,-54.67722,35.03769016265869
1618836832.90404,-53.05331,35.05332016944885
1618836832.91966,-51.64673,35.06894016265869
1618836832.93529,-50.3201,35.08457016944885
1618836832.95092,-49.00974,35.100200176239014
1618836832.96654,-47.79425,35.11582016944885
1618836832.98217,-46.81335,35.131450176239014
1618836832.99779,-46.19989,35.14707016944885
1618836833.01342,-45.93329,35.162700176239014
1618836833.02904,-45.84018,35.17832016944885
1618836833.04467,-45.67795,35.193950176239014
1618836833.0603,-45.26913,35.209580183029175
1618836833.07592,-44.60855,35.225200176239014
1618836833.09155,-43.89166,35.240830183029175
1618836833.10717,-43.41235,35.256450176239014
1618836833.1228,-43.47409,35.272080183029175
1618836833.13842,-44.3028,35.287700176239014
1618836833.15405,-45.99741,35.303330183029175
1618836833.16968,-48.53638,35.318960189819336
1618836833.1853,-51.76727,35.334580183029175
1618836833.20093,-55.34259,35.350210189819336
1618836833.21655,-58.71762,35.365830183029175
1618836833.23218,-61.20197,35.381460189819336
1618836833.2478,-62.11511,35.397080183029175
1618836833.26343,-60.98959,35.412710189819336
1618836833.27906,-57.68964,35.42833995819092
1618836833.29468,-52.48956,35.443960189819336
1618836833.31031,-45.89432,35.45958995819092
1618836833.32593,-38.5062,35.475210189819336
1618836833.34156,-30.84253,35.49083995819092
1618836833.35718,-23.26843,35.506460189819336
1618836833.37281,-16.05032,35.52208995819092
1618836833.38844,-9.388428,35.53771996498108
1618836833.40406,-3.471436,35.55333995819092
1618836833.41969,1.522034,35.56896996498108
1618836833.43531,5.480225,35.58458995819092
1618836833.45094,8.460632,35.60021996498108
1618836833.46656,10.58911,35.61583995819092
1618836833.48219,12.08337,35.63146996498108
1618836833.49782,13.14157,35.64709997177124
1618836833.51344,13.9248,35.66271996498108
1618836833.52907,14.51334,35.67834997177124
1618836833.54469,14.93686,35.69396996498108
1618836833.56032,15.17389,35.70959997177124
1618836833.57594,15.17279,35.72521996498108
1618836833.59157,14.88535,35.74084997177124
1618836833.6072,14.28348,35.7564799785614
1618836833.62282,13.40201,35.77209997177124
1618836833.63845,12.34756,35.7877299785614
1618836833.65407,11.28027,35.80334997177124
1618836833.6697,10.36697,35.8189799785614
1618836833.68532,9.696472,35.83459997177124
1618836833.70095,9.229828,35.8502299785614
1618836833.71658,8.752502,35.86585998535156
1618836833.7322,7.954956,35.8814799785614
1618836833.74783,6.528931,35.89710998535156
1618836833.76345,4.306671,35.9127299785614
1618836833.77908,1.349365,35.92835998535156
1618836833.7947,-2.094391,35.9439799785614
1618836833.81033,-5.646545,35.95960998535156
1618836833.82596,-8.953949,35.975239992141724
1618836833.84158,-11.81384,35.99085998535156
1618836833.85721,-14.23987,36.006489992141724
1618836833.87283,-16.48083,36.02210998535156
1618836833.88846,-18.97089,36.037739992141724
1618836833.90409,-22.17046,36.053369998931885
1618836833.91971,-26.41565,36.068989992141724
1618836833.93534,-31.77193,36.084619998931885
1618836833.95096,-37.90723,36.100239992141724
1618836833.96659,-44.09087,36.115869998931885
1618836833.98221,-49.37636,36.131489992141724
1618836833.99784,-52.83563,36.147119998931885
1618836834.01347,-53.81586,36.162750005722046
1618836834.02909,-52.13963,36.178369998931885
1618836834.04472,-48.03296,36.194000005722046
1618836834.06034,-41.99431,36.209619998931885
1618836834.07597,-34.60904,36.225250005722046
1618836834.09159,-26.40816,36.240869998931885
1618836834.10722,-17.84744,36.256500005722046
1618836834.12285,-9.379593,36.27213001251221
1618836834.13847,-1.468399,36.287750005722046
1618836834.1541,5.419479,36.30338001251221
1618836834.16972,10.93834,36.319000005722046
1618836834.18535,14.9856,36.33463001251221
1618836834.20097,17.80995,36.350250005722046
1618836834.2166,19.96033,36.36588001251221
1618836834.23223,22.20189,36.38151001930237
1618836834.24785,25.27838,36.39713001251221
1618836834.26348,29.73525,36.41276001930237
1618836834.2791,35.72023,36.42838001251221
1618836834.29473,42.86656,36.44401001930237
1618836834.31035,50.32618,36.45963001251221
1618836834.32598,56.93144,36.47526001930237
1618836834.34161,61.57778,36.49089002609253
1618836834.35723,63.60751,36.50651001930237
1618836834.37286,63.12163,36.52214002609253
1618836834.38848,61.00273,36.53776001930237
1618836834.40411,58.67567,36.55339002609253
1618836834.41973,57.58312,36.56901001930237
1618836834.43536,58.69253,36.58464002609253
1618836834.45099,62.13039,36.60027003288269
1618836834.46661,67.18255,36.61589002609253
1618836834.48224,72.58801,36.63152003288269
1618836834.49786,76.97301,36.64714002609253
1618836834.51349,79.25877,36.66277003288269
1618836834.52911,78.80659,36.67839002609253
1618836834.54474,75.44141,36.69402003288269
1618836834.56037,69.30063,36.70965003967285
1618836834.57599,60.74333,36.72527003288269
1618836834.59162,50.34493,36.74090003967285
1618836834.60724,38.89488,36.75652003288269
1618836834.62287,27.42984,36.77215003967285
1618836834.63849,17.16475,36.78777003288269
1618836834.65412,9.323677,36.80340003967285
1618836834.66975,4.906349,36.81903004646301
1618836834.68537,4.459848,36.83465003967285
1618836834.701,7.795492,36.85028004646301
1618836834.71662,13.73782,36.86590003967285
1618836834.73225,20.11544,36.88153004646301
1618836834.74787,24.08139,36.89715003967285
1618836834.7635,22.89825,36.91278004646301
1618836834.77913,15.00795,36.928410053253174
1618836834.79475,0.8735313,36.94403004646301
1618836834.81038,-16.85324,36.959660053253174
1618836834.826,-34.0451,36.97528004646301
1618836834.84163,-46.51875,36.990910053253174
1618836834.85725,-51.5086,37.00653004646301
1618836834.87288,-48.49741,37.022160053253174
1618836834.88851,-39.1304,37.037790060043335
1618836834.90413,-26.25669,37.053410053253174
1618836834.91976,-12.777,37.069040060043335
1618836834.93538,-0.736846,37.084660053253174
1618836834.95101,8.912688,37.100290060043335
1618836834.96663,16.04564,37.115910053253174
1618836834.98226,20.86057,37.131540060043335
1618836834.99789,23.55437,37.147170066833496
1618836835.01351,24.23646,37.162790060043335
1618836835.02914,23.10232,37.178420066833496
1618836835.04476,20.56335,37.194040060043335
1618836835.06039,17.25416,37.209670066833496
1618836835.07601,13.86619,37.225290060043335
1618836835.09164,10.9218,37.240920066833496
1618836835.10727,8.586356,37.25655007362366
1618836835.12289,6.642626,37.272170066833496
1618836835.13852,4.654406,37.28780007362366
1618836835.15414,2.145901,37.303420066833496
1618836835.16977,-1.105995,37.31905007362366
1618836835.18539,-4.989779,37.334670066833496
1618836835.20102,-9.048298,37.35030007362366
1618836835.21665,-12.66355,37.36593008041382
1618836835.23227,-15.27453,37.38155007362366
1618836835.2479,-16.58355,37.39718008041382
1618836835.26352,-16.66546,37.41280007362366
1618836835.27915,-15.89143,37.42843008041382
1618836835.29477,-14.81181,37.44405007362366
1618836835.3104,-14.02772,37.45968008041382
1618836835.32603,-14.0931,37.47531008720398
1618836835.34165,-15.43736,37.49093008041382
1618836835.35728,-18.31442,37.50656008720398
1618836835.3729,-22.68526,37.52218008041382
1618836835.38853,-28.16047,37.53781008720398
1618836835.40415,-33.97086,37.55343008041382
1618836835.41978,-39.11025,37.56906008720398
1618836835.43541,-42.63892,37.58469009399414
1618836835.45103,-43.96239,37.60031008720398
1618836835.46666,-43.06834,37.61594009399414
1618836835.48228,-40.52882,37.63156008720398
1618836835.49791,-37.23822,37.64719009399414
1618836835.51353,-34.16482,37.66281008720398
1618836835.52916,-32.04128,37.67844009399414
1618836835.54479,-31.2666,37.6940701007843
1618836835.56041,-31.90319,37.70969009399414
1618836835.57604,-33.69976,37.7253201007843
1618836835.59166,-36.04628,37.74094009399414
1618836835.60729,-38.06752,37.7565701007843
1618836835.62291,-38.73002,37.77219009399414
1618836835.63854,-37.15766,37.7878201007843
1618836835.65417,-32.98876,37.80345010757446
1618836835.66979,-26.60629,37.8190701007843
1618836835.68542,-19.08443,37.83470010757446
1618836835.70104,-11.79081,37.8503201007843
1618836835.71667,-5.910202,37.86595010757446
1618836835.73229,-1.93869,37.8815701007843
1618836835.74792,0.4424438,37.89720010757446
1618836835.76355,2.175114,37.912830114364624
1618836835.77917,4.40863,37.92845010757446
1618836835.7948,8.117275,37.944080114364624
1618836835.81042,13.81515,37.95970010757446
1618836835.82605,21.54575,37.975330114364624
1618836835.84167,30.94986,37.99095010757446
1618836835.8573,41.29787,38.006580114364624
1618836835.87293,51.58004,38.022210121154785
1618836835.88855,60.60658,38.037830114364624
1618836835.90418,67.26031,38.053460121154785
1618836835.9198,70.83129,38.069080114364624
1618836835.93543,71.29354,38.084710121154785
1618836835.95105,69.37825,38.100330114364624
1618836835.96668,66.34851,38.115960121154785
1618836835.98231,63.50427,38.131590127944946
1618836835.99793,61.71536,38.147210121154785
1618836836.01356,61.14451,38.162840127944946
1618836836.02918,61.33371,38.178460121154785
1618836836.04481,61.6144,38.194090127944946
1618836836.06044,61.5258,38.20972013473511
1618836836.07606,61.13692,38.225340127944946
1618836836.09169,61.0332,38.24097013473511
1618836836.10731,62.00458,38.256590127944946
1618836836.12294,64.68126,38.27222013473511
1618836836.13856,69.24858,38.287840127944946
1618836836.15419,75.42078,38.30347013473511
1618836836.16982,82.48701,38.31910014152527
1618836836.18544,89.46323,38.33472013473511
1618836836.20107,95.12965,38.35035014152527
1618836836.21669,98.05109,38.36597013473511
1618836836.23232,96.73668,38.38160014152527
1618836836.24794,89.94051,38.39722013473511
1618836836.26357,77.19273,38.41285014152527
1618836836.2792,59.16192,38.42848014831543
1618836836.29482,37.64789,38.44410014152527
1618836836.31045,15.11897,38.45973014831543
1618836836.32607,-6.119507,38.47535014152527
1618836836.3417,-24.56797,38.49098014831543
1618836836.35732,-39.81647,38.50660014152527
1618836836.37295,-52.21795,38.52223014831543
1618836836.38858,-62.31955,38.53786015510559
1618836836.4042,-70.36614,38.55348014831543
1618836836.41983,-76.1767,38.56911015510559
1618836836.43545,-79.40788,38.58473014831543
1618836836.45108,-79.92419,38.60036015510559
1618836836.4667,-78.02578,38.61598014831543
1618836836.48233,-74.36628,38.63161015510559
1618836836.49796,-69.65642,38.64724016189575
1618836836.51358,-64.36168,38.66286015510559
1618836836.52921,-58.63679,38.67849016189575
1618836836.54483,-52.43521,38.69411015510559
1618836836.56046,-45.74374,38.70974016189575
1618836836.57608,-38.78682,38.72536015510559
1618836836.59171,-32.00111,38.74099016189575
1618836836.60734,-25.91993,38.75662016868591
1618836836.62296,-20.9483,38.77224016189575
1618836836.63859,-17.24255,38.78787016868591
1618836836.65421,-14.62078,38.80349016189575
1618836836.66984,-12.68352,38.81912016868591
1618836836.68546,-10.95978,38.83474016189575
1618836836.70109,-9.076624,38.85037016868591
1618836836.71672,-6.883872,38.866000175476074
1618836836.73234,-4.436858,38.88162016868591
1618836836.74797,-1.946851,38.897250175476074
1618836836.76359,0.3317986,38.91287016868591
1618836836.77922,2.194566,38.928500175476074
1618836836.79484,3.521843,38.94412016868591
1618836836.81047,4.312069,38.959750175476074
1618836836.8261,4.653229,38.975380182266235
1618836836.84172,4.667933,38.991000175476074
1618836836.85735,4.447648,39.006630182266235
1618836836.87297,4.039551,39.022250175476074
1618836836.8886,3.492474,39.037880182266235
1618836836.90422,2.886646,39.053500175476074
1618836836.91985,2.290949,39.069130182266235
1618836836.93548,1.734586,39.0847601890564
1618836836.9511,1.214882,39.100380182266235
1618836836.96673,0.6578541,39.1160101890564
1618836836.98235,-0.03096509,39.131630182266235
1618836836.99798,-0.9474635,39.1472601890564
1618836837.0136,-2.125571,39.162880182266235
1618836837.02923,-3.498373,39.1785101890564
1618836837.04486,-4.961152,39.19413995742798
1618836837.06048,-6.565642,39.2097601890564
1618836837.07611,-8.545646,39.22538995742798
1618836837.09173,-11.29768,39.2410101890564
1618836837.10736,-15.24219,39.25663995742798
1618836837.12298,-20.6208,39.2722601890564
1618836837.13861,-27.41227,39.28788995742798
1618836837.15424,-35.23356,39.30351996421814
1618836837.16986,-43.18719,39.31913995742798
1618836837.18549,-50.17831,39.33476996421814
1618836837.20111,-55.30587,39.35038995742798
1618836837.21674,-58.11757,39.36601996421814
1618836837.23236,-58.62314,39.38163995742798
1618836837.24799,-57.14471,39.39726996421814
1618836837.26362,-54.16188,39.4128999710083
1618836837.27924,-50.19032,39.42851996421814
1618836837.29487,-45.63464,39.4441499710083
1618836837.31049,-40.45489,39.45976996421814
1618836837.32612,-34.48601,39.4753999710083
1618836837.34174,-27.86998,39.49101996421814
1618836837.35737,-21.22032,39.5066499710083
1618836837.373,-15.33211,39.52227997779846
1618836837.38862,-10.71666,39.5378999710083
1618836837.40425,-7.434898,39.55352997779846
1618836837.41987,-5.167864,39.5691499710083
1618836837.4355,-3.453373,39.58477997779846
1618836837.45112,-1.384426,39.6003999710083
1618836837.46675,1.736282,39.61602997779846
1618836837.48238,5.72607,39.63165998458862
1618836837.498,9.501904,39.64727997779846
1618836837.51363,11.73992,39.66290998458862
1618836837.52925,11.73132,39.67852997779846
1618836837.54488,9.787296,39.69415998458862
1618836837.5605,7.156475,39.70977997779846
1618836837.57613,5.720764,39.72540998458862
1618836837.59176,8.253754,39.741039991378784
1618836837.60738,17.23737,39.75665998458862
1618836837.62301,33.59523,39.772289991378784
1618836837.63863,56.11662,39.78790998458862
1618836837.65426,81.98334,39.803539991378784
1618836837.66988,107.8526,39.81915998458862
1618836837.68551,130.8011,39.834789991378784
1618836837.70114,148.934,39.850419998168945
1618836837.71676,156.1169,39.866039991378784
1618836837.73239,148.9046,39.881669998168945
1618836837.74801,129.6369,39.897289991378784
1618836837.76364,106.4757,39.912919998168945
1618836837.77926,88.60636,39.928539991378784
1618836837.79489,81.4449,39.944169998168945
1618836837.81052,85.41175,39.959800004959106
1618836837.82614,97.34326,39.975419998168945
1618836837.84177,112.5255,39.991050004959106
1618836837.85739,129.12,40.006669998168945
1618836837.87302,144.7733,40.022300004959106
1618836837.88864,157.8097,40.037919998168945
1618836837.90427,166.7324,40.053550004959106
1618836837.9199,170.0074,40.06918001174927
1618836837.93552,166.5327,40.084800004959106
1618836837.95115,156.3136,40.10043001174927
1618836837.96677,140.5486,40.116050004959106
1618836837.9824,121.2106,40.13168001174927
1618836837.99802,98.24762,40.147300004959106
1618836838.01365,73.77649,40.16293001174927
1618836838.02928,50.06201,40.17856001853943
1618836838.0449,28.48721,40.19418001174927
1618836838.06053,9.355164,40.20981001853943
1618836838.07615,-7.478981,40.22543001174927
1618836838.09178,-21.95278,40.24106001853943
1618836838.1074,-33.64545,40.25668001174927
1618836838.12303,-42.09612,40.27231001853943
1618836838.13866,-47.10868,40.28794002532959
1618836838.15428,-48.44904,40.30356001853943
1618836838.16991,-46.32312,40.31919002532959
1618836838.18553,-41.49434,40.33481001853943
1618836838.20116,-35.24767,40.35044002532959
1618836838.21678,-28.97978,40.36606001853943
1618836838.23241,-23.83507,40.38169002532959
1618836838.24804,-20.56541,40.39732003211975
1618836838.26366,-19.50946,40.41294002532959
1618836838.27929,-20.70627,40.42857003211975
1618836838.29491,-23.58252,40.44419002532959
1618836838.31054,-27.39043,40.45982003211975
1618836838.32616,-31.42728,40.47544002532959
1618836838.34179,-35.23286,40.49107003211975
1618836838.35742,-38.64734,40.50670003890991
1618836838.37304,-41.76239,40.52232003211975
1618836838.38867,-44.83002,40.53795003890991
1618836838.40429,-48.17032,40.55357003211975
1618836838.41992,-52.03214,40.56920003890991
1618836838.43554,-56.31189,40.58482003211975
1618836838.45117,-60.73785,40.60045003890991
1618836838.4668,-65.0065,40.61608004570007
1618836838.48242,-68.87115,40.63170003890991
1618836838.49805,-72.18387,40.64733004570007
1618836838.51367,-74.8786,40.66295003890991
1618836838.5293,-76.91583,40.67858004570007
1618836838.54492,-78.27969,40.69420003890991
1618836838.56055,-79.01031,40.70983004570007
1618836838.57618,-79.17697,40.725460052490234
1618836838.5918,-78.94873,40.74108004570007
1618836838.60743,-78.52917,40.756710052490234
1618836838.62305,-78.10165,40.77233004570007
1618836838.63868,-77.79034,40.787960052490234
1618836838.6543,-77.65073,40.80358004570007
1618836838.66993,-77.65793,40.819210052490234
1618836838.68556,-77.73096,40.834840059280396
1618836838.70118,-77.74463,40.850460052490234
1618836838.71681,-77.57938,40.866090059280396
1618836838.73243,-77.28146,40.881710052490234
1618836838.74806,-77.08783,40.897340059280396
1618836838.76369,-77.34579,40.91297006607056
1618836838.77931,-78.33765,40.928590059280396
1618836838.79494,-80.03186,40.94422006607056
1618836838.81056,-81.92847,40.959840059280396
1618836838.82619,-83.11768,40.97547006607056
1618836838.84181,-82.55807,40.991090059280396
1618836838.85744,-79.47772,41.00672006607056
1618836838.87307,-73.64871,41.02235007286072
1618836838.88869,-65.49918,41.03797006607056
1618836838.90432,-55.89764,41.05360007286072
1618836838.91994,-45.82901,41.06922006607056
1618836838.93557,-36.08109,41.08485007286072
