timestamp,value,norm_ts
1618820821.9737,-12.87786,1.4705901145935059
1618820821.98932,-14.17605,1.4862101078033447
1618820822.00495,-15.00896,1.5018401145935059
1618820822.02057,-15.71991,1.5174601078033447
1618820822.0362,-16.75803,1.5330901145935059
1618820822.05182,-18.45965,1.5487101078033447
1618820822.06745,-20.81678,1.5643401145935059
1618820822.08308,-23.40772,1.579970121383667
1618820822.0987,-25.58125,1.5955901145935059
1618820822.11433,-26.6216,1.611220121383667
1618820822.12995,-26.03621,1.6268401145935059
1618820822.14558,-23.74453,1.642470121383667
1618820822.1612,-20.08723,1.6580901145935059
1618820822.17683,-15.69854,1.673720121383667
1618820822.19246,-11.25407,1.6893501281738281
1618820822.20808,-7.25943,1.704970121383667
1618820822.22371,-3.933144,1.7206001281738281
1618820822.23933,-1.343498,1.736220121383667
1618820822.25496,0.5858612,1.7518501281738281
1618820822.27058,1.907593,1.767470121383667
1618820822.28621,2.613022,1.7831001281738281
1618820822.30184,2.70369,1.7987301349639893
1618820822.31746,2.239471,1.8143501281738281
1618820822.33309,1.362274,1.8299801349639893
1618820822.34871,0.2669678,1.8456001281738281
1618820822.36434,-0.8054657,1.8612301349639893
1618820822.37996,-1.706223,1.8768501281738281
1618820822.39559,-2.391205,1.8924801349639893
1618820822.41122,-2.923828,1.9081101417541504
1618820822.42684,-3.435272,1.9237301349639893
1618820822.44247,-4.06517,1.9393601417541504
1618820822.45809,-4.924927,1.9549801349639893
1618820822.47372,-6.057297,1.9706101417541504
1618820822.48934,-7.450134,1.9862301349639893
1618820822.50497,-9.021317,2.0018601417541504
1618820822.5206,-10.67192,2.0174901485443115
1618820822.53622,-12.30652,2.0331101417541504
1618820822.55185,-13.86482,2.0487401485443115
1618820822.56747,-15.30002,2.0643601417541504
1618820822.5831,-16.57864,2.0799901485443115
1618820822.59872,-17.66544,2.0956101417541504
1618820822.61435,-18.57912,2.1112401485443115
1618820822.62998,-19.39905,2.1268701553344727
1618820822.6456,-20.20816,2.1424901485443115
1618820822.66123,-21.02426,2.1581201553344727
1618820822.67685,-21.67503,2.1737401485443115
1618820822.69248,-21.86174,2.1893701553344727
1618820822.7081,-21.17381,2.2049901485443115
1618820822.72373,-19.38634,2.2206201553344727
1618820822.73936,-16.44467,2.236250162124634
1618820822.75498,-12.64136,2.2518701553344727
1618820822.77061,-8.481613,2.267500162124634
1618820822.78623,-4.492401,2.2831201553344727
1618820822.80186,-1.041977,2.298750162124634
1618820822.81748,1.748032,2.3143701553344727
1618820822.83311,3.91803,2.330000162124634
1618820822.84874,5.550751,2.345630168914795
1618820822.86436,6.609756,2.361250162124634
1618820822.87999,7.021881,2.376880168914795
1618820822.89561,6.688293,2.392500162124634
1618820822.91124,5.678207,2.408130168914795
1618820822.92686,4.285202,2.423750162124634
1618820822.94249,2.9758,2.439380168914795
1618820822.95812,2.18573,2.455010175704956
1618820822.97374,2.117554,2.470630168914795
1618820822.98937,2.689911,2.486260175704956
1618820823.00499,3.554977,2.501880168914795
1618820823.02062,4.338287,2.517510175704956
1618820823.03624,4.733246,2.533130168914795
1618820823.05187,4.597092,2.548760175704956
1618820823.0675,3.957138,2.564390182495117
1618820823.08312,2.947083,2.580010175704956
1618820823.09875,1.71666,2.595640182495117
1618820823.11437,0.38591,2.611260175704956
1618820823.13,-0.9790344,2.626890182495117
1618820823.14562,-2.382385,2.642510175704956
1618820823.16125,-3.836441,2.658140182495117
1618820823.17688,-5.394913,2.673769950866699
1618820823.1925,-7.146942,2.689390182495117
1618820823.20813,-9.074646,2.705019950866699
1618820823.22375,-11.07516,2.720640182495117
1618820823.23938,-12.93118,2.736269950866699
1618820823.255,-14.31502,2.751890182495117
1618820823.27063,-14.95512,2.767519950866699
1618820823.28626,-14.63451,2.7831499576568604
1618820823.30188,-13.25958,2.798769950866699
1618820823.31751,-10.88634,2.8143999576568604
1618820823.33313,-7.7686,2.830019950866699
1618820823.34876,-4.291641,2.8456499576568604
1618820823.36438,-0.9484711,2.861269950866699
1618820823.38001,1.847382,2.8768999576568604
1618820823.39564,3.837341,2.8925299644470215
1618820823.41126,4.980484,2.9081499576568604
1618820823.42689,5.418335,2.9237799644470215
1618820823.44251,5.383118,2.9393999576568604
1618820823.45814,5.084015,2.9550299644470215
1618820823.47377,4.664032,2.9706599712371826
1618820823.48939,4.259155,2.9862799644470215
1618820823.50502,3.975159,3.0019099712371826
1618820823.52064,3.983429,3.0175299644470215
1618820823.53627,4.343781,3.0331599712371826
1618820823.55189,5.005524,3.0487799644470215
1618820823.56752,5.716125,3.0644099712371826
1618820823.58315,6.115082,3.0800399780273438
1618820823.59877,5.859039,3.0956599712371826
1618820823.6144,4.802307,3.1112899780273438
1618820823.63002,3.027893,3.1269099712371826
1618820823.64565,0.8135986,3.1425399780273438
1618820823.66127,-1.465363,3.1581599712371826
1618820823.6769,-3.48465,3.1737899780273438
1618820823.69253,-5.049927,3.189419984817505
1618820823.70815,-6.15329,3.2050399780273438
1618820823.72378,-6.931427,3.220669984817505
1618820823.7394,-7.657318,3.2362899780273438
1618820823.75503,-8.64032,3.251919984817505
1618820823.77065,-10.14459,3.2675399780273438
1618820823.78628,-12.21298,3.283169984817505
1618820823.80191,-14.65823,3.298799991607666
1618820823.81753,-16.9541,3.314419984817505
1618820823.83316,-18.43909,3.330049991607666
1618820823.84878,-18.51364,3.345669984817505
1618820823.86441,-16.92322,3.361299991607666
1618820823.88003,-13.84305,3.376919984817505
1618820823.89566,-9.817322,3.392549991607666
1618820823.91129,-5.550507,3.408179998397827
1618820823.92691,-1.580719,3.423799991607666
1618820823.94254,1.78186,3.439429998397827
1618820823.95816,4.492584,3.455049991607666
1618820823.97379,6.552673,3.470679998397827
1618820823.98941,7.995239,3.486299991607666
1618820824.00504,8.747986,3.501929998397827
1618820824.02067,8.771301,3.5175600051879883
1618820824.03629,8.090179,3.533179998397827
1618820824.05192,6.854156,3.5488100051879883
1618820824.06754,5.2836,3.564429998397827
1618820824.08317,3.600403,3.5800600051879883
1618820824.09879,1.937592,3.595679998397827
1618820824.11442,0.3113708,3.6113100051879883
1618820824.13005,-1.301636,3.6269400119781494
1618820824.14567,-2.898865,3.6425600051879883
1618820824.1613,-4.447449,3.6581900119781494
1618820824.17692,-5.839874,3.6738100051879883
1618820824.19255,-6.96936,3.6894400119781494
1618820824.20817,-7.724182,3.7050600051879883
1618820824.2238,-8.054596,3.7206900119781494
1618820824.23943,-7.99411,3.7363200187683105
1618820824.25505,-7.692108,3.7519400119781494
1618820824.27068,-7.402618,3.7675700187683105
1618820824.2863,-7.395782,3.7831900119781494
1618820824.30193,-7.910004,3.7988200187683105
1618820824.31755,-9.052856,3.8144400119781494
1618820824.33318,-10.82547,3.8300700187683105
1618820824.34881,-13.12576,3.8457000255584717
1618820824.36443,-15.74414,3.8613200187683105
1618820824.38006,-18.42148,3.8769500255584717
1618820824.39568,-20.74387,3.8925700187683105
1618820824.41131,-22.20813,3.9082000255584717
1618820824.42693,-22.28162,3.9238200187683105
1618820824.44256,-20.66357,3.9394500255584717
1618820824.45819,-17.41544,3.955080032348633
1618820824.47381,-13.02982,3.9707000255584717
1618820824.48944,-8.305695,3.986330032348633
1618820824.50506,-3.972443,4.001950025558472
1618820824.52069,-0.5087891,4.017580032348633
1618820824.53631,2.011658,4.033200025558472
1618820824.55194,3.815796,4.048830032348633
1618820824.56757,5.166107,4.064460039138794
1618820824.58319,6.214569,4.080080032348633
1618820824.59882,6.967773,4.095710039138794
1618820824.61444,7.386627,4.111330032348633
1618820824.63007,7.5177,4.126960039138794
1618820824.64569,7.540009,4.142580032348633
1618820824.66132,7.672241,4.158210039138794
1618820824.67695,8.048248,4.173840045928955
1618820824.69257,8.707031,4.189460039138794
1618820824.7082,9.472382,4.205090045928955
1618820824.72382,10.17535,4.220710039138794
1618820824.73945,10.63943,4.236340045928955
1618820824.75507,10.73563,4.251960039138794
1618820824.7707,10.33432,4.267590045928955
1618820824.78633,9.393921,4.283220052719116
1618820824.80195,7.940338,4.298840045928955
1618820824.81758,6.059784,4.314470052719116
1618820824.8332,3.966766,4.330090045928955
1618820824.84883,1.821075,4.345720052719116
1618820824.86445,-0.2475281,4.361340045928955
1618820824.88008,-2.223267,4.376970052719116
1618820824.89571,-4.222473,4.392600059509277
1618820824.91133,-6.427063,4.408220052719116
1618820824.92696,-8.912109,4.423850059509277
1618820824.94258,-11.55283,4.439470052719116
1618820824.95821,-14.06284,4.455100059509277
1618820824.97383,-15.94858,4.470720052719116
1618820824.98946,-16.78592,4.486350059509277
1618820825.00509,-16.25494,4.5019800662994385
1618820825.02071,-14.32135,4.517600059509277
1618820825.03634,-11.23068,4.5332300662994385
1618820825.05196,-7.389404,4.548850059509277
1618820825.06759,-3.211975,4.5644800662994385
1618820825.08321,0.9787598,4.580100059509277
1618820825.09884,4.986969,4.5957300662994385
1618820825.11447,8.684235,4.6113600730896
1618820825.13009,11.87091,4.6269800662994385
1618820825.14572,14.29504,4.6426100730896
1618820825.16134,15.7005,4.6582300662994385
1618820825.17697,15.89502,4.6738600730896
1618820825.19259,14.94183,4.6894800662994385
1618820825.20822,13.16266,4.7051100730896
1618820825.22385,11.0285,4.720740079879761
1618820825.23947,9.00592,4.7363600730896
1618820825.2551,7.418213,4.751990079879761
1618820825.27072,6.339264,4.7676100730896
1618820825.28635,5.624115,4.783240079879761
1618820825.30197,5.046021,4.7988600730896
1618820825.3176,4.395874,4.814490079879761
1618820825.33323,3.566803,4.830120086669922
1618820825.34885,2.634735,4.845740079879761
1618820825.36448,1.771301,4.861370086669922
1618820825.3801,1.173279,4.876990079879761
1618820825.39573,0.9931946,4.892620086669922
1618820825.41135,1.268585,4.908240079879761
1618820825.42698,1.886688,4.923870086669922
1618820825.44261,2.718323,4.939500093460083
1618820825.45823,3.629456,4.955120086669922
1618820825.47386,4.414825,4.970750093460083
1618820825.48948,4.836182,4.986370086669922
1618820825.50511,4.563232,5.002000093460083
1618820825.52073,3.349548,5.017620086669922
1618820825.53636,1.135071,5.033250093460083
1618820825.55199,-1.807709,5.048880100250244
1618820825.56761,-4.909821,5.064500093460083
1618820825.58324,-7.383759,5.080130100250244
1618820825.59886,-8.497864,5.095750093460083
1618820825.61449,-7.886078,5.111380100250244
1618820825.63012,-5.658081,5.127010107040405
1618820825.64574,-2.401306,5.142630100250244
1618820825.66137,1.040833,5.158260107040405
1618820825.67699,3.864227,5.173880100250244
1618820825.69262,5.566071,5.189510107040405
1618820825.70824,6.093384,5.205130100250244
1618820825.72387,5.77948,5.220760107040405
1618820825.7395,5.173279,5.236390113830566
1618820825.75512,4.773529,5.252010107040405
1618820825.77075,4.833862,5.267640113830566
1618820825.78637,5.262634,5.283260107040405
1618820825.802,5.689301,5.298890113830566
1618820825.81762,5.70874,5.314510107040405
1618820825.83325,5.046478,5.330140113830566
1618820825.84888,3.724243,5.3457701206207275
1618820825.8645,1.990662,5.361390113830566
1618820825.88013,0.2876587,5.3770201206207275
1618820825.89575,-0.992981,5.392640113830566
1618820825.91138,-1.545105,5.4082701206207275
1618820825.927,-1.32605,5.423890113830566
1618820825.94263,-0.5578613,5.4395201206207275
1618820825.95826,0.3826294,5.455150127410889
1618820825.97388,0.9939575,5.4707701206207275
1618820825.98951,0.8743286,5.486400127410889
1618820826.00513,-0.2348328,5.5020201206207275
1618820826.02076,-2.288971,5.517650127410889
1618820826.03638,-5.013611,5.5332701206207275
1618820826.05201,-7.960785,5.548900127410889
1618820826.06764,-10.70056,5.56453013420105
1618820826.08326,-12.86053,5.580150127410889
1618820826.09889,-14.20386,5.59578013420105
1618820826.11451,-14.59756,5.611400127410889
1618820826.13014,-13.98154,5.62703013420105
1618820826.14576,-12.3779,5.642650127410889
1618820826.16139,-9.900604,5.65828013420105
1618820826.17702,-6.821503,5.673910140991211
1618820826.19264,-3.540039,5.68953013420105
1618820826.20827,-0.4828491,5.705160140991211
1618820826.22389,2.000854,5.72078013420105
1618820826.23952,3.707184,5.736410140991211
1618820826.25514,4.613098,5.75203013420105
1618820826.27077,4.82666,5.767660140991211
1618820826.2864,4.513489,5.783290147781372
1618820826.30202,3.800751,5.798910140991211
1618820826.31765,2.780853,5.814540147781372
1618820826.33327,1.542664,5.830160140991211
1618820826.3489,0.23703,5.845790147781372
1618820826.36452,-0.9186707,5.861410140991211
1618820826.38015,-1.709015,5.877040147781372
1618820826.39578,-1.983887,5.892670154571533
1618820826.4114,-1.72467,5.908290147781372
1618820826.42703,-1.089203,5.923920154571533
1618820826.44265,-0.3361206,5.939540147781372
1618820826.45828,0.2846985,5.955170154571533
1618820826.4739,0.5850525,5.970790147781372
1618820826.48953,0.5298462,5.986420154571533
1618820826.50516,0.1824036,6.002050161361694
1618820826.52078,-0.3939819,6.017670154571533
1618820826.53641,-1.145233,6.033300161361694
1618820826.55203,-2.099854,6.048920154571533
1618820826.56766,-3.337585,6.064550161361694
1618820826.58328,-4.890594,6.080170154571533
1618820826.59891,-6.701385,6.095800161361694
1618820826.61454,-8.616394,6.1114301681518555
1618820826.63016,-10.39923,6.127050161361694
1618820826.64579,-11.75107,6.1426801681518555
1618820826.66141,-12.4006,6.158300161361694
1618820826.67704,-12.10297,6.1739301681518555
1618820826.69266,-10.71475,6.189550161361694
1618820826.70829,-8.240784,6.2051801681518555
1618820826.72392,-4.894989,6.220810174942017
1618820826.73954,-1.039642,6.2364301681518555
1618820826.75517,2.844269,6.252060174942017
1618820826.77079,6.268005,6.2676801681518555
1618820826.78642,8.885223,6.283310174942017
1618820826.80204,10.49222,6.2989301681518555
1618820826.81767,11.05859,6.314560174942017
1618820826.8333,10.6658,6.330190181732178
1618820826.84892,9.501556,6.345810174942017
1618820826.86455,7.773682,6.361440181732178
1618820826.88017,5.831635,6.377060174942017
1618820826.8958,4.041199,6.392690181732178
1618820826.91142,2.771637,6.408310174942017
1618820826.92705,2.205658,6.423940181732178
1618820826.94268,2.314087,6.43956995010376
1618820826.9583,2.868896,6.455190181732178
1618820826.97393,3.540344,6.47081995010376
1618820826.98955,4.051117,6.486440181732178
1618820827.00518,4.215607,6.50206995010376
1618820827.0208,4.024109,6.517690181732178
1618820827.03643,3.522217,6.53331995010376
1618820827.05206,2.782043,6.548949956893921
1618820827.06768,1.839539,6.56456995010376
1618820827.08331,0.651947,6.580199956893921
1618820827.09893,-0.8183594,6.59581995010376
1618820827.11456,-2.564209,6.611449956893921
1618820827.13018,-4.526215,6.62706995010376
1618820827.14581,-6.580048,6.642699956893921
1618820827.16144,-8.550934,6.658329963684082
1618820827.17706,-10.20377,6.673949956893921
1618820827.19269,-11.33365,6.689579963684082
1618820827.20831,-11.6861,6.705199956893921
1618820827.22394,-11.11612,6.720829963684082
1618820827.23956,-9.541107,6.736449956893921
1618820827.25519,-7.021545,6.752079963684082
1618820827.27082,-3.830994,6.767709970474243
1618820827.28644,-0.4061584,6.783329963684082
1618820827.30207,2.759308,6.798959970474243
1618820827.31769,5.276764,6.814579963684082
1618820827.33332,6.880157,6.830209970474243
1618820827.34894,7.608978,6.845829963684082
1618820827.36457,7.608978,6.861459970474243
1618820827.3802,7.194672,6.877089977264404
1618820827.39582,6.678131,6.892709970474243
1618820827.41145,6.311554,6.908339977264404
1618820827.42707,6.190094,6.923959970474243
1618820827.4427,6.306366,6.939589977264404
1618820827.45832,6.520599,6.955209970474243
1618820827.47395,6.587646,6.970839977264404
1618820827.48958,6.315674,6.986469984054565
1618820827.5052,5.555756,7.002089977264404
1618820827.52083,4.317474,7.017719984054565
1618820827.53645,2.760529,7.033339977264404
1618820827.55208,1.100525,7.048969984054565
1618820827.5677,-0.4490356,7.064589977264404
1618820827.58333,-1.768005,7.080219984054565
1618820827.59896,-2.867828,7.095849990844727
1618820827.61458,-3.910583,7.111469984054565
1618820827.63021,-5.080475,7.127099990844727
1618820827.64583,-6.553467,7.142719984054565
1618820827.66146,-8.409882,7.158349990844727
1618820827.67708,-10.48071,7.173969984054565
1618820827.69271,-12.42813,7.189599990844727
1618820827.70834,-13.80237,7.205229997634888
1618820827.72396,-14.17038,7.220849990844727
1618820827.73959,-13.31155,7.236479997634888
1618820827.75521,-11.24442,7.252099990844727
1618820827.77084,-8.247101,7.267729997634888
1618820827.78646,-4.765808,7.283349990844727
1618820827.80209,-1.305542,7.298979997634888
1618820827.81772,1.755127,7.314610004425049
1618820827.83334,4.120789,7.330229997634888
1618820827.84897,5.650635,7.345860004425049
1618820827.86459,6.306915,7.361479997634888
1618820827.88022,6.115967,7.377110004425049
1618820827.89584,5.189026,7.392729997634888
1618820827.91147,3.821564,7.408360004425049
1618820827.9271,2.371277,7.42399001121521
1618820827.94272,1.182648,7.439610004425049
1618820827.95835,0.5769348,7.45524001121521
1618820827.97397,0.614502,7.470860004425049
1618820827.9896,1.15329,7.48649001121521
1618820828.00522,1.903687,7.502110004425049
1618820828.02085,2.416382,7.51774001121521
1618820828.03648,2.322296,7.533370018005371
1618820828.0521,1.430267,7.54899001121521
1618820828.06773,-0.1859131,7.564620018005371
1618820828.08335,-2.235138,7.58024001121521
1618820828.09898,-4.29303,7.595870018005371
1618820828.1146,-6.013153,7.61149001121521
1618820828.13023,-7.258789,7.627120018005371
1618820828.14586,-8.127167,7.642750024795532
1618820828.16148,-8.954559,7.658370018005371
1618820828.17711,-10.10181,7.674000024795532
1618820828.19273,-11.67178,7.689620018005371
1618820828.20836,-13.46518,7.705250024795532
1618820828.22398,-14.98318,7.720870018005371
1618820828.23961,-15.64822,7.736500024795532
1618820828.25524,-15.0589,7.752130031585693
1618820828.27086,-13.15195,7.767750024795532
1618820828.28649,-10.14694,7.783380031585693
1618820828.30211,-6.530334,7.799000024795532
1618820828.31774,-2.817413,7.814630031585693
1618820828.33337,0.6056824,7.8302600383758545
1618820828.34899,3.485809,7.845880031585693
1618820828.36462,5.756348,7.8615100383758545
1618820828.38024,7.475067,7.877130031585693
1618820828.39587,8.694885,7.8927600383758545
1618820828.41149,9.444885,7.908380031585693
1618820828.42712,9.7565,7.9240100383758545
1618820828.44275,9.600464,7.939640045166016
1618820828.45837,9.066101,7.9552600383758545
1618820828.474,8.304077,7.970890045166016
1618820828.48962,7.492767,7.9865100383758545
1618820828.50525,6.777618,8.002140045166016
1618820828.52087,6.167084,8.017760038375854
1618820828.5365,5.576843,8.033390045166016
1618820828.55213,4.851288,8.049020051956177
1618820828.56775,3.928253,8.064640045166016
1618820828.58338,2.814636,8.080270051956177
1618820828.599,1.599915,8.095890045166016
1618820828.61463,0.3189697,8.111520051956177
1618820828.63025,-1.211761,8.127140045166016
1618820828.64588,-3.248169,8.142770051956177
1618820828.66151,-5.987793,8.158400058746338
1618820828.67713,-9.434448,8.174020051956177
1618820828.69276,-13.29303,8.189650058746338
1618820828.70838,-17.0993,8.205270051956177
1618820828.72401,-20.44925,8.220900058746338
1618820828.73963,-23.1265,8.236520051956177
1618820828.75526,-25.14157,8.252150058746338
1618820828.77089,-26.63828,8.267780065536499
1618820828.78651,-27.62491,8.283400058746338
1618820828.80214,-27.86877,8.299030065536499
1618820828.81776,-27.03766,8.314650058746338
1618820828.83339,-24.87659,8.330280065536499
1618820828.84901,-21.41602,8.345900058746338
1618820828.86464,-17.11282,8.361530065536499
1618820828.88027,-12.56131,8.37716007232666
1618820828.89589,-8.339935,8.392780065536499
1618820828.91152,-4.876099,8.40841007232666
1618820828.92714,-2.256561,8.424030065536499
1618820828.94277,-0.4325562,8.43966007232666
1618820828.95839,0.6657715,8.455280065536499
1618820828.97402,1.092163,8.47091007232666
1618820828.98965,0.9333496,8.486540079116821
1618820829.00527,0.3379822,8.50216007232666
1618820829.0209,-0.3503723,8.517790079116821
1618820829.03652,-0.7277527,8.53341007232666
1618820829.05215,-0.5702515,8.549040079116821
1618820829.06777,0.1575928,8.56466007232666
1618820829.0834,1.103241,8.580290079116821
1618820829.09903,1.839508,8.595920085906982
1618820829.11465,2.034607,8.611540079116821
1618820829.13028,1.701202,8.627170085906982
1618820829.1459,1.108459,8.642790079116821
1618820829.16153,0.726593,8.658420085906982
1618820829.17715,0.8730164,8.674040079116821
1618820829.19278,1.587982,8.689670085906982
1618820829.20841,2.630859,8.705300092697144
1618820829.22403,3.55069,8.720920085906982
1618820829.23966,3.97641,8.736550092697144
1618820829.25528,3.678558,8.752170085906982
1618820829.27091,2.672546,8.767800092697144
1618820829.28653,1.110321,8.783420085906982
1618820829.30216,-0.7507019,8.799050092697144
1618820829.31779,-2.642609,8.814680099487305
1618820829.33341,-4.282318,8.830300092697144
1618820829.34904,-5.355774,8.845930099487305
1618820829.36466,-5.6474,8.861550092697144
1618820829.38029,-5.030884,8.877180099487305
1618820829.39591,-3.583252,8.892800092697144
1618820829.41154,-1.565186,8.908430099487305
1618820829.42717,0.6422729,8.924060106277466
1618820829.44279,2.689362,8.939680099487305
1618820829.45842,4.281799,8.955310106277466
1618820829.47404,5.329498,8.970930099487305
1618820829.48967,5.946838,8.986560106277466
1618820829.50529,6.334869,9.002180099487305
1618820829.52092,6.775543,9.017810106277466
1618820829.53655,7.444244,9.033440113067627
1618820829.55217,8.382095,9.049060106277466
1618820829.5678,9.441238,9.064690113067627
1618820829.58342,10.36212,9.080310106277466
1618820829.59905,10.84964,9.095940113067627
1618820829.61467,10.67328,9.111560106277466
1618820829.6303,9.855515,9.127190113067627
1618820829.64593,8.568939,9.142820119857788
1618820829.66155,7.181732,9.158440113067627
1618820829.67718,6.03125,9.174070119857788
1618820829.6928,5.391739,9.189690113067627
1618820829.70843,5.264938,9.205320119857788
1618820829.72405,5.473618,9.220940113067627
1618820829.73968,5.703217,9.236570119857788
1618820829.75531,5.587357,9.25220012664795
1618820829.77093,4.932983,9.267820119857788
1618820829.78656,3.72493,9.28345012664795
1618820829.80218,2.166245,9.299070119857788
1618820829.81781,0.5009308,9.31470012664795
1618820829.83343,-1.02597,9.330320119857788
1618820829.84906,-2.377396,9.34595012664795
1618820829.86469,-3.612137,9.36158013343811
1618820829.88031,-4.799255,9.37720012664795
1618820829.89594,-5.914673,9.39283013343811
1618820829.91156,-6.749969,9.40845012664795
1618820829.92719,-6.972519,9.42408013343811
1618820829.94281,-6.198929,9.43970012664795
1618820829.95844,-4.242706,9.45533013343811
1618820829.97407,-1.131622,9.470960140228271
1618820829.98969,2.797806,9.48658013343811
1618820830.00532,6.976288,9.502210140228271
1618820830.02094,10.86647,9.51783013343811
1618820830.03657,13.95604,9.533460140228271
1618820830.05219,16.03659,9.54908013343811
1618820830.06782,17.09552,9.564710140228271
1618820830.08345,17.33049,9.580340147018433
1618820830.09907,16.95215,9.595960140228271
1618820830.1147,16.20526,9.611590147018433
1618820830.13032,15.28276,9.627210140228271
1618820830.14595,14.34996,9.642840147018433
1618820830.16157,13.56932,9.658460140228271
1618820830.1772,12.99783,9.674090147018433
1618820830.19283,12.63942,9.689720153808594
1618820830.20845,12.2343,9.705340147018433
1618820830.22408,11.50354,9.720970153808594
1618820830.2397,10.14435,9.736590147018433
1618820830.25533,8.124802,9.752220153808594
1618820830.27095,5.722351,9.767840147018433
1618820830.28658,3.397919,9.783470153808594
1618820830.30221,1.639374,9.799100160598755
1618820830.31783,0.6649475,9.814720153808594
1618820830.33346,0.364151,9.830350160598755
1618820830.34908,0.2615204,9.845970153808594
1618820830.36471,-0.2129669,9.861600160598755
1618820830.38033,-1.506836,9.877220153808594
1618820830.39596,-3.710541,9.892850160598755
1618820830.41159,-6.506729,9.908480167388916
1618820830.42721,-9.38765,9.924100160598755
1618820830.44284,-11.77039,9.939730167388916
1618820830.45846,-13.25781,9.955350160598755
1618820830.47409,-13.67839,9.970980167388916
1618820830.48971,-13.02794,9.986600160598755
1618820830.50534,-11.45268,10.002230167388916
1618820830.52097,-9.11911,10.017860174179077
1618820830.53659,-6.277939,10.033480167388916
1618820830.55222,-3.185349,10.049110174179077
1618820830.56784,-0.2176971,10.064730167388916
1618820830.58347,2.35675,10.080360174179077
1618820830.5991,4.320313,10.095990180969238
1618820830.61472,5.651825,10.111610174179077
1618820830.63035,6.508545,10.127240180969238
1618820830.64597,7.121521,10.142860174179077
1618820830.6616,7.645493,10.158490180969238
1618820830.67722,8.083633,10.174110174179077
1618820830.69285,8.371094,10.189740180969238
1618820830.70848,8.324844,10.20536994934082
1618820830.7241,7.920288,10.220990180969238
1618820830.73973,7.234024,10.23661994934082
1618820830.75535,6.434326,10.252240180969238
1618820830.77098,5.813507,10.26786994934082
1618820830.7866,5.623215,10.283490180969238
1618820830.80223,5.943314,10.29911994934082
1618820830.81786,6.67894,10.314749956130981
1618820830.83348,7.595078,10.33036994934082
1618820830.84911,8.406769,10.345999956130981
1618820830.86473,8.858185,10.36161994934082
1618820830.88036,8.825043,10.377249956130981
1618820830.89598,8.245468,10.39286994934082
1618820830.91161,7.144165,10.408499956130981
1618820830.92724,5.495361,10.424129962921143
1618820830.94286,3.243591,10.439749956130981
1618820830.95849,0.3669739,10.455379962921143
1618820830.97411,-3.072433,10.470999956130981
1618820830.98974,-6.757309,10.486629962921143
1618820831.00536,-10.21143,10.502249956130981
1618820831.02099,-12.79816,10.517879962921143
1618820831.03662,-13.97852,10.533509969711304
1618820831.05224,-13.41031,10.549129962921143
1618820831.06787,-11.17781,10.564759969711304
1618820831.08349,-7.702087,10.580379962921143
1618820831.09912,-3.642517,10.596009969711304
1618820831.11474,0.2915039,10.611629962921143
1618820831.13037,3.542725,10.627259969711304
1618820831.146,5.781876,10.642889976501465
1618820831.16162,6.967712,10.658509969711304
1618820831.17725,7.279572,10.674139976501465
1618820831.19287,7.023163,10.689759969711304
1618820831.2085,6.425476,10.705389976501465
1618820831.22412,5.652878,10.721009969711304
1618820831.23975,4.781158,10.736639976501465
1618820831.25538,3.81897,10.752269983291626
1618820831.271,2.7854,10.767889976501465
1618820831.28663,1.766876,10.783519983291626
1618820831.30225,0.8586884,10.799139976501465
1618820831.31788,0.15448,10.814769983291626
1618820831.3335,-0.2709503,10.830389976501465
1618820831.34913,-0.3729858,10.846019983291626
1618820831.36476,-0.1716919,10.861649990081787
1618820831.38038,0.3194733,10.877269983291626
1618820831.39601,1.03096,10.892899990081787
1618820831.41163,1.828445,10.908519983291626
1618820831.42726,2.52739,10.924149990081787
1618820831.44288,2.867142,10.939769983291626
1618820831.45851,2.611053,10.955399990081787
1618820831.47414,1.563034,10.971029996871948
1618820831.48976,-0.2389832,10.986649990081787
1618820831.50539,-2.618591,11.002279996871948
1618820831.52101,-5.179901,11.017899990081787
1618820831.53664,-7.492661,11.033529996871948
1618820831.55226,-9.119232,11.049149990081787
1618820831.56789,-9.767258,11.064779996871948
1618820831.58352,-9.27774,11.08041000366211
1618820831.59914,-7.64389,11.096029996871948
1618820831.61477,-5.07077,11.11166000366211
1618820831.63039,-1.857712,11.127279996871948
1618820831.64602,1.563034,11.14291000366211
1618820831.66164,4.755539,11.158529996871948
1618820831.67727,7.334656,11.17416000366211
1618820831.6929,9.062958,11.18979001045227
1618820831.70852,9.891144,11.20541000366211
1618820831.72415,9.916412,11.22104001045227
1618820831.73977,9.380951,11.23666000366211
1618820831.7554,8.467575,11.25229001045227
1618820831.77102,7.352646,11.26791000366211
1618820831.78665,6.148041,11.28354001045227
1618820831.80228,4.996643,11.299170017242432
1618820831.8179,3.994125,11.31479001045227
1618820831.83353,3.217773,11.330420017242432
1618820831.84915,2.691574,11.34604001045227
1618820831.86478,2.321609,11.361670017242432
1618820831.8804,1.991882,11.37729001045227
1618820831.89603,1.549652,11.392920017242432
1618820831.91166,0.8729401,11.408550024032593
1618820831.92728,-0.1210327,11.424170017242432
1618820831.94291,-1.405243,11.439800024032593
1618820831.95853,-2.905136,11.455420017242432
1618820831.97416,-4.485992,11.471050024032593
1618820831.98978,-6.038101,11.486670017242432
1618820832.00541,-7.534714,11.502300024032593
1618820832.02104,-9.049637,11.517930030822754
1618820832.03666,-10.75166,11.533550024032593
1618820832.05229,-12.76634,11.549180030822754
1618820832.06791,-15.08896,11.564800024032593
1618820832.08354,-17.41864,11.580430030822754
1618820832.09916,-19.18292,11.596050024032593
1618820832.11479,-19.72723,11.611680030822754
1618820832.13042,-18.58972,11.627310037612915
1618820832.14604,-15.71886,11.642930030822754
1618820832.16167,-11.4854,11.658560037612915
1618820832.17729,-6.606918,11.674180030822754
1618820832.19292,-1.820572,11.689810037612915
1618820832.20854,2.26619,11.705430030822754
1618820832.22417,5.338364,11.721060037612915
1618820832.2398,7.375488,11.736690044403076
1618820832.25542,8.518478,11.752310037612915
1618820832.27105,8.991089,11.767940044403076
1618820832.28667,8.967926,11.783560037612915
1618820832.3023,8.681946,11.799190044403076
1618820832.31792,8.301178,11.814810037612915
1618820832.33355,7.999619,11.830440044403076
1618820832.34918,7.867874,11.846070051193237
1618820832.3648,7.858505,11.861690044403076
1618820832.38043,7.783905,11.877320051193237
1618820832.39605,7.420746,11.892940044403076
1618820832.41168,6.640762,11.908570051193237
1618820832.4273,5.458725,11.924190044403076
1618820832.44293,4.065796,11.939820051193237
1618820832.45856,2.706512,11.955450057983398
1618820832.47418,1.591034,11.971070051193237
1618820832.48981,0.7886963,11.986700057983398
1618820832.50543,0.2268982,12.002320051193237
1618820832.52106,-0.3182678,12.017950057983398
1618820832.53668,-1.100189,12.033570051193237
1618820832.55231,-2.336136,12.049200057983398
1618820832.56794,-4.148773,12.06483006477356
1618820832.58356,-6.547012,12.080450057983398
1618820832.59919,-9.366379,12.09608006477356
1618820832.61481,-12.21992,12.111700057983398
1618820832.63044,-14.58539,12.12733006477356
1618820832.64606,-15.95183,12.142950057983398
1618820832.66169,-15.93855,12.15858006477356
1618820832.67732,-14.47354,12.17421007156372
1618820832.69294,-11.76324,12.18983006477356
1618820832.70857,-8.196304,12.20546007156372
1618820832.72419,-4.252457,12.22108006477356
1618820832.73982,-0.3020935,12.23671007156372
1618820832.75545,3.391342,12.252340078353882
1618820832.77107,6.69603,12.26796007156372
1618820832.7867,9.49556,12.283590078353882
1618820832.80232,11.62762,12.29921007156372
1618820832.81795,12.94128,12.314840078353882
1618820832.83357,13.35704,12.33046007156372
1618820832.8492,12.95996,12.346090078353882
1618820832.86483,11.97792,12.361720085144043
1618820832.88045,10.75183,12.377340078353882
1618820832.89608,9.605728,12.392970085144043
1618820832.9117,8.751831,12.408590078353882
1618820832.92733,8.279144,12.424220085144043
1618820832.94295,8.120407,12.439840078353882
1618820832.95858,8.164032,12.455470085144043
1618820832.97421,8.229584,12.471100091934204
1618820832.98983,8.187408,12.486720085144043
1618820833.00546,7.915359,12.502350091934204
1618820833.02108,7.373962,12.517970085144043
1618820833.03671,6.577545,12.533600091934204
1618820833.05233,5.575348,12.549220085144043
1618820833.06796,4.438553,12.564850091934204
1618820833.08359,3.21225,12.580480098724365
1618820833.09921,1.875336,12.596100091934204
1618820833.11484,0.3271027,12.611730098724365
1618820833.13046,-1.532608,12.627350091934204
1618820833.14609,-3.720734,12.642980098724365
1618820833.16171,-6.075363,12.658600091934204
1618820833.17734,-8.351791,12.674230098724365
1618820833.19297,-10.27919,12.689860105514526
1618820833.20859,-11.63414,12.705480098724365
1618820833.22422,-12.26678,12.721110105514526
1618820833.23984,-12.05545,12.736730098724365
1618820833.25547,-10.97002,12.752360105514526
1618820833.27109,-9.025528,12.767980098724365
1618820833.28672,-6.328537,12.783610105514526
1618820833.30235,-3.088928,12.799240112304688
1618820833.31797,0.3732758,12.814860105514526
1618820833.3336,3.687042,12.830490112304688
1618820833.34922,6.589432,12.846110105514526
1618820833.36485,8.883682,12.861740112304688
1618820833.38047,10.51514,12.877360105514526
1618820833.3961,11.43985,12.892990112304688
1618820833.41173,11.61171,12.908620119094849
1618820833.42735,11.05099,12.924240112304688
1618820833.44298,9.84877,12.939870119094849
1618820833.4586,8.287399,12.955490112304688
1618820833.47423,6.73613,12.971120119094849
1618820833.48985,5.64682,12.986740112304688
1618820833.50548,5.25914,13.002370119094849
1618820833.52111,5.597763,13.01800012588501
1618820833.53673,6.390213,13.033620119094849
1618820833.55236,7.231644,13.04925012588501
1618820833.56798,7.732712,13.064870119094849
1618820833.58361,7.622284,13.08050012588501
1618820833.59923,6.911011,13.096120119094849
1618820833.61486,5.723495,13.11175012588501
1618820833.63049,4.284317,13.127380132675171
1618820833.64611,2.716965,13.14300012588501
1618820833.66174,1.09021,13.158630132675171
1618820833.67736,-0.6279449,13.17425012588501
1618820833.69299,-2.452682,13.189880132675171
1618820833.70861,-4.388519,13.20550012588501
1618820833.72424,-6.429413,13.221130132675171
1618820833.73987,-8.523407,13.236760139465332
1618820833.75549,-10.606,13.252380132675171
1618820833.77112,-12.56844,13.268010139465332
1618820833.78674,-14.27621,13.283630132675171
1618820833.80237,-15.50862,13.299260139465332
1618820833.81799,-16.03786,13.314880132675171
1618820833.83362,-15.65561,13.330510139465332
1618820833.84925,-14.25903,13.346140146255493
1618820833.86487,-11.94525,13.361760139465332
1618820833.8805,-8.885895,13.377390146255493
1618820833.89612,-5.405701,13.393010139465332
1618820833.91175,-1.811768,13.408640146255493
1618820833.92737,1.666306,13.424260139465332
1618820833.943,4.880829,13.439890146255493
1618820833.95863,7.748154,13.455520153045654
1618820833.97425,10.14441,13.471140146255493
1618820833.98988,11.8945,13.486770153045654
1618820834.0055,12.73509,13.502390146255493
1618820834.02113,12.55769,13.518020153045654
1618820834.03675,11.4752,13.533640146255493
1618820834.05238,9.87291,13.549270153045654
1618820834.06801,8.334244,13.564900159835815
1618820834.08363,7.329163,13.580520153045654
1618820834.09926,7.021545,13.596150159835815
1618820834.11488,7.232956,13.611770153045654
1618820834.13051,7.540878,13.627400159835815
1618820834.14613,7.552155,13.643020153045654
1618820834.16176,7.113831,13.658650159835815
1618820834.17739,6.344162,13.674280166625977
1618820834.19301,5.484558,13.689900159835815
1618820834.20864,4.772156,13.705530166625977
1618820834.22426,4.215149,13.721150159835815
1618820834.23989,3.638901,13.736780166625977
1618820834.25551,2.850494,13.752400159835815
1618820834.27114,1.754852,13.768030166625977
1618820834.28677,0.4445953,13.783660173416138
1618820834.30239,-0.9000702,13.799280166625977
1618820834.31802,-2.091217,13.814910173416138
1618820834.33364,-3.05571,13.830530166625977
1618820834.34927,-3.807663,13.846160173416138
1618820834.36489,-4.390869,13.861780166625977
1618820834.38052,-4.79805,13.877410173416138
1618820834.39615,-4.936996,13.893040180206299
1618820834.41177,-4.653015,13.908660173416138
1618820834.4274,-3.78685,13.924290180206299
1618820834.44302,-2.259201,13.939910173416138
1618820834.45865,-0.1195984,13.955540180206299
1618820834.47427,2.436661,13.971160173416138
1618820834.4899,5.109329,13.986790180206299
1618820834.50553,7.50885,14.00242018699646
1618820834.52115,9.253952,14.018040180206299
1618820834.53678,10.09303,14.03367018699646
1618820834.5524,9.948639,14.049290180206299
1618820834.56803,8.962112,14.06492018699646
1618820834.58365,7.473526,14.080540180206299
1618820834.59928,5.847946,14.09617018699646
1618820834.61491,4.414444,14.111799955368042
1618820834.63053,3.361526,14.12742018699646
1618820834.64616,2.7117,14.143049955368042
1618820834.66178,2.362915,14.15867018699646
1618820834.67741,2.131592,14.174299955368042
1618820834.69303,1.808044,14.18992018699646
1618820834.70866,1.190338,14.205549955368042
1618820834.72429,0.1984558,14.221179962158203
1618820834.73991,-1.13327,14.236799955368042
1618820834.75554,-2.63649,14.252429962158203
1618820834.77116,-4.081421,14.268049955368042
1618820834.78679,-5.267105,14.283679962158203
1618820834.80241,-6.16893,14.299299955368042
1618820834.81804,-6.924881,14.314929962158203
1618820834.83367,-7.804123,14.330559968948364
1618820834.84929,-9.074142,14.346179962158203
1618820834.86492,-10.87146,14.361809968948364
1618820834.88054,-13.13509,14.377429962158203
1618820834.89617,-15.63612,14.393059968948364
1618820834.91179,-18.07179,14.408679962158203
1618820834.92742,-20.13382,14.424309968948364
1618820834.94305,-21.62006,14.439939975738525
1618820834.95867,-22.41769,14.455559968948364
1618820834.9743,-22.50706,14.471189975738525
1618820834.98992,-21.88249,14.486809968948364
1618820835.00555,-20.55322,14.502439975738525
1618820835.02117,-18.60828,14.518059968948364
1618820835.0368,-16.19205,14.533689975738525
1618820835.05243,-13.53418,14.549319982528687
1618820835.06805,-10.90726,14.564939975738525
1618820835.08368,-8.540558,14.580569982528687
1618820835.0993,-6.542572,14.596189975738525
1618820835.11493,-4.924179,14.611819982528687
1618820835.13055,-3.573151,14.627439975738525
1618820835.14618,-2.363586,14.643069982528687
1618820835.16181,-1.25621,14.658699989318848
1618820835.17743,-0.3035583,14.674319982528687
1618820835.19306,0.3908386,14.689949989318848
1618820835.20868,0.7272797,14.705569982528687
1618820835.22431,0.5954895,14.721199989318848
1618820835.23993,-0.01856995,14.736819982528687
1618820835.25556,-1.130463,14.752449989318848
1618820835.27119,-2.705978,14.768079996109009
1618820835.28681,-4.620667,14.783699989318848
1618820835.30244,-6.696976,14.799329996109009
1618820835.31806,-8.748871,14.814949989318848
1618820835.33369,-10.55846,14.830579996109009
1618820835.34931,-11.95464,14.846199989318848
1618820835.36494,-12.83755,14.861829996109009
1618820835.38057,-13.16632,14.87746000289917
1618820835.39619,-12.97015,14.893079996109009
1618820835.41182,-12.33842,14.90871000289917
1618820835.42744,-11.44514,14.924329996109009
1618820835.44307,-10.48732,14.93996000289917
1618820835.4587,-9.71077,14.955590009689331
1618820835.47432,-9.347641,14.97121000289917
1618820835.48995,-9.622574,14.986840009689331
1618820835.50557,-10.63069,15.00246000289917
1618820835.5212,-12.35425,15.018090009689331
1618820835.53682,-14.50345,15.03371000289917
1618820835.55245,-16.55801,15.049340009689331
1618820835.56808,-17.81384,15.064970016479492
1618820835.5837,-17.56654,15.080590009689331
1618820835.59933,-15.42828,15.096220016479492
1618820835.61495,-11.49847,15.111840009689331
1618820835.63058,-6.371277,15.127470016479492
1618820835.6462,-0.9062729,15.143090009689331
1618820835.66183,4.092407,15.158720016479492
1618820835.67746,8.170998,15.174350023269653
1618820835.69308,11.20064,15.189970016479492
1618820835.70871,13.32796,15.205600023269653
1618820835.72433,14.67373,15.221220016479492
1618820835.73996,15.22341,15.236850023269653
1618820835.75558,14.88823,15.252470016479492
1618820835.77121,13.63051,15.268100023269653
1618820835.78684,11.63628,15.283730030059814
1618820835.80246,9.367371,15.299350023269653
1618820835.81809,7.428322,15.314980030059814
1618820835.83371,6.353065,15.330600023269653
1618820835.84934,6.489037,15.346230030059814
1618820835.86496,7.824791,15.361850023269653
1618820835.88059,10.00797,15.377480030059814
1618820835.89622,12.45241,15.393110036849976
1618820835.91184,14.58443,15.408730030059814
1618820835.92747,15.95325,15.424360036849976
1618820835.94309,16.38797,15.439980030059814
1618820835.95872,15.87614,15.455610036849976
1618820835.97434,14.54202,15.471230030059814
1618820835.98997,12.51088,15.486860036849976
1618820836.0056,9.944191,15.502490043640137
1618820836.02122,6.986885,15.518110036849976
1618820836.03685,3.897446,15.533740043640137
1618820836.05247,0.9241714,15.549360036849976
1618820836.0681,-1.71965,15.564990043640137
1618820836.08372,-3.886673,15.580610036849976
1618820836.09935,-5.556473,15.596240043640137
1618820836.11498,-6.663445,15.611870050430298
1618820836.1306,-7.093201,15.627490043640137
1618820836.14623,-6.655899,15.643120050430298
1618820836.16185,-5.290359,15.658740043640137
1618820836.17748,-3.083672,15.674370050430298
1618820836.1931,-0.4348373,15.689990043640137
1618820836.20873,2.119469,15.705620050430298
1618820836.22436,4.160622,15.721250057220459
1618820836.23998,5.532181,15.736870050430298
1618820836.25561,6.382874,15.752500057220459
1618820836.27123,6.963348,15.768120050430298
1618820836.28686,7.463882,15.783750057220459
1618820836.30248,7.870636,15.799370050430298
1618820836.31811,8.051125,15.815000057220459
1618820836.33374,7.83918,15.83063006401062
1618820836.34936,7.27961,15.846250057220459
1618820836.36499,6.59491,15.86188006401062
1618820836.38061,6.102425,15.877500057220459
1618820836.39624,5.995346,15.89313006401062
1618820836.41186,6.26239,15.908750057220459
1618820836.42749,6.654778,15.92438006401062
1618820836.44312,6.903465,15.940010070800781
1618820836.45874,6.859695,15.95563006401062
1618820836.47437,6.51944,15.971260070800781
1618820836.48999,6.013897,15.98688006401062
1618820836.50562,5.465725,16.00251007080078
1618820836.52124,4.861839,16.01813006401062
1618820836.53687,4.093121,16.03376007080078
1618820836.5525,3.018139,16.049390077590942
1618820836.56812,1.586319,16.06501007080078
1618820836.58375,-0.06995392,16.080640077590942
1618820836.59937,-1.709385,16.09626007080078
1618820836.615,-3.127388,16.111890077590942
1618820836.63062,-4.234238,16.12751007080078
1618820836.64625,-5.085041,16.143140077590942
1618820836.66188,-5.789108,16.158770084381104
1618820836.6775,-6.402264,16.174390077590942
1618820836.69313,-6.791637,16.190020084381104
1618820836.70875,-6.734245,16.205640077590942
1618820836.72438,-5.992588,16.221270084381104
1618820836.74,-4.485126,16.236890077590942
1618820836.75563,-2.375843,16.252520084381104
1618820836.77126,0.04319,16.268150091171265
1618820836.78688,2.494713,16.283770084381104
1618820836.80251,4.86581,16.299400091171265
1618820836.81813,7.222614,16.315020084381104
1618820836.83376,9.702911,16.330650091171265
1618820836.84938,12.31673,16.346270084381104
1618820836.86501,14.86317,16.361900091171265
1618820836.88064,16.96864,16.377530097961426
1618820836.89626,18.18348,16.393150091171265
1618820836.91189,18.30558,16.408780097961426
1618820836.92751,17.46473,16.424400091171265
1618820836.94314,16.09064,16.440030097961426
1618820836.95876,14.72781,16.455650091171265
1618820836.97439,13.77592,16.471280097961426
1618820836.99002,13.26435,16.486910104751587
1618820837.00564,12.90393,16.502530097961426
1618820837.02127,12.24655,16.518160104751587
1618820837.03689,10.94573,16.533780097961426
1618820837.05252,9.016949,16.549410104751587
1618820837.06814,6.777176,16.565030097961426
1618820837.08377,4.682922,16.580660104751587
1618820837.0994,3.090267,16.596290111541748
1618820837.11502,2.068455,16.611910104751587
1618820837.13065,1.389168,16.627540111541748
1618820837.14627,0.7109108,16.643160104751587
1618820837.1619,-0.2025223,16.658790111541748
1618820837.17752,-1.414742,16.674410104751587
1618820837.19315,-2.78347,16.690040111541748
1618820837.20878,-4.208447,16.70567011833191
1618820837.2244,-5.595032,16.721290111541748
1618820837.24003,-6.897057,16.73692011833191
1618820837.25565,-8.097157,16.752540111541748
1618820837.27128,-9.116985,16.76817011833191
1618820837.2869,-9.824825,16.783790111541748
1618820837.30253,-10.11605,16.79942011833191
1618820837.31816,-9.973186,16.81505012512207
1618820837.33378,-9.466831,16.83067011833191
1618820837.34941,-8.805244,16.84630012512207
1618820837.36503,-8.16214,16.86192011833191
1618820837.38066,-7.60104,16.87755012512207
1618820837.39628,-7.140785,16.89317011833191
1618820837.41191,-6.736168,16.90880012512207
1618820837.42754,-6.306007,16.92443013191223
1618820837.44316,-5.783726,16.94005012512207
1618820837.45879,-5.165119,16.95568013191223
1618820837.47441,-4.411221,16.97130012512207
1618820837.49004,-3.545391,16.98693013191223
1618820837.50566,-2.570923,17.00255012512207
1618820837.52129,-1.520531,17.01818013191223
1618820837.53692,-0.4373093,17.033810138702393
1618820837.55254,0.5972519,17.04943013191223
1618820837.56817,1.467705,17.065060138702393
1618820837.58379,2.06171,17.08068013191223
1618820837.59942,2.259766,17.096310138702393
1618820837.61505,2.023136,17.111940145492554
1618820837.63067,1.399559,17.127560138702393
1618820837.6463,0.4891853,17.143190145492554
1618820837.66192,-0.6401329,17.158810138702393
1618820837.67755,-1.956966,17.174440145492554
1618820837.69317,-3.469372,17.190060138702393
1618820837.7088,-5.202599,17.205690145492554
1618820837.72443,-7.172794,17.221320152282715
1618820837.74005,-9.305962,17.236940145492554
1618820837.75568,-11.43877,17.252570152282715
1618820837.7713,-13.29952,17.268190145492554
1618820837.78693,-14.56839,17.283820152282715
1618820837.80255,-14.92694,17.299440145492554
1618820837.81818,-14.1769,17.315070152282715
1618820837.83381,-12.20356,17.330700159072876
1618820837.84943,-9.108269,17.346320152282715
1618820837.86506,-5.189045,17.361950159072876
1618820837.88068,-0.9011574,17.377570152282715
1618820837.89631,3.239368,17.393200159072876
1618820837.91193,6.774433,17.408820152282715
1618820837.92756,9.411579,17.424450159072876
1618820837.94319,11.10369,17.440080165863037
1618820837.95881,11.97691,17.455700159072876
1618820837.97444,12.3024,17.471330165863037
1618820837.99006,12.27394,17.486950159072876
1618820838.00569,12.0347,17.502580165863037
1618820838.02131,11.56913,17.518200159072876
1618820838.03694,10.85114,17.533830165863037
1618820838.05257,9.885719,17.5494601726532
1618820838.06819,8.764744,17.565080165863037
1618820838.08382,7.65625,17.5807101726532
1618820838.09944,6.688435,17.596330165863037
1618820838.11507,5.962719,17.6119601726532
1618820838.13069,5.478081,17.627580165863037
1618820838.14632,5.23394,17.6432101726532
1618820838.16195,5.222141,17.65884017944336
1618820838.17757,5.414543,17.6744601726532
1618820838.1932,5.731289,17.69009017944336
1618820838.20882,5.990562,17.7057101726532
1618820838.22445,5.912548,17.72134017944336
1618820838.24007,5.231293,17.7369601726532
1618820838.2557,3.765228,17.75259017944336
1618820838.27133,1.503128,17.76822018623352
1618820838.28695,-1.365604,17.78384017944336
1618820838.30258,-4.529076,17.79947018623352
1618820838.3182,-7.550793,17.81509017944336
1618820838.33383,-9.998154,17.83072018623352
1618820838.34945,-11.49641,17.84634017944336
1618820838.36508,-11.75482,17.86197018623352
1618820838.38071,-10.73946,17.877599954605103
1618820838.39633,-8.625065,17.89322018623352
1618820838.41196,-5.770271,17.908849954605103
1618820838.42758,-2.59449,17.92447018623352
1618820838.44321,0.4950447,17.940099954605103
1618820838.45883,3.240261,17.95572018623352
1618820838.47446,5.478405,17.971349954605103
1618820838.49009,7.113956,17.986979961395264
1618820838.50571,8.113457,18.002599954605103
1618820838.52134,8.432484,18.018229961395264
1618820838.53696,8.151581,18.033849954605103
1618820838.55259,7.452042,18.049479961395264
1618820838.56821,6.626659,18.065099954605103
1618820838.58384,5.938431,18.080729961395264
1618820838.59947,5.566265,18.096359968185425
1618820838.61509,5.513016,18.111979961395264
1618820838.63072,5.685345,18.127609968185425
1618820838.64634,5.968365,18.143229961395264
1618820838.66197,6.296513,18.158859968185425
1618820838.67759,6.640945,18.174479961395264
1618820838.69322,7.007442,18.190109968185425
1618820838.70885,7.348965,18.205739974975586
1618820838.72447,7.498177,18.221359968185425
1618820838.7401,7.246555,18.236989974975586
1618820838.75572,6.389545,18.252609968185425
1618820838.77135,4.807201,18.268239974975586
1618820838.78697,2.560329,18.283859968185425
1618820838.8026,-0.2048302,18.299489974975586
1618820838.81823,-3.17765,18.315119981765747
1618820838.83385,-5.978607,18.330739974975586
1618820838.84948,-8.233112,18.346369981765747
1618820838.8651,-9.617592,18.361989974975586
1618820838.88073,-9.914474,18.377619981765747
1618820838.89635,-9.077747,18.393239974975586
1618820838.91198,-7.252983,18.408869981765747
1618820838.92761,-4.724113,18.424499988555908
1618820838.94323,-1.977493,18.440119981765747
1618820838.95886,0.5509491,18.455749988555908
1618820838.97448,2.529007,18.471369981765747
1618820838.99011,3.813496,18.486999988555908
1618820839.00573,4.487614,18.502619981765747
1618820839.02136,4.762836,18.518249988555908
1618820839.03699,4.825043,18.53387999534607
1618820839.05261,4.725498,18.549499988555908
1618820839.06824,4.462105,18.56512999534607
1618820839.08386,3.92944,18.580749988555908
1618820839.09949,3.180244,18.59637999534607
1618820839.11511,2.383575,18.611999988555908
1618820839.13074,1.837269,18.62762999534607
1618820839.14637,1.795807,18.64326000213623
1618820839.16199,2.375996,18.65887999534607
1618820839.17762,3.435642,18.67451000213623
1618820839.19324,4.652206,18.69012999534607
1618820839.20887,5.727615,18.70576000213623
1618820839.22449,6.400497,18.72137999534607
1618820839.24012,6.576843,18.73701000213623
1618820839.25575,6.253254,18.75264000892639
1618820839.27137,5.504597,18.76826000213623
1618820839.287,4.393856,18.78389000892639
1618820839.30262,2.990803,18.79951000213623
1618820839.31825,1.343872,18.81514000892639
1618820839.33387,-0.5144577,18.83076000213623
1618820839.3495,-2.490013,18.84639000892639
1618820839.36513,-4.493862,18.862020015716553
1618820839.38075,-6.368374,18.87764000892639
1618820839.39638,-7.914234,18.893270015716553
1618820839.412,-8.862587,18.90889000892639
1618820839.42763,-8.937893,18.924520015716553
1618820839.44325,-7.978249,18.94014000892639
1618820839.45888,-5.935368,18.955770015716553
1618820839.47451,-2.948349,18.971400022506714
1618820839.49013,0.7517662,18.987020015716553
1618820839.50576,4.771564,19.002650022506714
1618820839.52138,8.696102,19.018270015716553
1618820839.53701,12.05634,19.033900022506714
1618820839.55263,14.44328,19.049520015716553
1618820839.56826,15.62463,19.065150022506714
1618820839.58389,15.57727,19.080780029296875
1618820839.59951,14.59382,19.096400022506714
1618820839.61514,13.20034,19.112030029296875
1618820839.63076,12.07184,19.127650022506714
1618820839.64639,11.75275,19.143280029296875
1618820839.66201,12.52804,19.158900022506714
1618820839.67764,14.2496,19.174530029296875
1618820839.69327,16.42001,19.190160036087036
1618820839.70889,18.39002,19.205780029296875
1618820839.72452,19.65973,19.221410036087036
1618820839.74014,20.08143,19.237030029296875
1618820839.75577,19.93655,19.252660036087036
1618820839.77139,19.79144,19.268280029296875
1618820839.78702,20.16621,19.283910036087036
1618820839.80265,21.28998,19.299540042877197
1618820839.81827,22.93066,19.315160036087036
1618820839.8339,24.56039,19.330790042877197
1618820839.84952,25.63197,19.346410036087036
1618820839.86515,26.01591,19.362040042877197
1618820839.88077,26.06227,19.377660036087036
1618820839.8964,26.47182,19.393290042877197
1618820839.91203,27.93246,19.40892004966736
1618820839.92765,30.81342,19.424540042877197
1618820839.94328,35.00107,19.44017004966736
1618820839.9589,40.02295,19.455790042877197
1618820839.97453,45.30595,19.47142004966736
1618820839.99015,50.36212,19.487040042877197
1618820840.00578,54.91776,19.50267004966736
1618820840.02141,58.80521,19.51830005645752
1618820840.03703,62.05307,19.53392004966736
1618820840.05266,65.09857,19.54955005645752
1618820840.06828,69.12582,19.56517004966736
1618820840.08391,76.06381,19.58080005645752
1618820840.09953,87.91643,19.59642004966736
1618820840.11516,105.704,19.61205005645752
1618820840.13079,128.3653,19.62768006324768
1618820840.14641,152.6677,19.64330005645752
1618820840.16204,174.1857,19.65893006324768
1618820840.17766,188.9807,19.67455005645752
1618820840.19329,195.226,19.69018006324768
1618820840.20892,193.7183,19.705810070037842
1618820840.22454,187.0616,19.72143006324768
1618820840.24017,177.9262,19.737060070037842
1618820840.25579,167.6265,19.75268006324768
1618820840.27142,155.5923,19.768310070037842
1618820840.28704,140.14,19.78393006324768
1618820840.30267,119.9473,19.799560070037842
1618820840.3183,95.19229,19.815190076828003
1618820840.33392,67.78537,19.830810070037842
1618820840.34955,40.65341,19.846440076828003
1618820840.36517,16.53448,19.862060070037842
1618820840.3808,-3.06427,19.877690076828003
1618820840.39642,-18.11359,19.893310070037842
1618820840.41205,-29.88858,19.908940076828003
1618820840.42768,-40.1636,19.924570083618164
1618820840.4433,-50.47202,19.940190076828003
1618820840.45893,-61.57779,19.955820083618164
1618820840.47455,-73.35938,19.971440076828003
1618820840.49018,-85.09351,19.987070083618164
1618820840.5058,-95.9985,20.002690076828003
1618820840.52143,-105.4956,20.018320083618164
1618820840.53706,-113.3474,20.033950090408325
1618820840.55268,-119.6461,20.049570083618164
1618820840.56831,-124.5869,20.065200090408325
1618820840.58393,-128.5912,20.080820083618164
1618820840.59956,-132.7397,20.096450090408325
1618820840.61518,-139.3079,20.112070083618164
1618820840.63081,-151.6905,20.127700090408325
1618820840.64644,-173.1186,20.143330097198486
1618820840.66206,-204.7318,20.158950090408325
1618820840.67769,-243.7644,20.174580097198486
1618820840.69331,-283.4459,20.190200090408325
1618820840.70894,-314.8965,20.205830097198486
1618820840.72456,-330.3442,20.221450090408325
1618820840.74019,-326.2264,20.237080097198486
1618820840.75582,-304.2898,20.252710103988647
1618820840.77144,-270.3983,20.268330097198486
1618820840.78707,-231.9053,20.283960103988647
1618820840.80269,-194.9559,20.299580097198486
1618820840.81832,-163.1652,20.315210103988647
1618820840.83394,-137.9293,20.330830097198486
1618820840.84957,-119.3821,20.346460103988647
1618820840.8652,-107.1598,20.36209011077881
1618820840.88082,-100.4799,20.377710103988647
1618820840.89645,-97.75964,20.39334011077881
1618820840.91207,-96.53302,20.408960103988647
1618820840.9277,-93.96448,20.42459011077881
1618820840.94332,-88.03558,20.440210103988647
1618820840.95895,-78.3302,20.45584011077881
1618820840.97458,-66.18237,20.47147011756897
1618820840.9902,-53.88055,20.48709011077881
1618820841.00583,-43.73401,20.50272011756897
1618820841.02145,-36.94897,20.51834011077881
1618820841.03708,-33.17871,20.53397011756897
1618820841.0527,-30.83093,20.54959011077881
1618820841.06833,-27.72882,20.56522011756897
1618820841.08396,-22.25354,20.58085012435913
1618820841.09958,-14.07819,20.59647011756897
1618820841.11521,-4.337341,20.61210012435913
1618820841.13083,4.963623,20.62772011756897
1618820841.14646,12.05353,20.64335012435913
1618820841.16208,16.43234,20.65897011756897
1618820841.17771,19.13431,20.67460012435913
1618820841.19334,22.1626,20.690230131149292
1618820841.20896,27.27063,20.70585012435913
1618820841.22459,34.95041,20.721480131149292
1618820841.24021,43.99393,20.73710012435913
1618820841.25584,52.20172,20.752730131149292
1618820841.27146,57.50769,20.76835012435913
1618820841.28709,59.09665,20.783980131149292
1618820841.30272,57.82922,20.799610137939453
1618820841.31834,55.68015,20.815230131149292
1618820841.33397,54.51727,20.830860137939453
1618820841.34959,54.98889,20.846480131149292
1618820841.36522,56.08743,20.862110137939453
1618820841.38084,55.51999,20.877730131149292
1618820841.39647,50.75528,20.893360137939453
1618820841.4121,40.08054,20.908990144729614
1618820841.42772,23.36746,20.924610137939453
1618820841.44335,2.181732,20.940240144729614
1618820841.45897,-20.87097,20.955860137939453
1618820841.4746,-43.06894,20.971490144729614
1618820841.49022,-62.49753,20.987110137939453
1618820841.50585,-78.54288,21.002740144729614
1618820841.52148,-91.63681,21.018370151519775
1618820841.5371,-102.5539,21.033990144729614
1618820841.55273,-111.6543,21.049620151519775
1618820841.56835,-118.4086,21.065240144729614
1618820841.58398,-121.5507,21.080870151519775
1618820841.5996,-119.7165,21.096490144729614
1618820841.61523,-112.2893,21.112120151519775
1618820841.63086,-99.75467,21.127750158309937
1618820841.64648,-83.67142,21.143370151519775
1618820841.66211,-65.94757,21.159000158309937
1618820841.67773,-48.15691,21.174620151519775
1618820841.69336,-31.07916,21.190250158309937
1618820841.70898,-14.8947,21.205870151519775
1618820841.72461,0.4418335,21.221500158309937
1618820841.74024,14.78355,21.237130165100098
1618820841.75586,27.59337,21.252750158309937
1618820841.77149,38.24231,21.268380165100098
1618820841.78711,46.34232,21.284000158309937
1618820841.80274,52.01897,21.299630165100098
1618820841.81836,55.8872,21.315250158309937
1618820841.83399,58.85754,21.330880165100098
1618820841.84962,61.76023,21.34651017189026
1618820841.86524,65.09982,21.362130165100098
1618820841.88087,68.94608,21.37776017189026
1618820841.89649,72.87477,21.393380165100098
1618820841.91212,76.13422,21.40901017189026
1618820841.92774,77.75777,21.424630165100098
1618820841.94337,76.91197,21.44026017189026
1618820841.959,73.13159,21.45589017868042
1618820841.97462,66.60058,21.47151017189026
1618820841.99025,58.18899,21.48714017868042
1618820842.00587,49.22694,21.50276017189026
1618820842.0215,41.0594,21.51839017868042
1618820842.03712,34.57133,21.53401017189026
1618820842.05275,29.89402,21.54964017868042
1618820842.06838,26.31526,21.56527018547058
1618820842.084,22.70173,21.58089017868042
1618820842.09963,17.93813,21.59652018547058
1618820842.11525,11.41429,21.61214017868042
1618820842.13088,3.428787,21.62777018547058
1618820842.1465,-4.831673,21.64339017868042
1618820842.16213,-11.64244,21.65902018547058
1618820842.17776,-15.33541,21.674649953842163
1618820842.19338,-14.97475,21.69027018547058
1618820842.20901,-10.81966,21.705899953842163
1618820842.22463,-4.144714,21.72152018547058
1618820842.24026,3.298645,21.737149953842163
1618820842.25588,10.00502,21.75277018547058
1618820842.27151,15.26405,21.768399953842163
1618820842.28714,19.19061,21.784029960632324
1618820842.30276,22.32039,21.799649953842163
1618820842.31839,25.03468,21.815279960632324
1618820842.33401,27.28983,21.830899953842163
1618820842.34964,28.6626,21.846529960632324
1618820842.36526,28.80374,21.862149953842163
1618820842.38089,27.8119,21.877779960632324
1618820842.39652,26.35503,21.893409967422485
1618820842.41214,25.42439,21.909029960632324
1618820842.42777,25.83179,21.924659967422485
1618820842.44339,27.79587,21.940279960632324
1618820842.45902,30.87352,21.955909967422485
1618820842.47465,34.13893,21.971539974212646
1618820842.49027,36.63098,21.987159967422485
1618820842.5059,37.78824,22.002789974212646
1618820842.52152,37.55154,22.018409967422485
1618820842.53715,36.27692,22.034039974212646
1618820842.55277,34.43491,22.049659967422485
1618820842.5684,32.28665,22.065289974212646
1618820842.58403,29.77615,22.080919981002808
1618820842.59965,26.56674,22.096539974212646
1618820842.61528,22.31693,22.112169981002808
1618820842.6309,16.92511,22.127789974212646
1618820842.64653,10.74728,22.143419981002808
1618820842.66215,4.529266,22.159039974212646
1618820842.67778,-0.730011,22.174669981002808
1618820842.69341,-4.117828,22.19029998779297
1618820842.70903,-5.116882,22.205919981002808
1618820842.72466,-3.72464,22.22154998779297
1618820842.74028,-0.3943787,22.237169981002808
1618820842.75591,4.099243,22.25279998779297
1618820842.77153,8.962402,22.268419981002808
1618820842.78716,13.58966,22.28404998779297
1618820842.80279,17.69849,22.29967999458313
1618820842.81841,21.25635,22.31529998779297
1618820842.83404,24.31299,22.33092999458313
1618820842.84966,26.7677,22.34654998779297
1618820842.86529,28.37073,22.36217999458313
1618820842.88091,28.76764,22.37779998779297
1618820842.89654,27.703,22.39342999458313
1618820842.91217,25.19583,22.40906000137329
1618820842.92779,21.57794,22.42467999458313
1618820842.94342,17.42453,22.44031000137329
1618820842.95904,13.37665,22.45592999458313
1618820842.97467,9.959351,22.47156000137329
1618820842.99029,7.462738,22.48717999458313
1618820843.00592,5.912231,22.50281000137329
1618820843.02155,5.085693,22.518440008163452
1618820843.03717,4.631683,22.53406000137329
1618820843.0528,4.299744,22.549690008163452
1618820843.06842,3.949585,22.56531000137329
1618820843.08405,3.619965,22.580940008163452
1618820843.09967,3.47229,22.59656000137329
1618820843.1153,3.629639,22.612190008163452
1618820843.13093,4.139984,22.627820014953613
1618820843.14655,4.917999,22.643440008163452
1618820843.16218,5.792145,22.659070014953613
1618820843.1778,6.593536,22.674690008163452
1618820843.19343,7.301758,22.690320014953613
1618820843.20905,8.115662,22.705940008163452
1618820843.22468,9.415985,22.721570014953613
1618820843.24031,11.74506,22.737200021743774
1618820843.25593,15.55038,22.752820014953613
1618820843.27156,21.10565,22.768450021743774
1618820843.28718,28.21381,22.784070014953613
1618820843.30281,36.20746,22.799700021743774
1618820843.31843,44.00742,22.815320014953613
1618820843.33406,50.52408,22.830950021743774
1618820843.34969,55.00278,22.846580028533936
1618820843.36531,57.29083,22.862200021743774
1618820843.38094,57.78174,22.877830028533936
1618820843.39656,57.06604,22.893450021743774
1618820843.41219,55.67581,22.909080028533936
1618820843.42781,53.77747,22.924700021743774
1618820843.44344,51.30334,22.940330028533936
1618820843.45907,48.11508,22.955960035324097
1618820843.47469,44.2937,22.971580028533936
1618820843.49032,40.17206,22.987210035324097
1618820843.50594,36.2381,23.002830028533936
1618820843.52157,32.90936,23.018460035324097
1618820843.53719,30.32904,23.034080028533936
1618820843.55282,28.36993,23.049710035324097
1618820843.56845,26.67627,23.065340042114258
1618820843.58407,24.87622,23.080960035324097
1618820843.5997,22.72034,23.096590042114258
1618820843.61532,20.16016,23.112210035324097
1618820843.63095,17.31805,23.127840042114258
1618820843.64657,14.35358,23.143460035324097
1618820843.6622,11.44366,23.159090042114258
1618820843.67783,8.632141,23.17472004890442
1618820843.69345,5.872803,23.190340042114258
1618820843.70908,2.999451,23.20597004890442
1618820843.7247,-0.1796875,23.221590042114258
1618820843.74033,-3.81311,23.23722004890442
1618820843.75595,-7.911743,23.252840042114258
1618820843.77158,-12.20862,23.26847004890442
1618820843.78721,-16.26685,23.28410005569458
1618820843.80283,-19.4436,23.29972004890442
1618820843.81846,-21.18015,23.31535005569458
1618820843.83408,-21.06625,23.33097004890442
1618820843.84971,-19.1152,23.34660005569458
1618820843.86533,-15.63232,23.36222004890442
1618820843.88096,-11.12726,23.37785005569458
1618820843.89659,-6.171326,23.39348006248474
1618820843.91221,-1.188354,23.40910005569458
1618820843.92784,3.434174,23.42473006248474
1618820843.94346,7.415649,23.44035005569458
1618820843.95909,10.42001,23.45598006248474
1618820843.97471,12.18225,23.47160005569458
1618820843.99034,12.61182,23.48723006248474
1618820844.00597,11.89505,23.502860069274902
1618820844.02159,10.47244,23.51848006248474
1618820844.03722,8.876434,23.534110069274902
1618820844.05284,7.556427,23.54973006248474
1618820844.06847,6.668732,23.565360069274902
1618820844.08409,6.173981,23.58098006248474
1618820844.09972,5.809265,23.596610069274902
1618820844.11535,5.300171,23.612240076065063
1618820844.13097,4.491791,23.627860069274902
1618820844.1466,3.361511,23.643490076065063
1618820844.16222,2.047424,23.659110069274902
1618820844.17785,0.7177124,23.674740076065063
1618820844.19347,-0.4606934,23.690360069274902
1618820844.2091,-1.479309,23.705990076065063
1618820844.22473,-2.390472,23.721620082855225
1618820844.24035,-3.37027,23.737240076065063
1618820844.25598,-4.622375,23.752870082855225
1618820844.2716,-6.25293,23.768490076065063
1618820844.28723,-8.369385,23.784120082855225
1618820844.30285,-10.9259,23.799740076065063
1618820844.31848,-13.84521,23.815370082855225
1618820844.33411,-16.89865,23.831000089645386
1618820844.34973,-19.8089,23.846620082855225
1618820844.36536,-22.16687,23.862250089645386
1618820844.38098,-23.52722,23.877870082855225
1618820844.39661,-23.4892,23.893500089645386
1618820844.41223,-21.70145,23.909120082855225
1618820844.42786,-18.1954,23.924750089645386
1618820844.44349,-13.23447,23.940380096435547
1618820844.45911,-7.457489,23.956000089645386
1618820844.47474,-1.578918,23.971630096435547
1618820844.49036,3.721375,23.987250089645386
1618820844.50599,7.960724,24.002880096435547
1618820844.52161,10.93195,24.018500089645386
1618820844.53724,12.7056,24.034130096435547
1618820844.55287,13.52792,24.049760103225708
1618820844.56849,13.6676,24.065380096435547
1618820844.58412,13.40268,24.081010103225708
1618820844.59974,12.92068,24.096630096435547
1618820844.61537,12.41714,24.112260103225708
1618820844.63099,12.07309,24.127880096435547
1618820844.64662,12.0419,24.143510103225708
1618820844.66225,12.3754,24.15914011001587
1618820844.67787,12.99222,24.174760103225708
1618820844.6935,13.6842,24.19039011001587
1618820844.70912,14.11218,24.206010103225708
1618820844.72475,13.98505,24.22164011001587
1618820844.74038,13.09738,24.23727011680603
1618820844.756,11.39719,24.25289011001587
1618820844.77163,9.098267,24.26852011680603
1618820844.78725,6.546814,24.28414011001587
1618820844.80288,4.124268,24.29977011680603
1618820844.8185,2.050629,24.31539011001587
1618820844.83413,0.2945557,24.33102011680603
1618820844.84976,-1.454468,24.34665012359619
1618820844.86538,-3.560425,24.36227011680603
1618820844.88101,-6.281342,24.37790012359619
1618820844.89663,-9.667908,24.39352011680603
1618820844.91226,-13.4079,24.40915012359619
1618820844.92788,-17.01782,24.42477011680603
1618820844.94351,-19.89252,24.44040012359619
1618820844.95914,-21.49341,24.456030130386353
1618820844.97476,-21.41382,24.47165012359619
1618820844.99039,-19.48801,24.487280130386353
1618820845.00601,-15.78726,24.50290012359619
1618820845.02164,-10.66632,24.518530130386353
1618820845.03726,-4.752319,24.53415012359619
1618820845.05289,1.266968,24.549780130386353
1618820845.06852,6.705627,24.565410137176514
1618820845.08414,11.15753,24.581030130386353
1618820845.09977,14.43399,24.596660137176514
1618820845.11539,16.6048,24.612280130386353
1618820845.13102,17.81519,24.627910137176514
1618820845.14664,18.24875,24.643530130386353
1618820845.16227,18.05115,24.659160137176514
1618820845.1779,17.28369,24.674790143966675
1618820845.19352,16.07544,24.690410137176514
1618820845.20915,14.53217,24.706040143966675
1618820845.22477,12.79556,24.721660137176514
1618820845.2404,11.01962,24.737290143966675
1618820845.25602,9.355286,24.752910137176514
1618820845.27165,7.907104,24.768540143966675
1618820845.28728,6.744751,24.784170150756836
1618820845.3029,5.907166,24.799790143966675
1618820845.31853,5.342926,24.815420150756836
1618820845.33415,5.005157,24.831040143966675
1618820845.34978,4.797607,24.846670150756836
1618820845.3654,4.594208,24.862290143966675
1618820845.38103,4.258331,24.877920150756836
1618820845.39666,3.68396,24.893550157546997
1618820845.41228,2.803223,24.909170150756836
1618820845.42791,1.658051,24.924800157546997
1618820845.44353,0.3406067,24.940420150756836
1618820845.45916,-1.044678,24.956050157546997
1618820845.47478,-2.362061,24.971670150756836
1618820845.49041,-3.582794,24.987300157546997
1618820845.50604,-4.776398,25.002930164337158
1618820845.52166,-6.00296,25.018550157546997
1618820845.53729,-7.24469,25.034180164337158
1618820845.55291,-8.326843,25.049800157546997
1618820845.56854,-8.85437,25.065430164337158
1618820845.58416,-8.312683,25.081050157546997
1618820845.59979,-6.264465,25.096680164337158
1618820845.61542,-2.461395,25.11231017112732
1618820845.63104,2.915375,25.127930164337158
1618820845.64667,9.353638,25.14356017112732
1618820845.66229,16.17447,25.159180164337158
1618820845.67792,22.71524,25.17481017112732
1618820845.69354,28.56873,25.190430164337158
1618820845.70917,33.63931,25.20606017112732
1618820845.7248,38.0463,25.22169017791748
1618820845.74042,42.02234,25.23731017112732
1618820845.75605,45.80701,25.25294017791748
1618820845.77167,49.5564,25.26856017112732
1618820845.7873,53.37271,25.28419017791748
1618820845.80292,57.37079,25.29981017112732
1618820845.81855,61.64658,25.31544017791748
1618820845.83418,66.2373,25.33107018470764
1618820845.8498,71.16614,25.34669017791748
1618820845.86543,76.40628,25.36232018470764
1618820845.88105,81.9726,25.37794017791748
1618820845.89668,87.9263,25.39357018470764
1618820845.9123,94.32178,25.40919017791748
1618820845.92793,101.1811,25.42482018470764
1618820845.94356,108.4093,25.440449953079224
1618820845.95918,115.767,25.45607018470764
1618820845.97481,122.9242,25.471699953079224
1618820845.99043,129.6587,25.48732018470764
1618820846.00606,135.9114,25.502949953079224
1618820846.02168,141.8241,25.51857018470764
1618820846.03731,147.6008,25.534199953079224
1618820846.05294,153.3578,25.549829959869385
1618820846.06856,158.9502,25.565449953079224
1618820846.08419,163.8983,25.581079959869385
1618820846.09981,167.3059,25.596699953079224
1618820846.11544,168.0849,25.612329959869385
1618820846.13106,165.0795,25.627949953079224
1618820846.14669,157.3902,25.643579959869385
1618820846.16232,144.5614,25.659209966659546
1618820846.17794,126.6221,25.674829959869385
1618820846.19357,104.0967,25.690459966659546
1618820846.20919,77.82558,25.706079959869385
1618820846.22482,48.91636,25.721709966659546
1618820846.24044,18.61007,25.737329959869385
1618820846.25607,-11.53912,25.752959966659546
1618820846.2717,-39.60126,25.768589973449707
1618820846.28732,-63.38968,25.784209966659546
1618820846.30295,-80.67361,25.799839973449707
1618820846.31857,-89.94508,25.815459966659546
1618820846.3342,-91.07159,25.831089973449707
1618820846.34982,-85.70193,25.846709966659546
1618820846.36545,-77.07189,25.862339973449707
1618820846.38108,-69.16689,25.877969980239868
1618820846.3967,-65.34003,25.893589973449707
1618820846.41233,-67.10077,25.909219980239868
1618820846.42795,-73.73409,25.924839973449707
1618820846.44358,-82.43153,25.940469980239868
1618820846.4592,-89.58511,25.956089973449707
1618820846.47483,-92.3653,25.971719980239868
1618820846.49046,-89.94481,25.98734998703003
1618820846.50608,-84.20541,26.002969980239868
1618820846.52171,-79.55211,26.01859998703003
1618820846.53733,-81.68903,26.034219980239868
1618820846.55296,-95.78232,26.04984998703003
1618820846.56858,-124.2621,26.065469980239868
1618820846.58421,-164.9951,26.08109998703003
1618820846.59984,-211.0307,26.09672999382019
1618820846.61546,-252.3778,26.11234998703003
1618820846.63109,-279.007,26.12797999382019
1618820846.64671,-284.3758,26.14359998703003
1618820846.66234,-267.5318,26.15922999382019
1618820846.67796,-233.5489,26.17484998703003
1618820846.69359,-191.8421,26.19047999382019
1618820846.70922,-153.2787,26.20611000061035
1618820846.72484,-127.0318,26.22172999382019
1618820846.74047,-118.0659,26.23736000061035
1618820846.75609,-125.8379,26.25297999382019
1618820846.77172,-144.436,26.26861000061035
1618820846.78734,-164.5742,26.28422999382019
1618820846.80297,-176.6327,26.29986000061035
1618820846.8186,-174.1937,26.315490007400513
1618820846.83422,-156.488,26.33111000061035
1618820846.84985,-128.3686,26.346740007400513
1618820846.86547,-97.80063,26.36236000061035
1618820846.8811,-71.81299,26.377990007400513
1618820846.89672,-53.27249,26.39361000061035
1618820846.91235,-40.09219,26.409240007400513
1618820846.92798,-27.79599,26.424870014190674
1618820846.9436,-12.96561,26.440490007400513
1618820846.95923,4.220032,26.456120014190674
1618820846.97485,20.02356,26.471740007400513
1618820846.99048,29.9241,26.487370014190674
1618820847.0061,31.73499,26.502990007400513
1618820847.02173,27.2518,26.518620014190674
1618820847.03736,21.38251,26.534250020980835
1618820847.05298,19.24811,26.549870014190674
1618820847.06861,23.2258,26.565500020980835
1618820847.08423,31.66785,26.581120014190674
1618820847.09986,40.23596,26.596750020980835
1618820847.11548,44.40732,26.612370014190674
1618820847.13111,42.16107,26.628000020980835
1618820847.14674,34.75629,26.643630027770996
1618820847.16236,25.85712,26.659250020980835
1618820847.17799,19.36734,26.674880027770996
1618820847.19361,17.46777,26.690500020980835
1618820847.20924,19.87717,26.706130027770996
1618820847.22486,24.33325,26.721750020980835
1618820847.24049,28.06921,26.737380027770996
1618820847.25612,29.05341,26.753010034561157
1618820847.27174,26.92114,26.768630027770996
1618820847.28737,22.8526,26.784260034561157
1618820847.30299,18.90213,26.799880027770996
1618820847.31862,16.86365,26.815510034561157
1618820847.33425,17.40173,26.83114004135132
1618820847.34987,19.73581,26.846760034561157
1618820847.3655,21.88394,26.86239004135132
1618820847.38112,21.76913,26.878010034561157
1618820847.39675,18.13742,26.89364004135132
1618820847.41237,11.2937,26.909260034561157
1618820847.428,2.931488,26.92489004135132
1618820847.44363,-4.730118,26.94052004814148
1618820847.45925,-10.08186,26.95614004135132
1618820847.47488,-12.87085,26.97177004814148
1618820847.4905,-14.04185,26.98739004135132
1618820847.50613,-15.11412,27.00302004814148
1618820847.52175,-17.03398,27.01864004135132
1618820847.53738,-19.65862,27.03427004814148
1618820847.55301,-21.86894,27.04990005493164
1618820847.56863,-22.27333,27.06552004814148
1618820847.58426,-19.95544,27.08115005493164
1618820847.59988,-15.00772,27.09677004814148
1618820847.61551,-8.329254,27.11240005493164
1618820847.63113,-1.118851,27.12802004814148
1618820847.64676,5.517639,27.14365005493164
1618820847.66239,10.93878,27.1592800617218
1618820847.67801,14.83871,27.17490005493164
1618820847.69364,17.16489,27.1905300617218
1618820847.70926,17.98715,27.20615005493164
1618820847.72489,17.52364,27.2217800617218
1618820847.74051,16.14574,27.23740005493164
1618820847.75614,14.41644,27.2530300617218
1618820847.77177,12.92288,27.268660068511963
1618820847.78739,12.03079,27.2842800617218
1618820847.80302,11.86127,27.299910068511963
1618820847.81864,12.18858,27.3155300617218
1618820847.83427,12.62416,27.331160068511963
1618820847.84989,12.78171,27.3467800617218
1618820847.86552,12.39566,27.362410068511963
1618820847.88115,11.31795,27.378040075302124
1618820847.89677,9.618439,27.393660068511963
1618820847.9124,7.524109,27.409290075302124
1618820847.92802,5.416458,27.424910068511963
1618820847.94365,3.735687,27.440540075302124
1618820847.95927,2.72522,27.456160068511963
1618820847.9749,2.333206,27.471790075302124
1618820847.99053,2.240982,27.487420082092285
1618820848.00615,1.980911,27.503040075302124
1618820848.02178,1.127502,27.518670082092285
1618820848.0374,-0.4732361,27.534290075302124
1618820848.05303,-2.59137,27.549920082092285
1618820848.06865,-4.739807,27.565540075302124
1618820848.08428,-6.257965,27.581170082092285
1618820848.09991,-6.630203,27.596800088882446
1618820848.11553,-5.641464,27.612420082092285
1618820848.13116,-3.374863,27.628050088882446
1618820848.14678,-0.1910858,27.643670082092285
1618820848.16241,3.444107,27.659300088882446
1618820848.17803,7.071716,27.674920082092285
1618820848.19366,10.32948,27.690550088882446
1618820848.20929,12.94377,27.706180095672607
1618820848.22491,14.83147,27.721800088882446
1618820848.24054,15.97313,27.737430095672607
1618820848.25616,16.4254,27.753050088882446
1618820848.27179,16.26752,27.768680095672607
1618820848.28741,15.56783,27.784300088882446
1618820848.30304,14.4239,27.799930095672607
1618820848.31867,12.9196,27.81556010246277
1618820848.33429,11.15382,27.831180095672607
1618820848.34992,9.195473,27.84681010246277
1618820848.36554,7.238258,27.862430095672607
1618820848.38117,5.471535,27.87806010246277
1618820848.39679,4.115692,27.893680095672607
1618820848.41242,3.279366,27.90931010246277
1618820848.42805,2.863113,27.92494010925293
1618820848.44367,2.591103,27.94056010246277
1618820848.4593,2.078506,27.95619010925293
1618820848.47492,1.001289,27.97181010246277
1618820848.49055,-0.8334961,27.98744010925293
1618820848.50617,-3.257057,28.00306010246277
1618820848.5218,-5.947594,28.01869010925293
1618820848.53743,-8.466972,28.03432011604309
1618820848.55305,-10.43396,28.04994010925293
1618820848.56868,-11.68219,28.06557011604309
1618820848.5843,-12.26353,28.08119010925293
1618820848.59993,-12.41899,28.09682011604309
1618820848.61555,-12.44701,28.11244010925293
1618820848.63118,-12.62948,28.12807011604309
1618820848.64681,-13.04281,28.143700122833252
1618820848.66243,-13.59309,28.15932011604309
1618820848.67806,-14.02111,28.174950122833252
1618820848.69368,-13.94182,28.19057011604309
1618820848.70931,-12.9887,28.206200122833252
1618820848.72493,-10.96805,28.22182011604309
1618820848.74056,-7.959755,28.237450122833252
1618820848.75619,-4.331955,28.253080129623413
1618820848.77181,-0.6067581,28.268700122833252
1618820848.78744,2.711693,28.284330129623413
1618820848.80306,5.27565,28.299950122833252
1618820848.81869,6.959938,28.315580129623413
1618820848.83431,7.917587,28.331200122833252
1618820848.84994,8.45504,28.346830129623413
1618820848.86557,8.95607,28.362460136413574
1618820848.88119,9.670647,28.378080129623413
1618820848.89682,10.64213,28.393710136413574
1618820848.91244,11.69362,28.409330129623413
1618820848.92807,12.49214,28.424960136413574
1618820848.94369,12.7007,28.440580129623413
1618820848.95932,12.1259,28.456210136413574
1618820848.97495,10.91115,28.471840143203735
1618820848.99057,9.40237,28.487460136413574
1618820849.0062,8.07016,28.503090143203735
1618820849.02182,7.190048,28.518710136413574
1618820849.03745,6.723278,28.534340143203735
1618820849.05307,6.375904,28.549960136413574
1618820849.0687,5.771141,28.565590143203735
1618820849.08433,4.681866,28.581220149993896
1618820849.09995,3.092266,28.596840143203735
1618820849.11558,1.159374,28.612470149993896
1618820849.1312,-1.081768,28.628090143203735
1618820849.14683,-3.690323,28.643720149993896
1618820849.16245,-6.826778,28.659340143203735
1618820849.17808,-10.54258,28.674970149993896
1618820849.19371,-14.63011,28.690600156784058
1618820849.20933,-18.49188,28.706220149993896
1618820849.22496,-21.32994,28.721850156784058
1618820849.24058,-22.43443,28.737470149993896
1618820849.25621,-21.43724,28.753100156784058
1618820849.27183,-18.49083,28.768720149993896
1618820849.28746,-14.21655,28.784350156784058
1618820849.30309,-9.427309,28.79998016357422
1618820849.31871,-4.910055,28.815600156784058
1618820849.33434,-1.263891,28.83123016357422
1618820849.34996,1.333324,28.846850156784058
1618820849.36559,3.013586,28.86248016357422
1618820849.38121,4.099689,28.878100156784058
1618820849.39684,4.940008,28.89373016357422
1618820849.41247,5.707674,28.90936017036438
1618820849.42809,6.396045,28.92498016357422
1618820849.44372,6.913023,28.94061017036438
1618820849.45934,7.171935,28.95623016357422
1618820849.47497,7.21753,28.97186017036438
1618820849.49059,7.182618,28.98748016357422
1618820849.50622,7.219778,29.00311017036438
1618820849.52185,7.401829,29.01874017715454
1618820849.53747,7.688677,29.03436017036438
1618820849.5531,7.945932,29.04999017715454
1618820849.56872,8.056618,29.06561017036438
1618820849.58435,7.962704,29.08124017715454
1618820849.59998,7.643969,29.096870183944702
1618820849.6156,7.158824,29.11249017715454
1618820849.63123,6.475447,29.128120183944702
1618820849.64685,5.545448,29.14374017715454
1618820849.66248,4.276277,29.159370183944702
1618820849.6781,2.600505,29.17499017715454
1618820849.69373,0.4943295,29.190620183944702
1618820849.70936,-2.067715,29.206249952316284
1618820849.72498,-4.984989,29.221870183944702
1618820849.74061,-8.068132,29.237499952316284
1618820849.75623,-10.97436,29.253120183944702
1618820849.77186,-13.2948,29.268749952316284
1618820849.78748,-14.68193,29.284370183944702
1618820849.80311,-14.92189,29.299999952316284
1618820849.81874,-13.98956,29.315629959106445
1618820849.83436,-11.95782,29.331249952316284
1618820849.84999,-8.98632,29.346879959106445
1618820849.86561,-5.202412,29.362499952316284
1618820849.88124,-0.7711945,29.378129959106445
1618820849.89686,4.039593,29.393749952316284
1618820849.91249,8.768467,29.409379959106445
1618820849.92812,12.79955,29.425009965896606
1618820849.94374,15.54706,29.440629959106445
1618820849.95937,16.61838,29.456259965896606
1618820849.97499,16.03548,29.471879959106445
1618820849.99062,14.17597,29.487509965896606
1618820850.00624,11.67818,29.503129959106445
1618820850.02187,9.20752,29.518759965896606
1618820850.0375,7.282833,29.534389972686768
1618820850.05312,6.158936,29.550009965896606
1618820850.06875,5.888657,29.565639972686768
1618820850.08437,6.32246,29.581259965896606
1618820850.1,7.163857,29.596889972686768
1618820850.11562,8.057194,29.612509965896606
1618820850.13125,8.550194,29.628139972686768
1618820850.14688,8.316414,29.64376997947693
1618820850.1625,7.176521,29.659389972686768
1618820850.17813,5.233398,29.67501997947693
1618820850.19375,2.824158,29.690639972686768
1618820850.20938,0.4043198,29.70626997947693
1618820850.225,-1.687202,29.721889972686768
1618820850.24063,-3.362495,29.73751997947693
1618820850.25626,-4.775436,29.75314998626709
1618820850.27188,-6.196732,29.76876997947693
1618820850.28751,-7.713211,29.78439998626709
1618820850.30313,-9.157372,29.80001997947693
1618820850.31876,-10.16681,29.81564998626709
1618820850.33438,-10.27865,29.83126997947693
1618820850.35001,-9.181252,29.84689998626709
1618820850.36564,-6.794601,29.86252999305725
1618820850.38126,-3.276627,29.87814998626709
1618820850.39689,1.080864,29.89377999305725
1618820850.41251,5.866562,29.90939998626709
1618820850.42814,10.60696,29.92502999305725
1618820850.44376,14.79823,29.94064998626709
1618820850.45939,17.92646,29.95627999305725
1618820850.47502,19.61108,29.971909999847412
1618820850.49064,19.77908,29.98752999305725
1618820850.50627,18.71442,30.003159999847412
1618820850.52189,16.97414,30.01877999305725
1618820850.53752,15.19454,30.034409999847412
1618820850.55314,13.7711,30.05002999305725
1618820850.56877,12.80705,30.065659999847412
1618820850.5844,12.12679,30.081290006637573
1618820850.60002,11.48197,30.096909999847412
1618820850.61565,10.6779,30.112540006637573
1618820850.63127,9.624496,30.128159999847412
1618820850.6469,8.352959,30.143790006637573
1618820850.66252,6.832321,30.159409999847412
1618820850.67815,4.989151,30.175040006637573
1618820850.69378,2.714912,30.190670013427734
1618820850.7094,0.01125336,30.206290006637573
1618820850.72503,-2.952721,30.221920013427734
1618820850.74065,-5.878571,30.237540006637573
1618820850.75628,-8.463104,30.253170013427734
1618820850.7719,-10.60657,30.268790006637573
1618820850.78753,-12.42882,30.284420013427734
1618820850.80316,-14.21108,30.300050020217896
1618820850.81878,-16.18256,30.315670013427734
1618820850.83441,-18.30726,30.331300020217896
1618820850.85003,-20.22733,30.346920013427734
1618820850.86566,-21.37294,30.362550020217896
1618820850.88128,-21.18098,30.378170013427734
1618820850.89691,-19.32717,30.393800020217896
1618820850.91254,-15.80675,30.409430027008057
1618820850.92816,-10.94652,30.425050020217896
1618820850.94379,-5.362808,30.440680027008057
1618820850.95941,0.2233276,30.456300020217896
1618820850.97504,5.019821,30.471930027008057
1618820850.99066,8.373672,30.487550020217896
1618820851.00629,9.851044,30.503180027008057
1618820851.02192,9.428452,30.518810033798218
1618820851.03754,7.509827,30.534430027008057
1618820851.05317,4.813004,30.550060033798218
1618820851.06879,2.086975,30.565680027008057
1618820851.08442,-0.1134338,30.581310033798218
1618820851.10004,-1.558167,30.596930027008057
1618820851.11567,-2.358505,30.612560033798218
1618820851.1313,-2.833145,30.62819004058838
1618820851.14692,-3.411255,30.643810033798218
1618820851.16255,-4.456757,30.65944004058838
1618820851.17817,-6.288788,30.675060033798218
1618820851.1938,-9.034256,30.69069004058838
1618820851.20942,-12.60712,30.706310033798218
1618820851.22505,-16.64615,30.72194004058838
1618820851.24068,-20.63123,30.73757004737854
1618820851.2563,-23.9955,30.75319004058838
1618820851.27193,-26.37276,30.76882004737854
1618820851.28755,-27.67259,30.78444004058838
1618820851.30318,-28.14984,30.80007004737854
1618820851.3188,-28.2952,30.81569004058838
1618820851.33443,-28.64709,30.83132004737854
1618820851.35006,-29.60809,30.8469500541687
1618820851.36568,-31.2829,30.86257004737854
1618820851.38131,-33.31847,30.8782000541687
1618820851.39693,-35.01036,30.89382004737854
1618820851.41256,-35.31813,30.9094500541687
1618820851.42818,-33.20807,30.92507004737854
1618820851.44381,-27.99158,30.9407000541687
1618820851.45944,-19.64867,30.956330060958862
1618820851.47506,-8.911728,30.9719500541687
1618820851.49069,3.033463,30.987580060958862
1618820851.50631,14.97215,31.0032000541687
1618820851.52194,26.08833,31.018830060958862
1618820851.53756,36.09486,31.0344500541687
1618820851.55319,45.12891,31.050080060958862
1618820851.56882,53.49852,31.065710067749023
1618820851.58444,61.4799,31.081330060958862
1618820851.60007,69.3792,31.096960067749023
1618820851.61569,77.49182,31.112580060958862
1618820851.63132,86.06761,31.128210067749023
1618820851.64694,95.088,31.143830060958862
1618820851.66257,103.9963,31.159460067749023
1618820851.6782,111.5734,31.175090074539185
1618820851.69382,116.1195,31.190710067749023
1618820851.70945,116.0065,31.206340074539185
1618820851.72507,110.3333,31.221960067749023
1618820851.7407,99.33203,31.237590074539185
1618820851.75633,84.25552,31.253220081329346
1618820851.77195,66.94794,31.268840074539185
1618820851.78758,49.10313,31.284470081329346
1618820851.8032,31.748,31.300090074539185
1618820851.81883,15.21085,31.315720081329346
1618820851.83445,-0.5758362,31.331340074539185
1618820851.85008,-15.51399,31.346970081329346
1618820851.86571,-28.95113,31.362600088119507
1618820851.88133,-39.73605,31.378220081329346
1618820851.89696,-46.73085,31.393850088119507
1618820851.91258,-49.30324,31.409470081329346
1618820851.92821,-47.71042,31.425100088119507
1618820851.94383,-43.04289,31.440720081329346
1618820851.95946,-36.67874,31.456350088119507
1618820851.97509,-29.79349,31.471980094909668
1618820851.99071,-23.01811,31.487600088119507
1618820852.00634,-16.5146,31.503230094909668
1618820852.02196,-10.3197,31.518850088119507
1618820852.03759,-4.659012,31.534480094909668
1618820852.05321,0.06942749,31.550100088119507
1618820852.06884,3.49147,31.565730094909668
1618820852.08447,5.501755,31.58136010169983
1618820852.10009,6.458374,31.596980094909668
1618820852.11572,7.001709,31.61261010169983
1618820852.13134,7.753983,31.628230094909668
1618820852.14697,9.029541,31.64386010169983
1618820852.16259,10.70203,31.659480094909668
1618820852.17822,12.38292,31.67511010169983
1618820852.19385,13.65132,31.69074010848999
1618820852.20947,14.28941,31.70636010169983
1618820852.2251,14.34296,31.72199010848999
1618820852.24072,14.05769,31.73761010169983
1618820852.25635,13.57655,31.75324010848999
1618820852.27197,12.79276,31.76886010169983
1618820852.2876,11.37608,31.78449010848999
1618820852.30323,8.901611,31.80012011528015
1618820852.31885,5.183533,31.81574010848999
1618820852.33448,0.4166107,31.83137011528015
1618820852.3501,-4.817688,31.84699010848999
1618820852.36573,-9.767288,31.86262011528015
1618820852.38135,-13.77101,31.87824010848999
1618820852.39698,-16.64549,31.89387011528015
1618820852.41261,-18.60728,31.909500122070312
1618820852.42823,-20.06943,31.92512011528015
1618820852.44386,-21.30107,31.940750122070312
1618820852.45948,-22.23216,31.95637011528015
1618820852.47511,-22.4998,31.972000122070312
1618820852.49073,-21.67406,31.98762011528015
1618820852.50636,-19.56195,32.00325012207031
1618820852.52199,-16.27731,32.018880128860474
1618820852.53761,-12.30963,32.03450012207031
1618820852.55324,-8.356659,32.050130128860474
1618820852.56886,-5.147003,32.06575012207031
1618820852.58449,-3.210487,32.081380128860474
1618820852.60011,-2.824699,32.09700012207031
1618820852.61574,-3.945259,32.112630128860474
1618820852.63137,-6.192673,32.128260135650635
1618820852.64699,-8.95752,32.143880128860474
1618820852.66262,-11.44019,32.159510135650635
1618820852.67824,-12.91413,32.175130128860474
1618820852.69387,-12.95551,32.190760135650635
1618820852.70949,-11.61225,32.206380128860474
1618820852.72512,-9.431778,32.222010135650635
1618820852.74075,-7.145699,32.237640142440796
1618820852.75637,-5.32888,32.253260135650635
1618820852.772,-4.237701,32.268890142440796
1618820852.78762,-3.805,32.284510135650635
1618820852.80325,-3.790169,32.300140142440796
1618820852.81887,-3.939377,32.315760135650635
1618820852.8345,-4.089081,32.331390142440796
1618820852.85013,-4.142921,32.34702014923096
1618820852.86575,-4.023598,32.362640142440796
1618820852.88138,-3.729477,32.37827014923096
1618820852.897,-3.319855,32.393890142440796
1618820852.91263,-3.005989,32.40952014923096
1618820852.92825,-3.007179,32.425140142440796
1618820852.94388,-3.463745,32.44077014923096
1618820852.95951,-4.196892,32.45640015602112
1618820852.97513,-4.77874,32.47202014923096
1618820852.99076,-4.696251,32.48765015602112
1618820853.00638,-3.670288,32.50327014923096
1618820853.02201,-1.815773,32.51890015602112
1618820853.03763,0.4090424,32.53452014923096
1618820853.05326,2.460869,32.55015015602112
1618820853.06889,4.003487,32.56578016281128
1618820853.08451,4.986389,32.58140015602112
1618820853.10014,5.590546,32.59703016281128
1618820853.11576,5.97261,32.61265015602112
1618820853.13139,6.178024,32.62828016281128
1618820853.14701,6.131805,32.64390015602112
1618820853.16264,5.74131,32.65953016281128
1618820853.17827,5.067619,32.67516016960144
1618820853.19389,4.299629,32.69078016281128
1618820853.20952,3.810165,32.70641016960144
1618820853.22514,3.942566,32.72203016281128
1618820853.24077,4.855255,32.73766016960144
1618820853.25639,6.451431,32.75328016281128
1618820853.27202,8.370209,32.76891016960144
1618820853.28765,10.07924,32.7845401763916
1618820853.30327,11.07156,32.80016016960144
1618820853.3189,11.10985,32.8157901763916
1618820853.33452,10.28898,32.83141016960144
1618820853.35015,9.016724,32.8470401763916
1618820853.36577,7.824501,32.86266016960144
1618820853.3814,7.042984,32.8782901763916
1618820853.39703,6.674522,32.89392018318176
1618820853.41265,6.306244,32.9095401763916
1618820853.42828,5.357674,32.92517018318176
1618820853.4439,3.329048,32.9407901763916
1618820853.45953,0.1877594,32.95642018318176
1618820853.47515,-3.629982,32.9720401763916
1618820853.49078,-7.255806,32.98767018318176
1618820853.50641,-9.745255,33.003299951553345
1618820853.52203,-10.3998,33.01892018318176
1618820853.53766,-9.017471,33.034549951553345
1618820853.55328,-5.973175,33.05017018318176
1618820853.56891,-2.042091,33.065799951553345
1618820853.58453,1.80143,33.08142018318176
1618820853.60016,4.752983,33.097049951553345
1618820853.61579,6.298042,33.112679958343506
1618820853.63141,6.35231,33.128299951553345
1618820853.64704,5.190292,33.143929958343506
1618820853.66266,3.346443,33.159549951553345
1618820853.67829,1.354336,33.175179958343506
1618820853.69391,-0.3989601,33.190799951553345
1618820853.70954,-1.755001,33.206429958343506
1618820853.72517,-2.770245,33.22205996513367
1618820853.74079,-3.559113,33.237679958343506
1618820853.75642,-4.207954,33.25330996513367
1618820853.77204,-4.664169,33.268929958343506
1618820853.78767,-4.795521,33.28455996513367
1618820853.80329,-4.534645,33.300179958343506
1618820853.81892,-3.979004,33.31580996513367
1618820853.83455,-3.34819,33.33143997192383
1618820853.85017,-2.888172,33.34705996513367
1618820853.8658,-2.694798,33.36268997192383
1618820853.88142,-2.692425,33.37830996513367
1618820853.89705,-2.737297,33.39393997192383
1618820853.91267,-2.779667,33.40955996513367
1618820853.9283,-2.900909,33.42518997192383
1618820853.94393,-3.358398,33.44081997871399
1618820853.95955,-4.404861,33.45643997192383
1618820853.97518,-6.108513,33.47206997871399
1618820853.9908,-8.358974,33.48768997192383
1618820854.00643,-10.81452,33.50331997871399
1618820854.02205,-13.04655,33.51893997192383
1618820854.03768,-14.6051,33.53456997871399
1618820854.05331,-15.10483,33.55019998550415
1618820854.06893,-14.31754,33.56581997871399
1618820854.08456,-12.29266,33.58144998550415
1618820854.10018,-9.460484,33.59706997871399
1618820854.11581,-6.463554,33.61269998550415
1618820854.13143,-4.055622,33.62831997871399
1618820854.14706,-2.736061,33.64394998550415
1618820854.16269,-2.590069,33.65957999229431
1618820854.17831,-3.282944,33.67519998550415
1618820854.19394,-4.25275,33.69082999229431
1618820854.20956,-5.002506,33.70644998550415
1618820854.22519,-5.233267,33.72207999229431
1618820854.24081,-4.920439,33.73769998550415
1618820854.25644,-4.168076,33.75332999229431
1618820854.27207,-3.203358,33.76895999908447
1618820854.28769,-2.260197,33.78457999229431
1618820854.30332,-1.549662,33.80020999908447
1618820854.31894,-1.201237,33.81582999229431
1618820854.33457,-1.263773,33.83145999908447
1618820854.35019,-1.649029,33.84707999229431
1618820854.36582,-2.169439,33.86270999908447
1618820854.38145,-2.810175,33.878340005874634
1618820854.39707,-3.742775,33.89395999908447
1618820854.4127,-5.387627,33.909590005874634
1618820854.42832,-8.155645,33.92520999908447
1618820854.44395,-12.08732,33.940840005874634
1618820854.45958,-16.67358,33.956470012664795
1618820854.4752,-20.9011,33.972090005874634
1618820854.49083,-23.59229,33.987720012664795
1618820854.50645,-23.78812,34.003340005874634
1618820854.52208,-21.2606,34.018970012664795
1618820854.5377,-16.48686,34.034590005874634
1618820854.55333,-10.51709,34.050220012664795
1618820854.56896,-4.614656,34.065850019454956
1618820854.58458,0.1978149,34.081470012664795
1618820854.60021,3.31665,34.097100019454956
1618820854.61583,4.731268,34.112720012664795
1618820854.63146,4.813364,34.128350019454956
1618820854.64708,4.095482,34.143970012664795
1618820854.66271,2.957705,34.159600019454956
1618820854.67834,1.591961,34.17523002624512
1618820854.69396,0.08446503,34.190850019454956
1618820854.70959,-1.545555,34.20648002624512
1618820854.72521,-3.089493,34.222100019454956
1618820854.74084,-4.290409,34.23773002624512
1618820854.75646,-4.893532,34.253350019454956
1618820854.77209,-4.833031,34.26898002624512
1618820854.78772,-4.287167,34.28461003303528
1618820854.80334,-3.697952,34.30023002624512
1618820854.81897,-3.511147,34.31586003303528
1618820854.83459,-4.035,34.33148002624512
1618820854.85022,-5.358418,34.34711003303528
1618820854.86584,-7.162956,34.36273002624512
1618820854.88147,-9.015972,34.37836003303528
1618820854.8971,-10.48961,34.39399003982544
1618820854.91272,-11.3364,34.40961003303528
1618820854.92835,-11.54793,34.42524003982544
1618820854.94397,-11.33205,34.44086003303528
1618820854.9596,-10.90532,34.45649003982544
1618820854.97522,-10.3501,34.47211003303528
1618820854.99085,-9.538082,34.48774003982544
1618820855.00648,-8.061317,34.5033700466156
1618820855.0221,-5.508423,34.51899003982544
1618820855.03773,-1.695431,34.5346200466156
1618820855.05335,3.106724,34.55024003982544
1618820855.06898,8.254593,34.5658700466156
1618820855.0846,12.91062,34.58149003982544
1618820855.10023,16.34816,34.5971200466156
1618820855.11586,18.2093,34.61275005340576
1618820855.13148,18.53003,34.6283700466156
1618820855.14711,17.74928,34.64400005340576
1618820855.16273,16.44781,34.6596200466156
1618820855.17836,15.13745,34.67525005340576
1618820855.19398,14.11898,34.6908700466156
1618820855.20961,13.39423,34.70650005340576
1618820855.22524,12.76972,34.72213006019592
1618820855.24086,11.95066,34.73775005340576
1618820855.25649,10.78363,34.75338006019592
1618820855.27211,9.278812,34.76900005340576
1618820855.28774,7.650974,34.78463006019592
1618820855.30336,6.117092,34.80025005340576
1618820855.31899,4.838356,34.81588006019592
1618820855.33462,3.838654,34.831510066986084
1618820855.35024,2.999447,34.84713006019592
1618820855.36587,2.203461,34.862760066986084
1618820855.38149,1.358299,34.87838006019592
1618820855.39712,0.4433975,34.894010066986084
1618820855.41274,-0.583313,34.90963006019592
1618820855.42837,-1.758881,34.925260066986084
1618820855.444,-3.115791,34.940890073776245
1618820855.45962,-4.557079,34.956510066986084
1618820855.47525,-5.849731,34.972140073776245
1618820855.49087,-6.639225,34.987760066986084
1618820855.5065,-6.552284,35.003390073776245
1618820855.52212,-5.369617,35.019010066986084
1618820855.53775,-3.030521,35.034640073776245
1618820855.55338,0.2509155,35.050270080566406
1618820855.569,4.106266,35.065890073776245
1618820855.58463,8.089218,35.081520080566406
1618820855.60025,11.72758,35.097140073776245
1618820855.61588,14.62455,35.112770080566406
1618820855.6315,16.43847,35.128390073776245
1618820855.64713,17.05681,35.144020080566406
1618820855.66276,16.51006,35.15965008735657
1618820855.67838,15.08609,35.175270080566406
1618820855.69401,13.11623,35.19090008735657
1618820855.70963,10.86912,35.206520080566406
1618820855.72526,8.492355,35.22215008735657
1618820855.74088,6.016937,35.237770080566406
1618820855.75651,3.503128,35.25340008735657
1618820855.77214,1.09338,35.26903009414673
1618820855.78776,-0.9673805,35.28465008735657
1618820855.80339,-2.511127,35.30028009414673
1618820855.81901,-3.561539,35.31590008735657
1618820855.83464,-4.388653,35.33153009414673
1618820855.85026,-5.315536,35.34715008735657
1618820855.86589,-6.599098,35.36278009414673
1618820855.88152,-8.213879,35.37841010093689
1618820855.89714,-9.886341,35.39403009414673
1618820855.91277,-11.34727,35.40966010093689
1618820855.92839,-12.43874,35.42528009414673
1618820855.94402,-13.231,35.44091010093689
1618820855.95964,-13.79604,35.45653009414673
1618820855.97527,-14.10064,35.47216010093689
1618820855.9909,-13.84693,35.48779010772705
1618820856.00652,-12.71325,35.50341010093689
1618820856.02215,-10.49776,35.51904010772705
1618820856.03777,-7.357143,35.53466010093689
1618820856.0534,-3.755901,35.55029010772705
1618820856.06902,-0.2861328,35.56591010093689
1618820856.08465,2.539131,35.58154010772705
1618820856.10028,4.49641,35.59717011451721
1618820856.1159,5.603504,35.61279010772705
1618820856.13153,6.057457,35.62842011451721
1618820856.14715,6.050331,35.64404010772705
1618820856.16278,5.66708,35.65967011451721
1618820856.1784,4.929298,35.67529010772705
1618820856.19403,3.848682,35.69092011451721
1618820856.20966,2.57058,35.70655012130737
1618820856.22528,1.334778,35.72217011451721
1618820856.24091,0.4247055,35.73780012130737
1618820856.25653,0.05406189,35.75342011451721
1618820856.27216,0.2774582,35.76905012130737
1618820856.28778,0.9371262,35.78467011451721
1618820856.30341,1.656044,35.80030012130737
1618820856.31904,1.943695,35.815930128097534
1618820856.33466,1.29953,35.83155012130737
1618820856.35029,-0.5330048,35.847180128097534
1618820856.36591,-3.58007,35.86280012130737
1618820856.38154,-7.558586,35.878430128097534
1618820856.39716,-11.96571,35.89405012130737
1618820856.41279,-16.26045,35.909680128097534
1618820856.42842,-19.94329,35.925310134887695
1618820856.44404,-22.72557,35.940930128097534
1618820856.45967,-24.47731,35.956560134887695
1618820856.47529,-25.17709,35.972180128097534
1618820856.49092,-24.77193,35.987810134887695
1618820856.50654,-23.21036,36.003430128097534
1618820856.52217,-20.42661,36.019060134887695
1618820856.5378,-16.47532,36.034690141677856
1618820856.55342,-11.61594,36.050310134887695
1618820856.56905,-6.176468,36.065940141677856
1618820856.58467,-0.6264267,36.081560134887695
1618820856.6003,4.616638,36.097190141677856
1618820856.61592,9.217331,36.112810134887695
1618820856.63155,12.90092,36.128440141677856
1618820856.64718,15.41017,36.14407014846802
1618820856.6628,16.56005,36.159690141677856
1618820856.67843,16.35512,36.17532014846802
1618820856.69405,14.9796,36.190940141677856
1618820856.70968,12.90157,36.20657014846802
1618820856.72531,10.55658,36.22220015525818
1618820856.74093,8.280655,36.23782014846802
1618820856.75656,6.19545,36.25345015525818
1618820856.77218,4.268944,36.26907014846802
1618820856.78781,2.503265,36.28470015525818
1618820856.80343,1.009758,36.30032014846802
1618820856.81906,-0.03708649,36.31595015525818
1618820856.83469,-0.5521469,36.33158016204834
1618820856.85031,-0.6113739,36.34720015525818
1618820856.86594,-0.5724792,36.36283016204834
1618820856.88156,-0.8718567,36.37845015525818
1618820856.89719,-1.892418,36.39408016204834
1618820856.91281,-3.80117,36.40970015525818
1618820856.92844,-6.484428,36.42533016204834
1618820856.94407,-9.539497,36.4409601688385
1618820856.95969,-12.47064,36.45658016204834
1618820856.97532,-14.74043,36.4722101688385
1618820856.99094,-15.86813,36.48783016204834
1618820857.00657,-15.59183,36.5034601688385
1618820857.02219,-13.84802,36.51908016204834
1618820857.03782,-10.78027,36.5347101688385
1618820857.05345,-6.774193,36.55034017562866
1618820857.06907,-2.265205,36.5659601688385
1618820857.0847,2.313606,36.58159017562866
1618820857.10032,6.538887,36.5972101688385
1618820857.11595,10.09361,36.61284017562866
1618820857.13157,12.7866,36.6284601688385
1618820857.1472,14.61566,36.64409017562866
1618820857.16283,15.69401,36.65972018241882
1618820857.17845,16.30578,36.67534017562866
1618820857.19408,16.63339,36.69097018241882
1618820857.2097,16.76675,36.70659017562866
1618820857.22533,16.64367,36.72222018241882
1618820857.24095,16.12917,36.73784017562866
1618820857.25658,15.17099,36.75347018241882
1618820857.27221,13.78906,36.769099950790405
1618820857.28783,12.09461,36.78472018241882
1618820857.30346,10.13335,36.800349950790405
1618820857.31908,7.92939,36.81597018241882
1618820857.33471,5.37841,36.831599950790405
1618820857.35033,2.541275,36.84722018241882
1618820857.36596,-0.3652954,36.862849950790405
1618820857.38159,-2.966415,36.878479957580566
1618820857.39721,-4.934509,36.894099950790405
1618820857.41284,-6.230247,36.909729957580566
1618820857.42846,-7.18856,36.925349950790405
1618820857.44409,-8.375557,36.940979957580566
1618820857.45971,-10.28384,36.956599950790405
1618820857.47534,-13.08114,36.972229957580566
1618820857.49097,-16.36523,36.98785996437073
1618820857.50659,-19.40731,37.003479957580566
1618820857.52222,-21.38752,37.01910996437073
1618820857.53784,-21.77296,37.034729957580566
1618820857.55347,-20.51868,37.05035996437073
1618820857.56909,-17.97548,37.065979957580566
1618820857.58472,-14.64246,37.08160996437073
1618820857.60035,-10.95432,37.09723997116089
1618820857.61597,-7.168312,37.11285996437073
1618820857.6316,-3.380226,37.12848997116089
1618820857.64722,0.3164673,37.14410996437073
1618820857.66285,3.7323,37.15973997116089
1618820857.67847,6.603622,37.17535996437073
1618820857.6941,8.689087,37.19098997116089
1618820857.70973,9.882233,37.20661997795105
1618820857.72535,10.25563,37.22223997116089
1618820857.74098,10.1012,37.23786997795105
1618820857.7566,9.723038,37.25348997116089
1618820857.77223,9.361328,37.26911997795105
1618820857.78785,9.183975,37.28473997116089
1618820857.80348,9.268936,37.30036997795105
1618820857.81911,9.642014,37.31599998474121
1618820857.83473,10.27837,37.33161997795105
1618820857.85036,11.07474,37.34724998474121
1618820857.86598,11.85452,37.36286997795105
1618820857.88161,12.40785,37.37849998474121
1618820857.89723,12.59796,37.39411997795105
1618820857.91286,12.35889,37.40974998474121
1618820857.92849,11.7291,37.42537999153137
1618820857.94411,10.86249,37.44099998474121
1618820857.95974,9.941208,37.45662999153137
1618820857.97536,9.098907,37.47224998474121
1618820857.99099,8.442444,37.48787999153137
1618820858.00661,7.959137,37.50349998474121
1618820858.02224,7.546539,37.51912999153137
1618820858.03787,7.078125,37.53475999832153
1618820858.05349,6.350906,37.55037999153137
1618820858.06912,5.215759,37.56600999832153
1618820858.08474,3.706421,37.58162999153137
1618820858.10037,2.144547,37.59725999832153
1618820858.11599,1.109192,37.61287999153137
1618820858.13162,1.376236,37.62850999832153
1618820858.14725,3.548477,37.644140005111694
1618820858.16287,7.906876,37.65975999832153
1618820858.1785,14.10992,37.675390005111694
1618820858.19412,21.3813,37.69100999832153
1618820858.20975,28.68785,37.706640005111694
1618820858.22537,35.16652,37.72225999832153
1618820858.241,40.41162,37.737890005111694
1618820858.25663,44.57997,37.753520011901855
1618820858.27225,48.24326,37.769140005111694
1618820858.28788,52.00491,37.784770011901855
1618820858.3035,56.31648,37.800390005111694
1618820858.31913,61.20173,37.816020011901855
1618820858.33475,66.41001,37.831640005111694
1618820858.35038,71.54151,37.847270011901855
1618820858.36601,76.35269,37.86290001869202
1618820858.38163,80.80042,37.878520011901855
1618820858.39726,85.1422,37.89415001869202
1618820858.41288,89.73506,37.909770011901855
1618820858.42851,94.86205,37.92540001869202
1618820858.44413,100.7419,37.941020011901855
1618820858.45976,107.4487,37.95665001869202
1618820858.47539,114.9806,37.97228002548218
1618820858.49101,123.2626,37.98790001869202
1618820858.50664,132.0065,38.00353002548218
1618820858.52226,140.6606,38.01915001869202
1618820858.53789,148.4187,38.03478002548218
1618820858.55351,154.452,38.05040001869202
1618820858.56914,158.2116,38.06603002548218
1618820858.58477,159.8626,38.08166003227234
1618820858.60039,160.3596,38.09728002548218
1618820858.61602,160.8818,38.11291003227234
1618820858.63164,161.9624,38.12853002548218
1618820858.64727,162.4093,38.14416003227234
1618820858.66289,159.1772,38.15978002548218
1618820858.67852,148.1356,38.17541003227234
1618820858.69415,125.9195,38.1910400390625
1618820858.70977,91.80185,38.20666003227234
1618820858.7254,48.75787,38.2222900390625
1618820858.74102,2.809692,38.23791003227234
1618820858.75665,-38.9725,38.2535400390625
1618820858.77227,-70.97982,38.26916003227234
1618820858.7879,-90.99405,38.2847900390625
1618820858.80353,-100.421,38.30042004585266
1618820858.81915,-103.1014,38.3160400390625
1618820858.83478,-103.1467,38.33167004585266
1618820858.8504,-103.0278,38.3472900390625
1618820858.86603,-102.7612,38.36292004585266
1618820858.88165,-100.5116,38.3785400390625
1618820858.89728,-94.21387,38.39417004585266
1618820858.91291,-82.93289,38.40980005264282
1618820858.92853,-67.86346,38.42542004585266
1618820858.94416,-51.95874,38.44105005264282
1618820858.95978,-38.6662,38.45667004585266
1618820858.97541,-30.75,38.47230005264282
1618820858.99103,-29.62814,38.48792004585266
1618820859.00666,-35.83191,38.50355005264282
1618820859.02229,-49.67538,38.51918005943298
1618820859.03791,-71.32544,38.53480005264282
1618820859.05354,-99.64279,38.55043005943298
1618820859.06916,-130.9774,38.56605005264282
1618820859.08479,-158.9916,38.58168005943298
1618820859.10041,-176.9408,38.59730005264282
1618820859.11604,-181.2817,38.61293005943298
1618820859.13167,-174.4042,38.628560066223145
1618820859.14729,-164.361,38.64418005943298
1618820859.16292,-160.768,38.659810066223145
1618820859.17854,-169.2427,38.67543005943298
1618820859.19417,-187.5398,38.691060066223145
1618820859.2098,-206.4312,38.706690073013306
1618820859.22542,-214.7237,38.722310066223145
1618820859.24105,-205.7863,38.737940073013306
1618820859.25667,-181.3186,38.753560066223145
1618820859.2723,-150.1171,38.769190073013306
1618820859.28792,-122.8055,38.784810066223145
1618820859.30355,-105.9793,38.800440073013306
1618820859.31918,-99.33398,38.81607007980347
1618820859.3348,-97.31482,38.831690073013306
1618820859.35043,-93.61191,38.84732007980347
1618820859.36605,-85.17999,38.862940073013306
1618820859.38168,-73.59534,38.87857007980347
1618820859.3973,-63.25308,38.894190073013306
1618820859.41293,-57.76028,38.90982007980347
1618820859.42856,-57.35413,38.92545008659363
1618820859.44418,-58.72034,38.94107007980347
1618820859.45981,-56.88574,38.95670008659363
1618820859.47543,-48.32758,38.97232007980347
1618820859.49106,-33.04605,38.98795008659363
1618820859.50668,-14.51685,39.00357007980347
1618820859.52231,2.036102,39.01920008659363
1618820859.53794,12.17581,39.03483009338379
1618820859.55356,14.22705,39.05045008659363
1618820859.56919,9.743378,39.06608009338379
1618820859.58481,2.549561,39.08170008659363
1618820859.60044,-3.150543,39.09733009338379
1618820859.61606,-4.628052,39.11295008659363
1618820859.63169,-1.461029,39.12858009338379
1618820859.64732,4.75351,39.14421010017395
1618820859.66294,11.39349,39.15983009338379
1618820859.67857,16.28937,39.17546010017395
1618820859.69419,18.55798,39.19108009338379
1618820859.70982,18.73184,39.20671010017395
1618820859.72544,18.24969,39.22233009338379
1618820859.74107,18.5412,39.23796010017395
1618820859.7567,20.19077,39.25359010696411
1618820859.77232,22.77097,39.26921010017395
1618820859.78795,25.13104,39.28484010696411
1618820859.80357,25.98596,39.30046010017395
1618820859.8192,24.73776,39.31609010696411
1618820859.83482,21.6488,39.33171010017395
1618820859.85045,17.6268,39.34734010696411
1618820859.86608,13.77127,39.36297011375427
1618820859.8817,10.66016,39.37859010696411
1618820859.89733,8.109192,39.39422011375427
1618820859.91295,5.297821,39.40984010696411
1618820859.92858,1.287842,39.42547011375427
1618820859.9442,-4.369537,39.44109010696411
1618820859.95983,-11.22864,39.45672011375427
1618820859.97546,-18.01477,39.472350120544434
1618820859.99108,-23.21461,39.48797011375427
1618820860.00671,-25.64012,39.503600120544434
1618820860.02233,-24.9575,39.51922011375427
1618820860.03796,-21.62053,39.534850120544434
1618820860.05358,-16.60561,39.55047011375427
1618820860.06921,-10.91914,39.566100120544434
1618820860.08484,-5.344391,39.581730127334595
1618820860.10046,-0.3823853,39.597350120544434
1618820860.11609,3.728531,39.612980127334595
1618820860.13171,6.863174,39.628600120544434
1618820860.14734,9.098938,39.644230127334595
1618820860.16296,10.65942,39.659850120544434
1618820860.17859,11.96173,39.675480127334595
1618820860.19422,13.3878,39.691110134124756
1618820860.20984,15.09358,39.706730127334595
1618820860.22547,16.93393,39.722360134124756
1618820860.24109,18.61803,39.737980127334595
1618820860.25672,19.85603,39.753610134124756
1618820860.27234,20.60182,39.769230127334595
1618820860.28797,21.06342,39.784860134124756
1618820860.3036,21.47083,39.80049014091492
1618820860.31922,21.94476,39.816110134124756
1618820860.33485,22.39291,39.83174014091492
1618820860.35047,22.4846,39.847360134124756
1618820860.3661,21.97583,39.86299014091492
1618820860.38172,20.81236,39.878610134124756
1618820860.39735,19.12277,39.89424014091492
1618820860.41298,17.14433,39.90987014770508
1618820860.4286,15.04829,39.92549014091492
1618820860.44423,12.85021,39.94112014770508
1618820860.45985,10.45554,39.95674014091492
1618820860.47548,7.740471,39.97237014770508
1618820860.4911,4.657722,39.98799014091492
1618820860.50673,1.334793,40.00362014770508
1618820860.52236,-2.069176,40.01925015449524
1618820860.53798,-5.413696,40.03487014770508
1618820860.55361,-8.683022,40.05050015449524
1618820860.56923,-12.00346,40.06612014770508
1618820860.58486,-15.42009,40.08175015449524
1618820860.60048,-18.76843,40.09737014770508
1618820860.61611,-21.55166,40.11300015449524
1618820860.63174,-23.04196,40.1286301612854
1618820860.64736,-22.62011,40.14425015449524
1618820860.66299,-20.11147,40.1598801612854
1618820860.67861,-16.00859,40.17550015449524
1618820860.69424,-11.22166,40.1911301612854
1618820860.70986,-6.746847,40.20675015449524
1618820860.72549,-3.208191,40.2223801612854
1618820860.74112,-0.6197023,40.23801016807556
1618820860.75674,1.51522,40.2536301612854
1618820860.77237,3.815515,40.26926016807556
1618820860.78799,6.576923,40.2848801612854
1618820860.80362,9.724539,40.30051016807556
1618820860.81924,12.76752,40.3161301612854
1618820860.83487,15.281,40.33176016807556
1618820860.8505,17.04919,40.34739017486572
1618820860.86612,18.14604,40.36301016807556
1618820860.88175,18.78857,40.37864017486572
1618820860.89737,19.19379,40.39426016807556
1618820860.913,19.35931,40.40989017486572
1618820860.92862,19.16757,40.42551016807556
1618820860.94425,18.5918,40.44114017486572
1618820860.95988,17.71091,40.456770181655884
1618820860.9755,16.77948,40.47239017486572
1618820860.99113,16.05227,40.488020181655884
1618820861.00675,15.64994,40.50364017486572
1618820861.02238,15.4712,40.519270181655884
1618820861.038,15.25816,40.53489017486572
1618820861.05363,14.6937,40.550520181655884
1618820861.06926,13.47443,40.566149950027466
1618820861.08488,11.41393,40.581770181655884
1618820861.10051,8.428932,40.597399950027466
1618820861.11613,4.559525,40.613020181655884
1618820861.13176,0.07485199,40.628649950027466
1618820861.14738,-4.506149,40.644270181655884
1618820861.16301,-8.534279,40.659899950027466
1618820861.17864,-11.39196,40.67552995681763
1618820861.19426,-12.68877,40.691149950027466
1618820861.20989,-12.35168,40.70677995681763
1618820861.22551,-10.56508,40.722399950027466
1618820861.24114,-7.661186,40.73802995681763
1618820861.25676,-3.944511,40.753649950027466
1618820861.27239,0.4027023,40.76927995681763
1618820861.28802,5.12999,40.78490996360779
1618820861.30364,9.950546,40.80052995681763
1618820861.31927,14.4483,40.81615996360779
1618820861.33489,18.14565,40.83177995681763
1618820861.35052,20.70453,40.84740996360779
1618820861.36614,22.05371,40.86302995681763
1618820861.38177,22.35954,40.87865996360779
1618820861.3974,22.03107,40.89428997039795
1618820861.41302,21.5311,40.90990996360779
1618820861.42865,21.12059,40.92553997039795
1618820861.44427,20.86349,40.94115996360779
1618820861.4599,20.65897,40.95678997039795
1618820861.47552,20.33723,40.97240996360779
1618820861.49115,19.82565,40.98803997039795
1618820861.50678,19.19308,41.00366997718811
1618820861.5224,18.53783,41.01928997039795
1618820861.53803,17.92924,41.03491997718811
1618820861.55365,17.30095,41.05053997039795
1618820861.56928,16.44212,41.06616997718811
1618820861.58491,15.0717,41.08179998397827
1618820861.60053,13.01801,41.09741997718811
1618820861.61616,10.25165,41.11304998397827
1618820861.63178,7.008392,41.12866997718811
1618820861.64741,3.689804,41.14429998397827
1618820861.66303,0.655899,41.15991997718811
1618820861.67866,-1.881302,41.17554998397827
1618820861.69429,-3.983505,41.19117999076843
1618820861.70991,-5.963837,41.20679998397827
1618820861.72554,-8.21138,41.22242999076843
1618820861.74116,-11.01236,41.23804998397827
1618820861.75679,-14.44263,41.25367999076843
1618820861.77241,-18.1637,41.26929998397827
1618820861.78804,-21.53992,41.28492999076843
1618820861.80367,-23.84641,41.300559997558594
1618820861.81929,-24.44415,41.31617999076843
1618820861.83492,-22.94472,41.331809997558594
1618820861.85054,-19.32735,41.34742999076843
1618820861.86617,-13.88661,41.363059997558594
1618820861.88179,-7.179169,41.37867999076843
1618820861.89742,-0.03562927,41.394309997558594
1618820861.91305,6.674561,41.409940004348755
1618820861.92867,12.23238,41.425559997558594
1618820861.9443,16.18893,41.441190004348755
1618820861.95992,18.53873,41.456809997558594
1618820861.97555,19.58563,41.472440004348755
1618820861.99117,19.87177,41.488059997558594
1618820862.0068,19.94293,41.503690004348755
1618820862.02243,20.2514,41.519320011138916
1618820862.03805,20.96451,41.534940004348755
1618820862.05368,22.04459,41.550570011138916
1618820862.0693,23.24838,41.566190004348755
1618820862.08493,24.2247,41.581820011138916
1618820862.10055,24.70581,41.597440004348755
1618820862.11618,24.50922,41.613070011138916
1618820862.13181,23.70773,41.62870001792908
1618820862.14743,22.52878,41.644320011138916
1618820862.16306,21.29047,41.65995001792908
1618820862.17868,20.15622,41.675570011138916
1618820862.19431,19.0968,41.69120001792908
1618820862.20993,17.83557,41.706820011138916
1618820862.22556,15.94739,41.72245001792908
1618820862.24119,13.18475,41.73808002471924
1618820862.25681,9.584076,41.75370001792908
1618820862.27244,5.530029,41.76933002471924
1618820862.28806,1.588531,41.78495001792908
1618820862.30369,-1.744904,41.80058002471924
1618820862.31931,-4.339417,41.81620001792908
1618820862.33494,-6.415222,41.83183002471924
1618820862.35057,-8.453979,41.8474600315094
1618820862.36619,-11.0166,41.86308002471924
1618820862.38182,-14.30853,41.8787100315094
1618820862.39744,-18.15771,41.89433002471924
1618820862.41307,-22.02203,41.9099600315094
1618820862.42869,-25.17209,41.92558002471924
1618820862.44432,-26.98572,41.9412100315094
1618820862.45995,-27.05673,41.95684003829956
1618820862.47557,-25.29248,41.9724600315094
1618820862.4912,-21.81021,41.98809003829956
1618820862.50682,-17.00925,42.0037100315094
1618820862.52245,-11.35815,42.01934003829956
1618820862.53807,-5.497009,42.0349600315094
1618820862.5537,-0.05450439,42.05059003829956
1618820862.56933,4.470093,42.06622004508972
1618820862.58495,7.757446,42.08184003829956
1618820862.60058,9.80954,42.09747004508972
1618820862.6162,10.8902,42.11309003829956
1618820862.63183,11.42419,42.12872004508972
1618820862.64745,11.85995,42.14434003829956
1618820862.66308,12.55063,42.15997004508972
1618820862.67871,13.61899,42.17560005187988
1618820862.69433,15.03159,42.19122004508972
1618820862.70996,16.63712,42.20685005187988
1618820862.72558,18.18442,42.22247004508972
1618820862.74121,19.43808,42.23810005187988
1618820862.75683,20.26599,42.25372004508972
1618820862.77246,20.56906,42.26935005187988
1618820862.78809,20.33804,42.284980058670044
1618820862.80371,19.59656,42.30060005187988
1618820862.81934,18.38327,42.316230058670044
1618820862.83496,16.78329,42.33185005187988
1618820862.85059,14.95099,42.347480058670044
1618820862.86621,13.09451,42.36310005187988
1618820862.88184,11.42255,42.378730058670044
1618820862.89747,10.07867,42.394360065460205
1618820862.91309,9.071289,42.409980058670044
1618820862.92872,8.313263,42.425610065460205
1618820862.94434,7.635071,42.441230058670044
