,index,PPG_Raw,PPG_Clean,PPG_Rate,PPG_Peaks,EDA_Raw,EDA_Clean,EDA_Tonic,EDA_Phasic,SCR_Onsets,SCR_Peaks,SCR_Height,SCR_Amplitude,SCR_RiseTime,SCR_Recovery,SCR_RecoveryTime,Index,Label,Condition,id
0,0.0,-29.12024,0.0,84.34146987294062,0,0.13718962704781215,0.13720713619767846,0.13502330977126253,0.0021837813519287306,0,0,0,0,0,0,0,385,2,strach,1
1,0.015873015873015872,-33.76385,0.0,83.1470608206892,0,0.1369790820338548,0.13699244139236347,0.13501844018047532,0.001973956562561615,0,0,0,0,0,0,0,386,2,strach,1
2,0.031746031746031744,-38.22131,0.0,81.96047430830039,0,0.13677940988005163,0.13678643087894335,0.13501358715019057,0.001772799508628226,0,0,0,0,0,0,0,387,2,strach,1
3,0.047619047619047616,-42.10419,0.0,80.78430993169786,0,0.13659173346605924,0.13659113152848879,0.13500875065886125,0.0015823370827640168,0,0,0,0,0,0,0,388,2,strach,1
4,0.06349206349206349,-44.94458,0.0,79.62089836259622,0,0.1364170820054771,0.13640841883281757,0.13500393068597275,0.00140444479731923,0,0,0,0,0,0,0,389,2,strach,1
5,0.07936507936507936,-46.04236,0.0,78.4723164441694,0,0.1362564847119047,0.1362400477110824,0.13499912721193283,0.0012408775910566442,0,0,0,0,0,0,0,390,2,strach,1
6,0.09523809523809523,-44.47113,0.0,77.34040294636381,0,0.13611097079894172,0.13608768004584046,0.13499434021796886,0.001093297365323933,0,0,0,0,0,0,0,391,2,strach,1
7,0.1111111111111111,-39.29694,0.0,76.22677465459742,0,0.13598156948018753,0.13595290397294524,0.13498956968603332,0.0009632922740399893,0,0,0,0,0,0,0,392,2,strach,1
8,0.12698412698412698,-30.04459,0.0,75.13284251799095,0,0.13586930996924176,0.13583724045432025,0.13498481559871864,0.0008523832965537512,0,0,0,0,0,0,0,393,2,strach,1
9,0.14285714285714285,-17.0932,0.0,74.05982763169426,0,0.13577522147970394,0.13574213359552734,0.13498007793918204,0.0007620145552877987,0,0,0,0,0,0,0,394,2,strach,1
10,0.15873015873015872,-1.801956,0.0,73.00877687179293,0,0.13570033322517358,0.1356689224805037,0.13497535669108165,0.0006935251505390907,0,0,0,0,0,0,0,395,2,strach,1
11,0.1746031746031746,13.91573,0.0,71.98057804047626,0,0.1356456744192503,0.13561879389955034,0.13497065183852447,0.0006481018885196999,0,0,0,0,0,0,0,396,2,strach,1
12,0.19047619047619047,28.14792,0.0,70.97597441359935,0,0.13561227427553352,0.13559271713037174,0.1349659633660268,0.0006267140624357442,0,0,0,0,0,0,0,397,2,strach,1
13,0.20634920634920634,39.60864,3.904079583930524,69.99557861261763,0,0.1356011620076228,0.13559136375925904,0.13496129125848824,0.0006300332736967582,0,0,0,0,0,0,0,398,2,strach,1
14,0.2222222222222222,47.79694,12.219375753365073,69.03988574836487,0,0.1356133668291177,0.13561501724815947,0.13495663550117948,0.0006583429989973645,0,0,0,0,0,0,0,399,2,strach,1
15,0.23809523809523808,52.85793,17.350138276409456,68.10928580560861,0,0.1356499179536178,0.1356634784055565,0.13495199607974423,0.0007114440611953904,0,0,0,0,0,0,0,400,2,strach,1
16,0.25396825396825395,55.22801,19.52375573899236,67.20407525512346,0,0.13571184459472255,0.13573597395527648,0.13494737298021567,0.0007885631981020898,0,0,0,0,0,0,0,401,2,strach,1
17,0.2698412698412698,55.32542,19.17881758201175,66.32446789455636,0,0.13580015045984253,0.13583107589475704,0.134942766189047,0.0008882724207200066,0,0,0,0,0,0,0,402,2,strach,1
18,0.2857142857142857,53.48021,16.81678398582633,65.47060493101155,0,0.13591365372769393,0.13594663921988295,0.13493817569315583,0.0010084267380344358,0,0,0,0,0,0,0,403,2,strach,1
19,0.30158730158730157,49.9884,12.944357697708107,64.64256432743181,0,0.13604734239898514,0.1360797648674327,0.1349336014799815,0.0011461270994026866,0,0,0,0,0,0,0,404,2,strach,1
20,0.31746031746031744,45.26474,8.089555681227719,63.840369441853504,0,0.1361958172188121,0.13622679347385871,0.13492904353755383,0.0012977141532655543,0,0,0,0,0,0,0,405,2,strach,1
21,0.3333333333333333,39.87794,2.8353478877197125,63.063996993793765,0,0.13635367893227068,0.13638333392430196,0.1349245018545721,0.0014587967960828236,0,0,0,0,0,0,0,406,2,strach,1
22,0.3492063492063492,34.5399,0.0,62.31338439568998,0,0.13651552828445696,0.1365443288430797,0.13491997642049192,0.0016243176627344668,0,0,0,0,0,0,0,407,2,strach,1
23,0.36507936507936506,29.95534,0.0,61.58843648971917,0,0.1366759660204668,0.13670415729860433,0.13491546722561704,0.0017886558313472281,0,0,0,0,0,0,0,408,2,strach,1
24,0.38095238095238093,26.7112,0.0,60.88903173171751,0,0.13682959288539617,0.13685677314412018,0.13491097426119408,0.0019457651639371559,0,0,0,0,0,0,0,409,2,strach,1
25,0.3968253968253968,25.16747,0.0,60.215027864504144,0,0.13697100962434108,0.13699587562063117,0.1349064975195061,0.002089344909243461,0,0,0,0,0,0,0,410,2,strach,1
26,0.4126984126984127,25.35986,0.0,59.566267122865824,0,0.1370948169823974,0.13711510711485256,0.13490203699396194,0.002213037460590814,0,0,0,0,0,0,0,411,2,strach,1
27,0.42857142857142855,27.0118,0.0,58.9425810119386,0,0.13719561570466113,0.1372082713030419,0.13489759267917772,0.0023106464996389534,0,0,0,0,0,0,0,412,2,strach,1
28,0.4444444444444444,29.6492,0.0,58.3437946998552,0,0.13726800653622823,0.1372695633599294,0.134893164571047,0.0023763672052429076,0,0,0,0,0,0,0,413,2,strach,1
29,0.4603174603174603,32.85789,0.0,57.76973106442834,0,0.1373065902221946,0.13729380255183893,0.13488875266679565,0.0024050188465189666,0,0,0,0,0,0,0,414,2,strach,1
30,0.47619047619047616,36.46523,3.274625105604849,57.22021443240037,0,0.13730596750765628,0.13727665649023907,0.13488435696501863,0.002392269036359192,0,0,0,0,0,0,0,415,2,strach,1
31,0.49206349206349204,40.68503,8.776207149269315,56.6950740484913,0,0.13726073913770914,0.13721484575639342,0.1348799774656953,0.002334838356066231,0,0,0,0,0,0,0,416,2,strach,1
32,0.5079365079365079,45.9016,15.283987855266558,56.19414731018215,0,0.13716550585744913,0.1371063176901091,0.13487561417018104,0.0022306741441101806,0,0,0,0,0,0,0,417,2,strach,1
33,0.5238095238095237,52.31856,22.80422539036626,55.71728280293977,0,0.13701489122541277,0.13695037901012622,0.13487126708117336,0.002079083116552131,0,0,0,0,0,0,0,418,2,strach,1
34,0.5396825396825397,59.73064,31.098827770423284,55.26434316946535,0,0.136807354003482,0.13674777866965174,0.1348669362026512,0.001880814222638409,0,0,0,0,0,0,0,419,2,strach,1
35,0.5555555555555556,67.44603,39.67011695356525,54.83520784557782,0,0.1365494636885937,0.13650073488990647,0.13486262153978718,0.0016380856784357569,0,0,0,0,0,0,0,420,2,strach,1
36,0.5714285714285714,74.53214,47.87018191376052,54.429775694558366,0,0.13624882124484278,0.13621290344183645,0.1348583230988331,0.001354553248656801,0,0,0,0,0,0,0,421,2,strach,1
37,0.5873015873015872,80.26681,55.08800158160351,54.04796757121946,0,0.13591302763632435,0.13588928761561,0.13485404088698014,0.0010352202162972684,0,0,0,0,0,0,0,422,2,strach,1
38,0.6031746031746031,84.36232,60.93741576709378,53.68972884665281,0,0.13554968382713345,0.13553609354642124,0.1348497749121955,0.0006862927086025674,0,0,0,0,0,0,0,423,2,strach,1
39,0.6190476190476191,87.05261,65.38341695314153,53.355031924588125,0,0.13516639078136514,0.13516053734605848,0.13484552518303894,0.0003149868288197825,0,0,0,0,0,1,0,424,2,strach,1
40,0.6349206349206349,88.86581,68.78432782269515,53.043878780591946,0,0.13477074946311446,0.1347706126564191,0.13484129170846226,-7.070379008691948e-05,0,0,0,0,0,0,0,425,2,strach,1
41,0.6507936507936507,90.44578,71.85933402360615,52.75630355599304,0,0.13437036083647635,0.1343748287648731,0.13483707449759597,-0.0004622698698595162,0,0,0,0,0,0,0,426,2,strach,1
42,0.6666666666666666,92.49468,75.59426091101737,52.4923752394762,0,0.13397282586554599,0.13398193036431655,0.13483287355952775,-0.0008509667266711858,0,0,0,0,0,0,0,427,2,strach,1
43,0.6825396825396826,95.87717,81.08345432546841,52.25220047079232,0,0.13358574551441832,0.1336006105017063,0.1348286889030779,-0.0012281013223666292,0,0,0,0,0,0,0,428,2,strach,1
44,0.6984126984126984,101.5791,89.30233960103246,52.03592650304408,0,0.13321672074718843,0.13323922832852844,0.13482452053657587,-0.0015853145137707315,0,0,0,0,0,0,0,429,2,strach,1
45,0.7142857142857142,110.5002,100.83458195259597,51.84374436259284,0,0.1328733525279514,0.13290554299777305,0.13482036846764395,-0.0019148471554970366,0,0,0,0,0,0,0,430,2,strach,1
46,0.7301587301587301,123.0221,115.6278601661431,51.67589224887455,0,0.13256324182080215,0.13260647444565007,0.13481623270299192,-0.0022097793180267406,0,0,0,0,0,0,0,431,2,strach,1
47,0.746031746031746,138.498,132.88217336083108,51.53265922040948,0,0.13229398958983585,0.1323479008047165,0.13481211324822784,-0.0024642328743923678,0,0,0,0,0,0,0,432,2,strach,1
48,0.7619047619047619,155.2231,151.1455469368054,51.41438921816139,0,0.13207319679914745,0.1321345007407524,0.13480801010768845,-0.002673529163131877,0,0,0,0,0,0,0,433,2,strach,1
49,0.7777777777777777,170.8398,168.60360130626762,51.32148548329013,0,0.13190845743926613,0.13196964701573252,0.13480392328429286,-0.0028342954251708956,0,0,0,0,0,0,0,434,2,strach,1
50,0.7936507936507936,183.1226,183.45014287844685,51.25441543342585,0,0.13180428801525368,0.13185535503279397,0.13479985277942189,-0.0029445162587345784,0,0,0,0,0,0,0,435,2,strach,1
51,0.8095238095238095,190.5804,194.18357670276146,51.21371607008324,0,0.1317573090117411,0.13179228709971264,0.13479579859282542,-0.003003529355778217,0,0,0,0,0,0,0,436,2,strach,1
52,0.8253968253968254,192.656,199.72530818795363,51.2,1,0.13176289223114945,0.1317798098764546,0.13479176072255852,-0.003011968054372097,1,0,0,0,0,0,0,437,2,strach,1
53,0.8412698412698412,189.2861,199.37424550185978,51.20808548231124,0,0.13181640947589984,0.13181609928957091,0.13478773916494705,-0.0029716564242723326,0,0,0,0,0,0,0,438,2,strach,1
54,0.8571428571428571,180.3955,192.71765751423732,51.23200157405292,0,0.13191323254841325,0.13189828447534444,0.13478373391458223,-0.0028854653237686285,0,0,0,0,0,0,0,439,2,strach,1
55,0.873015873015873,165.6471,179.6365509344456,51.27125831661834,0,0.1320487332511108,0.13202262035421022,0.13477974496434322,-0.0027571398252862795,0,0,0,0,0,0,0,440,2,strach,1
56,0.8888888888888888,144.7221,160.45523749789126,51.32539077052376,0,0.1322182833864136,0.1321846773969631,0.13477577230544605,-0.0025911094492277924,0,0,0,0,0,0,0,441,2,strach,1
57,0.9047619047619047,117.9304,136.1472255890613,51.39395616331276,0,0.1324172547567426,0.13237953702606883,0.13477181592751686,-0.0023922927627348673,0,0,0,0,0,0,0,442,2,strach,1
58,0.9206349206349206,86.77852,108.41989816103336,51.47653121332645,0,0.132641019164519,0.13260198179937402,0.13476787581868693,-0.002165907196073339,0,0,0,0,0,0,0,443,2,strach,1
59,0.9365079365079365,53.89738,79.52955508768181,51.572709606966285,0,0.13288494841216378,0.1328466708811929,0.13476395196570656,-0.001917293571660564,0,0,0,0,0,0,0,444,2,strach,1
60,0.9523809523809523,22.3717,51.82046287648333,51.68209960959922,0,0.13314441430209814,0.13310829312626207,0.1347600443540749,-0.0016517630202403217,0,0,0,0,0,0,0,445,2,strach,1
61,0.9682539682539681,-5.308075,27.153479403665564,51.80432179248402,0,0.13341478863674294,0.1333816922007461,0.13475615296818289,-0.0013744718600202195,0,0,0,0,0,0,0,446,2,strach,1
62,0.9841269841269841,-28.04913,6.482941542095265,51.93900686007846,0,0.13369144321851945,0.1336619603816975,0.13475227779146587,-0.001090327797364327,0,0,0,0,0,0,0,447,2,strach,1
63,1.0,-46.28162,0.0,52.08579356386164,0,0.13396974984984863,0.13394449988617965,0.13474841880656313,-0.0008039285978297679,0,0,0,0,0,0,0,448,2,strach,1
0,0.0,38.61584,0.0,73.02998945560391,0,0.1385193732981019,0.13847332277269392,0.135639740436519,0.002830016928828115,0,0,0,0,0,0,0,1496,4,strach,3
1,0.015873015873015872,30.6467,0.0,72.34568419368502,0,0.1385566712282198,0.13852933604810472,0.13564272222677975,0.0028830103992339377,0,0,0,0,0,0,0,1497,4,strach,3
2,0.031746031746031744,21.47925,0.0,71.66277696738831,0,0.1385412631750281,0.1385329573872664,0.13564570339955,0.002883612373193773,0,1,0,0,0,0,0,1498,4,strach,3
3,0.047619047619047616,12.0509,0.0,70.98241863169679,0,0.13847769209460012,0.1384862631757359,0.13564868393444937,0.002833899256330646,0,0,0,0,0,0,0,1499,4,strach,3
4,0.06349206349206349,3.219727,0.0,70.3056818313846,0,0.138370500943009,0.13839238479927005,0.13565166381275925,0.002737002452807745,0,0,0,0,0,0,0,1500,4,strach,3
5,0.07936507936507936,-4.547272,0.0,69.6335635584893,0,0.13822423267632797,0.1382553178393401,0.1356546430173949,0.002596917560871063,0,0,0,0,0,0,0,1501,4,strach,3
6,0.09523809523809523,-11.14783,0.0,68.96698795921023,0,0.13804343025063026,0.13807971701596522,0.13565762153285038,0.0024182993157377784,0,0,0,0,0,0,0,1502,4,strach,3
7,0.1111111111111111,-16.80786,0.0,68.30680933632765,0,0.137832636621989,0.1378706885020181,0.13566059934511845,0.002206253903982081,0,0,0,0,0,0,0,1503,4,strach,3
8,0.12698412698412698,-21.94281,0.0,67.65381529848091,0,0.1375963947464775,0.1376335901518423,0.13566357644158855,0.001966139192254552,0,0,0,0,0,0,0,1504,4,strach,3
9,0.14285714285714285,-26.98129,0.0,67.00873001281104,0,0.13733924758016894,0.13737384855147491,0.13566655281092513,0.0017033817776265533,0,0,0,0,0,0,0,1505,4,strach,3
10,0.15873015873015872,-32.22083,0.0,66.37221752248081,0,0.13706573807913644,0.1370967998207504,0.1356695284429299,0.0014233177898317715,0,0,0,0,0,0,0,1506,4,strach,3
11,0.1746031746031746,-37.7883,0.0,65.74488509537467,0,0.13678040919945328,0.13680755896980895,0.1356725033283908,0.0011310622479256591,0,0,0,0,0,0,0,1507,4,strach,3
12,0.19047619047619047,-43.45804,0.0,65.12728657480541,0,0.13648780389719264,0.13651092048671779,0.13567547745892083,0.0008314096480679295,0,0,0,0,0,0,0,1508,4,strach,3
13,0.20634920634920634,-48.46008,0.0,64.5199257072829,0,0.13619246512842775,0.1362112908181186,0.13567845082678998,0.0005287664443381619,0,0,0,0,0,0,0,1509,4,strach,3
14,0.2222222222222222,-51.61584,0.0,63.923259426315944,0,0.13589893584923182,0.13591265157030935,0.13568142342475234,0.00022711424999036488,0,0,0,0,0,1,0,1510,4,strach,3
15,0.23809523809523808,-51.45251,0.0,63.33770107480892,0,0.13561166702249483,0.13561855064482295,0.1356843952458717,-6.999902679373252e-05,0,0,0,0,0,0,0,1511,4,strach,3
16,0.25396825396825395,-46.68393,0.0,62.763623551882105,0,0.13533350007410197,0.1353321171596615,0.13568736628334732,-0.0003594442614964476,0,0,0,0,0,0,0,1512,4,strach,3
17,0.2698412698412698,-36.7475,0.0,62.20136237289429,0,0.13506590622523737,0.13505609493010726,0.13569033653034254,-0.0006384776322814394,0,0,0,0,0,0,0,1513,4,strach,3
18,0.2857142857142857,-22.13583,0.0,61.651218634087066,0,0.13481031295957943,0.13479288854213672,0.13569330597981738,-0.0009046945464125039,0,0,0,0,0,0,0,1514,4,strach,3
19,0.30158730158730157,-4.403381,0.0,61.113461875620125,0,0.1345681477608067,0.13454461570593618,0.13569627462436737,-0.0011559772865765948,0,0,0,0,0,0,0,1515,4,strach,3
20,0.31746031746031744,14.28937,0.0,60.58833283884066,0,0.13434083811259745,0.13431315967237517,0.1356992424560695,-0.0013904425942564583,0,0,0,0,0,0,0,1516,4,strach,3
21,0.3333333333333333,31.81967,0.0,60.0760461154492,0,0.13412981149863026,0.1341002160411446,0.13570220946633707,-0.0016063948614472793,0,0,0,0,0,0,0,1517,4,strach,3
22,0.3492063492063492,46.80878,0.0,59.576792687807746,0,0.1339364954025835,0.13390732924982188,0.1357051756457839,-0.0018022896414557402,0,0,0,0,0,0,0,1518,4,strach,3
23,0.36507936507936506,58.69299,0.0,59.09074236100578,0,0.13376231730813565,0.13373591533181695,0.13570814098409958,-0.0019767108908290724,0,0,0,0,0,0,0,1519,4,strach,3
24,0.38095238095238093,67.68478,5.340216748485442,58.61804608847688,0,0.13360870469896513,0.13358726906176427,0.13571110546993603,-0.002128363823849816,0,0,0,0,0,0,0,1520,4,strach,3
25,0.3968253968253968,74.28436,12.194856261291896,58.15883819396234,0,0.1334770850587504,0.1334625552450509,0.1357140690908067,-0.002256083622906911,0,0,0,0,0,0,0,1521,4,strach,3
26,0.4126984126984127,78.98184,16.859384252989354,57.71323849347035,0,0.13336888587116985,0.13336278552106132,0.1357170318329988,-0.002358858635163034,0,0,0,0,0,0,0,1522,4,strach,3
27,0.42857142857142855,82.02518,19.822035884109994,57.28135432159662,0,0.133285534619902,0.1332887835048913,0.13571999368149965,-0.0024358652307667965,0,0,0,0,0,0,0,1523,4,strach,3
28,0.4444444444444444,83.59302,21.53634724866979,56.86328246717562,0,0.13322845878862524,0.1332411422657062,0.13572295461993708,-0.0024865103244352924,0,0,0,0,0,0,0,1524,4,strach,3
29,0.4603174603174603,83.96359,22.449561697024873,56.4591110237345,0,0.13319908586101803,0.13322017892465873,0.135725914630535,-0.002510476777491488,1,0,0,0,0,0,0,1525,4,strach,3
30,0.47619047619047616,83.63818,23.04770951293682,56.068921160644095,0,0.13319884332075882,0.1332258914713586,0.13572887369408407,-0.0025077665813655046,0,0,0,0,0,0,0,1526,4,strach,3
31,0.49206349206349204,83.34241,23.85509475452482,55.6927888212132,0,0.13322907327714123,0.13325792270398462,0.13573183178992787,-0.0024787369174684368,0,0,0,0,0,0,0,1527,4,strach,3
32,0.5079365079365079,83.72058,25.370779497190224,55.33078635427298,0,0.13328908960311334,0.13331553550496383,0.1357347888959643,-0.0024241248815147606,0,0,0,0,0,0,0,1528,4,strach,3
33,0.5238095238095237,85.26248,27.97325906679794,54.98298408605543,0,0.13337614136899797,0.1333976025460308,0.1357377449886623,-0.0023450577784796004,0,0,0,0,0,0,0,1529,4,strach,3
34,0.5396825396825397,88.0986,31.84731467654571,54.649451839398786,0,0.13348738495674542,0.1335026121117731,0.13574070004309335,-0.002243047299084761,0,0,0,0,0,0,0,1530,4,strach,3
35,0.5555555555555556,92.14438,36.97485554710069,54.33026040752412,0,0.13361997674830606,0.13362869022073814,0.1357436540329768,-0.0021199673987372996,0,0,0,0,0,0,0,1531,4,strach,3
36,0.5714285714285714,97.11963,43.19633388795885,54.025482989830394,0,0.1337710731256301,0.13377363779187845,0.1357466069307387,-0.001978017131142874,0,0,0,0,0,0,0,1532,4,strach,3
37,0.5873015873015872,102.748,50.31287247901729,53.7351965973623,0,0.13393783047066796,0.13393498039858034,0.13574955870758254,-0.001819670894348011,0,0,0,0,0,0,0,1533,4,strach,3
38,0.6031746031746031,108.8762,58.180393253518616,53.45948343582453,0,0.13411740516536982,0.1341100272627931,0.13575250933357105,-0.0016476194366925518,0,0,0,0,0,0,0,1534,4,strach,3
39,0.6190476190476191,115.5124,66.75340957294083,53.19843227425767,0,0.1343069535916861,0.13429593560315936,0.13575545877771739,-0.001464705508770434,0,0,0,0,0,0,0,1535,4,strach,3
40,0.6349206349206349,122.7834,76.0623390824504,52.95213980776507,0,0.1345036321315671,0.13448977625794475,0.13575840700808423,-0.0012738582405991117,0,0,0,0,0,0,0,1536,4,strach,3
41,0.6507936507936507,130.7705,86.13975316010448,52.7207120229957,0,0.1347045971669631,0.13468859662478672,0.1357613539918891,-0.001078030201976118,0,0,0,0,0,0,0,1537,4,strach,3
42,0.6666666666666666,139.4528,96.93250199055643,52.50426557545568,0,0.1349070050798244,0.1348894773507,0.13576429969561446,-0.0008801407125835811,0,0,0,0,0,0,0,1538,4,strach,3
43,0.6825396825396826,148.5939,108.2396165075631,52.302929188151914,0,0.13510801225210128,0.13508957981936112,0.13576724408512048,-0.0006830283548164694,0,0,0,0,0,0,0,1539,4,strach,3
44,0.6984126984126984,157.7835,119.70171873379324,52.11684508157559,0,0.13530477506574412,0.13528618227184963,0.13577018712575914,-0.0004894148531555559,0,0,0,0,0,0,0,1540,4,strach,3
45,0.7142857142857142,166.514,130.8452995140016,51.9461704456257,0,0.13549444990270315,0.13547670331836356,0.13577312878248804,-0.0003018815625654181,0,0,0,0,0,0,0,1541,4,strach,3
46,0.7301587301587301,174.2839,141.16541252960408,51.79107896476419,0,0.13567419314492873,0.13565871261030008,0.135776069019982,-0.0001228587965257014,0,0,0,0,0,0,0,1542,4,strach,3
47,0.746031746031746,180.686,150.2199549831512,51.65176240850427,0,0.1358411825719072,0.13582992950042155,0.13577900780274113,4.537283302692946e-05,0,0,0,0,0,0,0,1543,4,strach,3
48,0.7619047619047619,185.4635,157.70807229920445,51.52843230027578,0,0.13599331831222283,0.1359882115710235,0.13578194509519448,0.00020067094376339492,0,0,0,0,0,0,0,1544,4,strach,3
49,0.7777777777777777,188.4814,163.50999671118856,51.42132167880953,0,0.13612938001428174,0.136131535889022,0.1357848808617968,0.00034101263795262,0,0,0,0,0,0,0,1545,4,strach,3
50,0.7936507936507936,189.7042,167.67176611844377,51.33068696745806,0,0.13624820054056952,0.13625797666945386,0.13578781506711832,0.00046447216587207243,0,0,0,0,0,0,0,1546,4,strach,3
51,0.8095238095238095,189.1793,170.3264308746999,51.256809968350936,0,0.13634861275357188,0.13636568360295778,0.13579074767592558,0.0005691992532080433,0,0,0,0,0,0,0,1547,4,strach,3
52,0.8253968253968254,186.981,171.5585905003407,51.2,1,0.13642944951577451,0.1364528653435927,0.13579367865325268,0.0006534025888027624,0,0,0,0,0,0,0,1548,4,strach,3
53,0.8412698412698412,183.096,171.24448502978353,51.152104710975365,0,0.1364895436896631,0.13651778250115545,0.13579660796446158,0.0007153428169118977,0,0,0,0,0,0,0,1549,4,strach,3
54,0.8571428571428571,177.3031,168.92879214403118,51.10475186696653,0,0.13652772813772335,0.13655875391369587,0.13579953557529048,0.0007533388096711567,0,0,0,0,0,0,0,1550,4,strach,3
55,0.873015873015873,168.9866,163.81400810991894,51.05794296805775,0,0.13654283572244091,0.13657417900730479,0.13580246145188934,0.0007657900268489028,0,1,0,0,0,0,0,1551,4,strach,3
56,0.8888888888888888,157.1885,154.91877939407908,51.011679522250475,0,0.1365336993063015,0.1365625777350676,0.13580538556084157,0.0007512164547780046,0,0,0,0,0,0,0,1552,4,strach,3
57,0.9047619047619047,140.8476,141.40121349467535,50.96596304601645,0,0.13649915175179084,0.13652264801280745,0.13580830786917078,0.0007083160420923258,0,0,0,0,0,0,0,1553,4,strach,3
58,0.9206349206349206,119.3307,122.96073957333178,50.9207950648512,0,0.1364380259213945,0.1364533388528456,0.135811228344332,0.0006360378334960031,0,0,0,0,0,0,0,1554,4,strach,3
59,0.9365079365079365,92.95471,100.16793555061942,50.876177113828476,0,0.13634915467759828,0.1363539356790481,0.13581414695418653,0.000533667284835105,0,0,0,0,0,0,0,1555,4,strach,3
60,0.9523809523809523,63.23404,74.56720006296636,50.832110738155464,0,0.13623137088288786,0.13622415274284533,0.13581706366695973,0.000400918679159438,0,0,0,0,0,0,0,1556,4,strach,3
61,0.9682539682539681,32.74308,48.46802469834563,50.78859749372919,0,0.13608350739974884,0.1360642263104355,0.1358199784511816,0.00023802831398573806,0,0,0,0,0,0,0,1557,4,strach,3
62,0.9841269841269841,4.467651,24.46279272448839,50.74563894769388,0,0.13590439709066698,0.1358750015037605,0.13582289127560981,4.584134235022328e-05,0,0,0,0,0,0,0,1558,4,strach,3
63,1.0,-19.00437,4.827022020534381,50.70323667899977,0,0.13569292422514656,0.13565800546727674,0.13582580210913528,-0.0001741150603260407,0,0,0,0,0,0,0,1559,4,strach,3
0,0.0,29.05029,0.0,85.85257513737204,0,0.13225852420533396,0.1322692657804641,0.13354448092726284,-0.0007087547248480064,0,0,0,0,0,0,0,2717,6,strach,5
1,0.015873015873015872,24.70581,0.0,85.5253863958907,0,0.13248986128768525,0.13250539622880203,0.13354588511958213,-0.00047201646564942875,0,0,0,0,0,0,0,2718,6,strach,5
2,0.031746031746031744,21.4236,0.0,85.17604121414854,0,0.13271894016041857,0.13273831825289714,0.13354732900216948,-0.00023852605046502373,0,0,0,0,0,0,0,2719,6,strach,5
3,0.047619047619047616,19.25354,0.0,84.80594878897594,0,0.1329435534253297,0.13296564273737607,0.13354881261051196,-1.0672676926887247e-05,0,0,0,0,0,0,0,2720,6,strach,5
4,0.06349206349206349,18.08838,0.0,84.41651506559005,0,0.1331614936842144,0.13318501878077232,0.13355033597962526,0.00020919267137998142,0,0,0,0,0,0,0,2721,6,strach,5
5,0.07936507936507936,17.74467,0.0,84.00913704327222,0,0.13337055353886834,0.13339411795549605,0.13355189914418414,0.00041874148475569547,0,0,0,0,0,0,0,2722,6,strach,5
6,0.09523809523809523,18.15372,0.0,83.58519753959587,0,0.13356852559108742,0.13359063163232415,0.13355350213864825,0.0006156650517486959,0,0,0,0,0,0,0,2723,6,strach,5
7,0.1111111111111111,19.27851,0.0,83.14606042321209,0,0.13375320244266733,0.13377228274067787,0.13355514499738205,0.0007976862193122627,0,0,0,0,0,0,0,2724,6,strach,5
8,0.12698412698412698,21.09848,0.0,82.69306631883275,0,0.1339223766954038,0.13393685200755154,0.13355682775476713,0.0009625856316196274,0,0,0,0,0,0,0,2725,6,strach,5
9,0.14285714285714285,23.48718,0.0,82.22752878229653,0,0.13407384095109265,0.13408221739300305,0.1335585504453062,0.0011082411654494023,0,0,0,0,0,0,0,2726,6,strach,5
10,0.15873015873015872,26.16535,0.0,81.75073093849656,0,0.1342053878115296,0.1342064042062734,0.1335603131037171,0.0012326780462100504,0,0,0,0,0,0,0,2727,6,strach,5
11,0.1746031746031746,28.61526,0.0,81.2639225705078,0,0.13431480987851036,0.13430764233416415,0.1335621157650155,0.001334126076233233,0,0,0,0,0,0,0,2728,6,strach,5
12,0.19047619047619047,30.16887,0.0,80.76831764447024,0,0.13439989975383076,0.13438442623096425,0.13356395846458552,0.001411079624628999,0,0,0,0,0,0,0,2729,6,strach,5
13,0.20634920634920634,30.18044,0.0,80.26509225165063,0,0.1344584500392865,0.13443557288762814,0.13356584123823703,0.0014623555964054353,0,0,0,0,0,0,0,2730,6,strach,5
14,0.2222222222222222,28.16162,0.0,79.75538294659157,0,0.13448825333667339,0.13446027298040936,0.1335677641222489,0.0014871445810577472,0,1,0,0,0,0,0,2731,6,strach,5
15,0.23809523809523808,24.08417,0.0,79.24028545832465,0,0.1344871374840006,0.1344581308293655,0.1335697271533973,0.0014850508110438778,0,0,0,0,0,0,0,2732,6,strach,5
16,0.25396825396825395,18.44083,0.0,78.72085375023552,0,0.13445473462150412,0.1344291896636985,0.13357173036896872,0.001456117427110516,0,0,0,0,0,0,0,2733,6,strach,5
17,0.2698412698412698,12.08233,0.0,78.1980994032696,0,0.13439330859511542,0.13437393992268784,0.13357377380675778,0.0014008347792274015,0,0,0,0,0,0,0,2734,6,strach,5
18,0.2857142857142857,6.068642,0.0,77.67299129671342,0,0.1343053313942224,0.13429330978272588,0.13357585750504924,0.0013201309536392948,0,0,0,0,0,0,0,2735,6,strach,5
19,0.30158730158730157,1.232368,0.0,77.14645556072045,0,0.13419327500821301,0.1341886386111441,0.13357798150258512,0.0012153452267242354,0,0,0,0,0,0,0,2736,6,strach,5
20,0.31746031746031744,-2.053276,0.0,76.61937577502431,0,0.1340596114264752,0.13406163541898822,0.13358014583851707,0.0010881865178148263,0,0,0,0,0,0,0,2737,6,strach,5
21,0.3333333333333333,-4.013359,0.0,76.09259338884452,0,0.13390681263839688,0.13391432546893203,0.13358235055234474,0.0009406799971727331,0,0,0,0,0,0,0,2738,6,strach,5
22,0.3492063492063492,-5.347481,0.0,75.56690833779118,0,0.13373735063336598,0.13374898890540368,0.1335845956838414,0.0007751057161880004,0,0,0,0,0,0,0,2739,6,strach,5
23,0.36507936507936506,-7.004906,0.0,75.04307983457225,0,0.1335536974007704,0.13356809558862875,0.1335868812729679,0.0005939334415071924,0,0,0,0,0,0,0,2740,6,strach,5
24,0.38095238095238093,-9.740219,0.0,74.52182731145705,0,0.1333583249299982,0.13337424025742048,0.13358920735977597,0.00039975781791896264,0,0,0,0,0,0,0,2741,6,strach,5
25,0.3968253968253968,-13.81869,0.0,74.00383149371321,0,0.1331537052104371,0.1331700817722587,0.13359157398430277,0.0001952376115375719,0,0,0,0,0,0,0,2742,6,strach,5
26,0.4126984126984127,-18.81401,0.0,73.48973558458219,0,0.13294231023147512,0.1329582895709226,0.13359398118645757,-1.695783445242649e-05,0,0,0,0,0,0,0,2743,6,strach,5
27,0.42857142857142855,-23.49634,0.0,72.98014654375255,0,0.1327266119825002,0.13274149967803736,0.13359642900590274,-0.0002341925901317568,0,0,0,0,0,0,0,2744,6,strach,5
28,0.4444444444444444,-26.05826,0.0,72.47563644271318,0,0.13250908245290027,0.13252228171793048,0.13359891748193,-0.00045389712586743153,0,0,0,0,0,0,0,2745,6,strach,5
29,0.4603174603174603,-24.50336,0.0,71.97674388179125,0,0.13229219363206324,0.13230311744968754,0.13360144665333404,-0.0006735897771316999,0,0,0,0,0,1,0,2746,6,strach,5
30,0.47619047619047616,-17.30714,0.0,71.48397545508678,0,0.13207841750937707,0.13208639042752432,0.13360401655828438,-0.0008908870840029785,0,0,0,0,0,0,0,2747,6,strach,5
31,0.49206349206349204,-3.91407,0.0,70.9978072508907,0,0.1318702225419082,0.13187438553395298,0.13360662723419747,-0.001103504257873071,0,0,0,0,0,0,0,2748,6,strach,5
32,0.5079365079365079,14.90005,0.0,70.51868637650358,0,0.1316697745154824,0.1316692963784703,0.13360927871761,-0.0013092477826331449,0,0,0,0,0,0,0,2749,6,strach,5
33,0.5238095238095237,37.22268,0.0,70.0470324976495,0,0.13147870877917872,0.13147323794066565,0.1336119710440548,-0.00150600277144314,0,0,0,0,0,0,0,2750,6,strach,5
34,0.5396825396825397,60.57893,11.21347303024111,69.58323938389418,0,0.13129860705151236,0.13128826140530617,0.133614704247941,-0.0016917181315276632,0,0,0,0,0,0,0,2751,6,strach,5
35,0.5555555555555556,82.60545,34.53164945285751,69.12767645262687,0,0.13113105105099832,0.1311163679290759,0.13361747836243912,-0.0018643927973231711,0,0,0,0,0,0,0,2752,6,strach,5
36,0.5714285714285714,101.6958,55.41801502147483,68.68069030524565,0,0.1309776224961517,0.13095951812743162,0.13362029341937273,-0.0020220662435149685,0,0,0,0,0,0,0,2753,6,strach,5
37,0.5873015873015872,117.1425,72.93799992607947,68.2426062501956,0,0.13083990310548757,0.13081963439212616,0.13362314944911763,-0.0021628161674141755,0,0,0,0,0,0,0,2754,6,strach,5
38,0.6031746031746031,129.0141,86.87484063219057,67.81372980844992,0,0.130719474597521,0.13069859373945872,0.13362604648050966,-0.00228476564061641,0,0,0,0,0,0,0,2755,6,strach,5
39,0.6190476190476191,137.7538,97.5339244697587,67.39434819789321,0,0.13061791869076714,0.13059820971633557,0.13362898454076236,-0.002386101202859982,0,0,0,0,0,0,0,2756,6,strach,5
40,0.6349206349206349,143.9433,105.47699336073016,66.98473179387057,0,0.130536817103741,0.1305202029032773,0.13363196365539556,-0.0024651023589482585,0,0,0,0,0,0,0,2757,6,strach,5
41,0.6507936507936507,148.0665,111.30462026287948,66.58513556390433,0,0.1304777515549576,0.13046616067812694,0.13363498384817585,-0.002520181814983316,0,0,0,0,0,0,0,2758,6,strach,5
42,0.6666666666666666,150.5313,115.55465166182461,66.19580047525902,0,0.13044230376293217,0.13043748805231692,0.13363804514107006,-0.0025499346420534332,0,0,0,0,0,0,0,2759,6,strach,5
43,0.6825396825396826,151.7404,118.71603613432951,65.81695487465625,0,0.1304320554461797,0.13043535246189705,0.1336411475542125,-0.0025531934851736665,1,0,0,0,0,0,0,2760,6,strach,5
44,0.6984126984126984,152.0863,121.3028672161396,65.44881584001028,0,0.1304485883232152,0.13046062628091615,0.13364429110588694,-0.002529086049887176,0,0,0,0,0,0,0,2761,6,strach,5
45,0.7142857142857142,152.1527,123.91177532229139,65.09159050457647,0,0.13049348411255385,0.13051383142052803,0.13364747581252373,-0.002477090503157689,0,0,0,0,0,0,0,2762,6,strach,5
46,0.7301587301587301,152.6034,127.20136223734349,64.74547735438237,0,0.13056832453271072,0.13059509059254396,0.13365070168871285,-0.0023970842098311775,0,0,0,0,0,0,0,2763,6,strach,5
47,0.746031746031746,154.1715,131.77663609786174,64.41066750025121,0,0.1306746828372657,0.13070408958846563,0.13365396874723295,-0.0022893814536330626,0,0,0,0,0,0,0,2764,6,strach,5
48,0.7619047619047619,157.4186,138.0158014472468,64.0873459261346,0,0.13081270922623572,0.130840054237138,0.13365727699909669,-0.0021547564795618406,0,0,0,0,0,0,0,2765,6,strach,5
49,0.7777777777777777,162.5295,145.91724068756423,63.77569271584888,0,0.13097954440851645,0.1310017446015333,0.13366062645361174,-0.001994449297167122,0,0,0,0,0,0,0,2766,6,strach,5
50,0.7936507936507936,169.1323,155.04940815108566,63.47588426066552,0,0.13117194636674823,0.13118746757406177,0.13366401711845746,-0.0018101530853170188,0,0,0,0,0,0,0,2767,6,strach,5
51,0.8095238095238095,176.2979,164.64693225202646,63.18809445054256,0,0.1313866730835714,0.1313951075032859,0.13366744899977642,-0.0016039835655763173,0,0,0,0,0,0,0,2768,6,strach,5
52,0.8253968253968254,182.8493,173.82567307603165,62.91249585210832,0,0.1316204825416264,0.13162217302404788,0.13367092210227968,-0.0013784321721853874,0,0,0,0,0,0,0,2769,6,strach,5
53,0.8412698412698412,187.7247,181.82215913023762,62.64926087682479,0,0.1318701327235535,0.13186585703054926,0.1336744364293645,-0.0011363060790997067,0,0,0,0,0,0,0,2770,6,strach,5
54,0.8571428571428571,190.3768,188.13894239514943,62.39856294307089,0,0.13213238161199312,0.1321231058333068,0.13367799198324348,-0.0008806590431638596,0,0,0,0,0,0,0,2771,6,strach,5
55,0.873015873015873,190.776,192.51880488549168,62.160577636202355,0,0.13240398718958563,0.13239069302126918,0.13368158876508307,-0.000614717542134751,0,0,0,0,0,0,0,2772,6,strach,5
56,0.8888888888888888,189.1317,194.76281635594475,61.935483870967744,1,0.1326817074389713,0.13266529340779504,0.13368522677514993,-0.0003418068288509777,0,0,0,0,0,0,0,2773,6,strach,5
57,0.9047619047619047,185.4187,194.50173980496967,61.71659846565848,0,0.13296230034279058,0.1329435526416832,0.13368890601296315,-6.528132035610247e-05,0,0,0,0,0,0,0,2774,6,strach,5
58,0.9206349206349206,179.0581,191.07111100953844,61.49722567219668,0,0.13324252388368382,0.13322214856439982,0.13369262647745075,0.00021153675917108127,0,0,0,0,0,0,0,2775,6,strach,5
59,0.9365079365079365,168.9345,183.59761469968527,61.27752565894984,0,0.13351913604429133,0.1334978411391769,0.13369638816710805,0.0004854073073553844,0,0,0,0,0,0,0,2776,6,strach,5
60,0.9523809523809523,153.8554,171.29504152233977,61.0576544800378,0,0.13378889480725353,0.13376750871477686,0.13370019108015638,0.0007532086072301373,0,0,0,0,0,0,0,2777,6,strach,5
61,0.9682539682539681,133.1472,153.8488976069708,60.83776409699027,0,0.13404855815521075,0.13402816946757168,0.13370403521470006,0.0010119587691581743,0,0,0,0,0,0,0,2778,6,strach,5
62,0.9841269841269841,107.1273,131.70520478323897,60.61800240830686,0,0.13429488407080323,0.13427698804317925,0.1337079205688799,0.001258822372313424,0,0,0,0,0,0,0,2779,6,strach,5
63,1.0,77.22156,106.10882492257784,60.39851328640054,0,0.13452463148430652,0.13451126864397062,0.13371184714102138,0.001491103552039022,0,0,0,0,0,0,0,2780,6,strach,5
